time_s,ecg_raw,ecg_cleaned
0.000000000000000000e+00,4.930000000000000000e+02,5.536867766035611282e+01
1.000000000000000021e-03,4.930000000000000000e+02,5.368266182269745457e+01
2.000000000000000042e-03,4.960000000000000000e+02,5.181022304278135238e+01
3.000000000000000062e-03,4.970000000000000000e+02,4.978238510273803286e+01
4.000000000000000083e-03,4.960000000000000000e+02,4.764849350353108548e+01
5.000000000000000104e-03,4.940000000000000000e+02,4.547804493546917115e+01
6.000000000000000125e-03,4.940000000000000000e+02,4.336155046738041818e+01
7.000000000000000146e-03,4.950000000000000000e+02,4.141021177664442376e+01
8.000000000000000167e-03,4.960000000000000000e+02,3.975424918866487189e+01
8.999999999999999320e-03,4.950000000000000000e+02,3.853979651934717765e+01
1.000000000000000021e-02,4.940000000000000000e+02,3.792436627987594022e+01
1.099999999999999936e-02,4.940000000000000000e+02,3.807098420283207219e+01
1.200000000000000025e-02,4.940000000000000000e+02,3.914118795835995002e+01
1.299999999999999940e-02,4.960000000000000000e+02,4.128717453050071384e+01
1.400000000000000029e-02,4.970000000000000000e+02,4.464345708592614415e+01
1.499999999999999944e-02,4.970000000000000000e+02,4.931844866735488608e+01
1.600000000000000033e-02,4.980000000000000000e+02,5.538642080579136007e+01
1.700000000000000122e-02,5.020000000000000000e+02,6.288028583494294566e+01
1.799999999999999864e-02,5.040000000000000000e+02,7.178562174567638010e+01
1.899999999999999953e-02,5.090000000000000000e+02,8.203630398808164159e+01
2.000000000000000042e-02,5.130000000000000000e+02,9.351204102820581454e+01
2.100000000000000130e-02,5.190000000000000000e+02,1.060380380269100442e+02
2.199999999999999872e-02,5.310000000000000000e+02,1.193869352928317795e+02
2.299999999999999961e-02,5.460000000000000000e+02,1.332830802768070839e+02
2.400000000000000050e-02,5.630000000000000000e+02,1.474090921802427943e+02
2.500000000000000139e-02,5.800000000000000000e+02,1.614145702921324528e+02
2.599999999999999881e-02,5.990000000000000000e+02,1.749266871709188251e+02
2.699999999999999969e-02,6.220000000000000000e+02,1.875623025681802289e+02
2.800000000000000058e-02,6.470000000000000000e+02,1.989411401836613891e+02
2.900000000000000147e-02,6.660000000000000000e+02,2.086994929433396919e+02
2.999999999999999889e-02,6.830000000000000000e+02,2.165038684502624164e+02
3.099999999999999978e-02,7.000000000000000000e+02,2.220639581109617779e+02
3.200000000000000067e-02,7.100000000000000000e+02,2.251443130540993707e+02
3.300000000000000155e-02,7.160000000000000000e+02,2.255741381269083377e+02
3.400000000000000244e-02,7.180000000000000000e+02,2.232546754689768420e+02
3.500000000000000333e-02,7.150000000000000000e+02,2.181637522948306867e+02
3.599999999999999728e-02,7.050000000000000000e+02,2.103572244962440152e+02
3.699999999999999817e-02,6.910000000000000000e+02,1.999672477317965331e+02
3.799999999999999906e-02,6.710000000000000000e+02,1.871975117577054277e+02
3.899999999999999994e-02,6.410000000000000000e+02,1.723157423811763351e+02
4.000000000000000083e-02,6.080000000000000000e+02,1.556438967327644605e+02
4.100000000000000172e-02,5.720000000000000000e+02,1.375465611105803134e+02
4.200000000000000261e-02,5.370000000000000000e+02,1.184181157060936016e+02
4.299999999999999656e-02,5.070000000000000000e+02,9.866925870575727231e+01
4.399999999999999745e-02,4.830000000000000000e+02,7.871348238907604866e+01
4.499999999999999833e-02,4.640000000000000000e+02,5.895406586772911339e+01
4.599999999999999922e-02,4.490000000000000000e+02,3.977209488092788092e+01
4.700000000000000011e-02,4.380000000000000000e+02,2.151594216824447159e+01
4.800000000000000100e-02,4.290000000000000000e+02,4.492547434269027029e+00
4.900000000000000189e-02,4.210000000000000000e+02,-1.103927006353300477e+01
5.000000000000000278e-02,4.130000000000000000e+02,-2.487334395595868841e+01
5.099999999999999672e-02,4.050000000000000000e+02,-3.685852433399336547e+01
5.199999999999999761e-02,4.000000000000000000e+02,-4.689895815078436669e+01
5.299999999999999850e-02,4.010000000000000000e+02,-5.495245703189686282e+01
5.399999999999999939e-02,4.010000000000000000e+02,-6.102718848236906979e+01
5.500000000000000028e-02,3.990000000000000000e+02,-6.517696940387544657e+01
5.600000000000000117e-02,3.980000000000000000e+02,-6.749546184665008752e+01
5.700000000000000205e-02,3.970000000000000000e+02,-6.810957639938722252e+01
5.800000000000000294e-02,3.960000000000000000e+02,-6.717238838860291139e+01
5.899999999999999689e-02,3.970000000000000000e+02,-6.485587122829851126e+01
5.999999999999999778e-02,3.980000000000000000e+02,-6.134374575879692060e+01
6.099999999999999867e-02,3.980000000000000000e+02,-5.682472670658010117e+01
6.199999999999999956e-02,3.980000000000000000e+02,-5.148641389374332533e+01
6.300000000000000044e-02,4.010000000000000000e+02,-4.551002724085411444e+01
6.400000000000000133e-02,4.070000000000000000e+02,-3.906612349369655846e+01
6.500000000000000222e-02,4.120000000000000000e+02,-3.231136377272283511e+01
6.600000000000000311e-02,4.160000000000000000e+02,-2.538633210640141158e+01
6.700000000000000400e-02,4.240000000000000000e+02,-1.841434384627153875e+01
6.800000000000000488e-02,4.330000000000000000e+02,-1.150113419166031825e+01
6.900000000000000577e-02,4.420000000000000000e+02,-4.735282752748890545e+00
7.000000000000000666e-02,4.510000000000000000e+02,1.810789888338402154e+00
7.099999999999999367e-02,4.590000000000000000e+02,8.079424250982123468e+00
7.199999999999999456e-02,4.670000000000000000e+02,1.402608807136052604e+01
7.299999999999999545e-02,4.760000000000000000e+02,1.961765681121732996e+01
7.399999999999999634e-02,4.830000000000000000e+02,2.483073625751347180e+01
7.499999999999999722e-02,4.880000000000000000e+02,2.965012696050733609e+01
7.599999999999999811e-02,4.900000000000000000e+02,3.406749923296462867e+01
7.699999999999999900e-02,4.900000000000000000e+02,3.808031534716293010e+01
7.799999999999999989e-02,4.920000000000000000e+02,4.169100422575957055e+01
7.900000000000000078e-02,4.970000000000000000e+02,4.490636532666586334e+01
8.000000000000000167e-02,4.990000000000000000e+02,4.773715538026910821e+01
8.100000000000000255e-02,5.030000000000000000e+02,5.019779731738809403e+01
8.200000000000000344e-02,5.090000000000000000e+02,5.230614664836420502e+01
8.300000000000000433e-02,5.110000000000000000e+02,5.408325529819244082e+01
8.400000000000000522e-02,5.090000000000000000e+02,5.555308339755444536e+01
8.500000000000000611e-02,5.080000000000000000e+02,5.674212313819024445e+01
8.599999999999999312e-02,5.090000000000000000e+02,5.767891390678548902e+01
8.699999999999999400e-02,5.110000000000000000e+02,5.839344339660718219e+01
8.799999999999999489e-02,5.120000000000000000e+02,5.891644426521688871e+01
8.899999999999999578e-02,5.140000000000000000e+02,5.927860925125300184e+01
8.999999999999999667e-02,5.180000000000000000e+02,5.950975870437201110e+01
9.099999999999999756e-02,5.190000000000000000e+02,5.963800260248795126e+01
9.199999999999999845e-02,5.180000000000000000e+02,5.968894389631419983e+01
9.299999999999999933e-02,5.150000000000000000e+02,5.968497119823627628e+01
9.400000000000000022e-02,5.150000000000000000e+02,5.964468639107457193e+01
9.500000000000000111e-02,5.120000000000000000e+02,5.958250684713968326e+01
9.600000000000000200e-02,5.100000000000000000e+02,5.950847299071370600e+01
9.700000000000000289e-02,5.090000000000000000e+02,5.942828046057775282e+01
9.800000000000000377e-02,5.100000000000000000e+02,5.934354284350841624e+01
9.900000000000000466e-02,5.130000000000000000e+02,5.925227668869955266e+01
1.000000000000000056e-01,5.150000000000000000e+02,5.914958619216227476e+01
1.010000000000000064e-01,5.140000000000000000e+02,5.902851150566133498e+01
1.019999999999999934e-01,5.120000000000000000e+02,5.888099299792698815e+01
1.029999999999999943e-01,5.120000000000000000e+02,5.869889481432895906e+01
1.039999999999999952e-01,5.130000000000000000e+02,5.847502544154508541e+01
1.049999999999999961e-01,5.130000000000000000e+02,5.820409118970808038e+01
1.059999999999999970e-01,5.150000000000000000e+02,5.788352082412261268e+01
1.069999999999999979e-01,5.190000000000000000e+02,5.751410601439642534e+01
1.079999999999999988e-01,5.220000000000000000e+02,5.710041254364888630e+01
1.089999999999999997e-01,5.220000000000000000e+02,5.665093078209943656e+01
1.100000000000000006e-01,5.210000000000000000e+02,5.617794997464378781e+01
1.110000000000000014e-01,5.190000000000000000e+02,5.569715841131495182e+01
1.120000000000000023e-01,5.160000000000000000e+02,5.522698938957567805e+01
1.130000000000000032e-01,5.150000000000000000e+02,5.478774981963471902e+01
1.140000000000000041e-01,5.130000000000000000e+02,5.440058317260798759e+01
1.150000000000000050e-01,5.110000000000000000e+02,5.408633014440365372e+01
1.160000000000000059e-01,5.070000000000000000e+02,5.386435802396749040e+01
1.170000000000000068e-01,5.040000000000000000e+02,5.375143270527416917e+01
1.179999999999999938e-01,5.060000000000000000e+02,5.376070528873076881e+01
1.189999999999999947e-01,5.060000000000000000e+02,5.390087835748966683e+01
1.199999999999999956e-01,5.060000000000000000e+02,5.417560572402723551e+01
1.209999999999999964e-01,5.080000000000000000e+02,5.458316448917119601e+01
1.219999999999999973e-01,5.070000000000000000e+02,5.511642068185091148e+01
1.229999999999999982e-01,5.100000000000000000e+02,5.576309079298688687e+01
1.239999999999999991e-01,5.150000000000000000e+02,5.650628252409668306e+01
1.250000000000000000e-01,5.180000000000000000e+02,5.732528038355712141e+01
1.260000000000000009e-01,5.190000000000000000e+02,5.819652662126824794e+01
1.270000000000000018e-01,5.220000000000000000e+02,5.909473643813918642e+01
1.280000000000000027e-01,5.260000000000000000e+02,5.999407920613504785e+01
1.290000000000000036e-01,5.260000000000000000e+02,6.086935502029414380e+01
1.300000000000000044e-01,5.260000000000000000e+02,6.169709834624774203e+01
1.310000000000000053e-01,5.270000000000000000e+02,6.245654753237887036e+01
1.320000000000000062e-01,5.300000000000000000e+02,6.313042989712452879e+01
1.330000000000000071e-01,5.290000000000000000e+02,6.370552607107652676e+01
1.340000000000000080e-01,5.270000000000000000e+02,6.417299315812876159e+01
1.350000000000000089e-01,5.240000000000000000e+02,6.452844285415517334e+01
1.360000000000000098e-01,5.230000000000000000e+02,6.477178668471000833e+01
1.370000000000000107e-01,5.240000000000000000e+02,6.490687483687217707e+01
1.380000000000000115e-01,5.230000000000000000e+02,6.494096667848542381e+01
1.390000000000000124e-01,5.220000000000000000e+02,6.488407924022747864e+01
1.400000000000000133e-01,5.220000000000000000e+02,6.474826423961641808e+01
1.409999999999999865e-01,5.220000000000000000e+02,6.454686453342685581e+01
1.419999999999999873e-01,5.210000000000000000e+02,6.429379740270914567e+01
1.429999999999999882e-01,5.200000000000000000e+02,6.400290530685535373e+01
1.439999999999999891e-01,5.210000000000000000e+02,6.368740544052474206e+01
1.449999999999999900e-01,5.240000000000000000e+02,6.335945851600897782e+01
1.459999999999999909e-01,5.250000000000000000e+02,6.302986569141210538e+01
1.469999999999999918e-01,5.260000000000000000e+02,6.270789149004937713e+01
1.479999999999999927e-01,5.250000000000000000e+02,6.240120083811027740e+01
1.489999999999999936e-01,5.270000000000000000e+02,6.211589074622004603e+01
1.499999999999999944e-01,5.280000000000000000e+02,6.185659220351298870e+01
1.509999999999999953e-01,5.290000000000000000e+02,6.162661579312206328e+01
1.519999999999999962e-01,5.290000000000000000e+02,6.142811533855670092e+01
1.529999999999999971e-01,5.300000000000000000e+02,6.126224723666903316e+01
1.539999999999999980e-01,5.310000000000000000e+02,6.112930847188824401e+01
1.549999999999999989e-01,5.290000000000000000e+02,6.102884290959345037e+01
1.559999999999999998e-01,5.260000000000000000e+02,6.095971250983912171e+01
1.570000000000000007e-01,5.220000000000000000e+02,6.092013675617236146e+01
1.580000000000000016e-01,5.180000000000000000e+02,6.090770911187222225e+01
1.590000000000000024e-01,5.160000000000000000e+02,6.091940311546996156e+01
1.600000000000000033e-01,5.150000000000000000e+02,6.095158245202564018e+01
1.610000000000000042e-01,5.160000000000000000e+02,6.100002888980102966e+01
1.620000000000000051e-01,5.170000000000000000e+02,6.105999952170096634e+01
1.630000000000000060e-01,5.200000000000000000e+02,6.112632070237112458e+01
1.640000000000000069e-01,5.260000000000000000e+02,6.119352101179442371e+01
1.650000000000000078e-01,5.310000000000000000e+02,6.125600019554507014e+01
1.660000000000000087e-01,5.320000000000000000e+02,6.130822603704532980e+01
1.670000000000000095e-01,5.310000000000000000e+02,6.134494714155206196e+01
1.680000000000000104e-01,5.320000000000000000e+02,6.136140713787992240e+01
1.690000000000000113e-01,5.340000000000000000e+02,6.135354510773674264e+01
1.700000000000000122e-01,5.330000000000000000e+02,6.131816817409441001e+01
1.710000000000000131e-01,5.310000000000000000e+02,6.125308492587971898e+01
1.719999999999999862e-01,5.290000000000000000e+02,6.115719233133724941e+01
1.729999999999999871e-01,5.260000000000000000e+02,6.103051345625262059e+01
1.739999999999999880e-01,5.250000000000000000e+02,6.087418804330022226e+01
1.749999999999999889e-01,5.210000000000000000e+02,6.069042222081920812e+01
1.759999999999999898e-01,5.190000000000000000e+02,6.048240677439803648e+01
1.769999999999999907e-01,5.170000000000000000e+02,6.025421516334191807e+01
1.779999999999999916e-01,5.180000000000000000e+02,6.001069261990814141e+01
1.789999999999999925e-01,5.200000000000000000e+02,5.975734626620218393e+01
1.799999999999999933e-01,5.220000000000000000e+02,5.950024345686699689e+01
1.809999999999999942e-01,5.250000000000000000e+02,5.924592190626277244e+01
1.819999999999999951e-01,5.300000000000000000e+02,5.900131109903824722e+01
1.829999999999999960e-01,5.320000000000000000e+02,5.877366056936483574e+01
1.839999999999999969e-01,5.320000000000000000e+02,5.857046739735179131e+01
1.849999999999999978e-01,5.320000000000000000e+02,5.839939315224112448e+01
1.859999999999999987e-01,5.310000000000000000e+02,5.826815981207740691e+01
1.869999999999999996e-01,5.280000000000000000e+02,5.818441503941749460e+01
1.880000000000000004e-01,5.260000000000000000e+02,5.815555954378842074e+01
1.890000000000000013e-01,5.240000000000000000e+02,5.818853289861195321e+01
1.900000000000000022e-01,5.240000000000000000e+02,5.828955875105936002e+01
1.910000000000000031e-01,5.250000000000000000e+02,5.846385542168835059e+01
1.920000000000000040e-01,5.230000000000000000e+02,5.871532294586335610e+01
1.930000000000000049e-01,5.220000000000000000e+02,5.904622217466825163e+01
1.940000000000000058e-01,5.240000000000000000e+02,5.945686519228291189e+01
1.950000000000000067e-01,5.270000000000000000e+02,5.994533866753829443e+01
1.960000000000000075e-01,5.300000000000000000e+02,6.050728259715329216e+01
1.970000000000000084e-01,5.300000000000000000e+02,6.113574609722046915e+01
1.980000000000000093e-01,5.300000000000000000e+02,6.182113946276150784e+01
1.990000000000000102e-01,5.310000000000000000e+02,6.255129776482392145e+01
2.000000000000000111e-01,5.320000000000000000e+02,6.331166601545616146e+01
2.010000000000000120e-01,5.330000000000000000e+02,6.408560971061453415e+01
2.020000000000000129e-01,5.340000000000000000e+02,6.485484772717194346e+01
2.030000000000000138e-01,5.340000000000000000e+02,6.559999750578131739e+01
2.039999999999999869e-01,5.350000000000000000e+02,6.630121561039707956e+01
2.049999999999999878e-01,5.360000000000000000e+02,6.693891051899701949e+01
2.059999999999999887e-01,5.370000000000000000e+02,6.749449923498386283e+01
2.069999999999999896e-01,5.380000000000000000e+02,6.795117532737157262e+01
2.079999999999999905e-01,5.390000000000000000e+02,6.829465355276215632e+01
2.089999999999999913e-01,5.400000000000000000e+02,6.851385544421179929e+01
2.099999999999999922e-01,5.380000000000000000e+02,6.860150124352715295e+01
2.109999999999999931e-01,5.360000000000000000e+02,6.855457628563208061e+01
2.119999999999999940e-01,5.380000000000000000e+02,6.837464430976643825e+01
2.129999999999999949e-01,5.410000000000000000e+02,6.806798598542607692e+01
2.139999999999999958e-01,5.420000000000000000e+02,6.764554794537104954e+01
2.149999999999999967e-01,5.410000000000000000e+02,6.712269550394832152e+01
2.159999999999999976e-01,5.390000000000000000e+02,6.651877065946450784e+01
2.169999999999999984e-01,5.370000000000000000e+02,6.585646556816475083e+01
2.179999999999999993e-01,5.350000000000000000e+02,6.516103006663016117e+01
2.190000000000000002e-01,5.340000000000000000e+02,6.445933965578922198e+01
2.200000000000000011e-01,5.330000000000000000e+02,6.377885731815135273e+01
2.210000000000000020e-01,5.310000000000000000e+02,6.314652833353456884e+01
2.220000000000000029e-01,5.330000000000000000e+02,6.258765164515092039e+01
2.230000000000000038e-01,5.340000000000000000e+02,6.212477411204496747e+01
2.240000000000000047e-01,5.360000000000000000e+02,6.177665501697805439e+01
2.250000000000000056e-01,5.370000000000000000e+02,6.155734737812571922e+01
2.260000000000000064e-01,5.350000000000000000e+02,6.147543988140913740e+01
2.270000000000000073e-01,5.320000000000000000e+02,6.153349859945706157e+01
2.280000000000000082e-01,5.320000000000000000e+02,6.172774113963301090e+01
2.290000000000000091e-01,5.330000000000000000e+02,6.204796757881940295e+01
2.300000000000000100e-01,5.350000000000000000e+02,6.247776268545418787e+01
2.310000000000000109e-01,5.330000000000000000e+02,6.299497277737853551e+01
2.320000000000000118e-01,5.330000000000000000e+02,6.357244849237370232e+01
2.330000000000000127e-01,5.340000000000000000e+02,6.417903223067317242e+01
2.340000000000000135e-01,5.320000000000000000e+02,6.478075662993872186e+01
2.349999999999999867e-01,5.320000000000000000e+02,6.534220878951435907e+01
2.359999999999999876e-01,5.360000000000000000e+02,6.582800474918525424e+01
2.369999999999999885e-01,5.420000000000000000e+02,6.620431062417286228e+01
2.379999999999999893e-01,5.440000000000000000e+02,6.644034142825150013e+01
2.389999999999999902e-01,5.430000000000000000e+02,6.650976650263555712e+01
2.399999999999999911e-01,5.410000000000000000e+02,6.639195197642405333e+01
2.409999999999999920e-01,5.430000000000000000e+02,6.607297598212291234e+01
2.419999999999999929e-01,5.470000000000000000e+02,6.554636137296634502e+01
2.429999999999999938e-01,5.450000000000000000e+02,6.481348312691083891e+01
2.439999999999999947e-01,5.410000000000000000e+02,6.388362292266018727e+01
2.449999999999999956e-01,5.380000000000000000e+02,6.277366076543277984e+01
2.459999999999999964e-01,5.370000000000000000e+02,6.150741207899729091e+01
2.469999999999999973e-01,5.340000000000000000e+02,6.011463730389952076e+01
2.479999999999999982e-01,5.310000000000000000e+02,5.862976864095902840e+01
2.489999999999999991e-01,5.310000000000000000e+02,5.709041407339532981e+01
2.500000000000000000e-01,5.310000000000000000e+02,5.553571121283913214e+01
2.510000000000000009e-01,5.310000000000000000e+02,5.400461203870273152e+01
2.520000000000000018e-01,5.290000000000000000e+02,5.253418366214496160e+01
2.530000000000000027e-01,5.250000000000000000e+02,5.115800954431535530e+01
2.540000000000000036e-01,5.200000000000000000e+02,4.990477013227636149e+01
2.550000000000000044e-01,5.180000000000000000e+02,4.879707194858046648e+01
2.560000000000000053e-01,5.160000000000000000e+02,4.785058037526984265e+01
2.570000000000000062e-01,5.160000000000000000e+02,4.707349455723917941e+01
2.580000000000000071e-01,5.180000000000000000e+02,4.646638405939695105e+01
2.590000000000000080e-01,5.190000000000000000e+02,4.602238732051955594e+01
2.600000000000000089e-01,5.210000000000000000e+02,4.572775277311515651e+01
2.610000000000000098e-01,5.220000000000000000e+02,4.556268591993591599e+01
2.620000000000000107e-01,5.230000000000000000e+02,4.550245072358267606e+01
2.630000000000000115e-01,5.240000000000000000e+02,4.551866222244149185e+01
2.640000000000000124e-01,5.250000000000000000e+02,4.558069991806465282e+01
2.650000000000000133e-01,5.260000000000000000e+02,4.565716847014522983e+01
2.660000000000000142e-01,5.280000000000000000e+02,4.571733355700524015e+01
2.670000000000000151e-01,5.280000000000000000e+02,4.573246608454186202e+01
2.680000000000000160e-01,5.270000000000000000e+02,4.567703666616455394e+01
2.690000000000000169e-01,5.250000000000000000e+02,4.552971365886730837e+01
2.700000000000000178e-01,5.230000000000000000e+02,4.527413110491681891e+01
2.710000000000000187e-01,5.210000000000000000e+02,4.489940672439719549e+01
2.720000000000000195e-01,5.190000000000000000e+02,4.440040369244297125e+01
2.730000000000000204e-01,5.190000000000000000e+02,4.377774248269378887e+01
2.740000000000000213e-01,5.210000000000000000e+02,4.303757989554082286e+01
2.750000000000000222e-01,5.190000000000000000e+02,4.219118105040783462e+01
2.760000000000000231e-01,5.160000000000000000e+02,4.125431636247724754e+01
2.770000000000000240e-01,5.130000000000000000e+02,4.024651932184030301e+01
2.780000000000000249e-01,5.130000000000000000e+02,3.919024241834680566e+01
2.790000000000000258e-01,5.160000000000000000e+02,3.810994813521109847e+01
2.800000000000000266e-01,5.170000000000000000e+02,3.703116999962379197e+01
2.810000000000000275e-01,5.150000000000000000e+02,3.597957570767516700e+01
2.819999999999999729e-01,5.130000000000000000e+02,3.498006080384039507e+01
2.829999999999999738e-01,5.130000000000000000e+02,3.405589770415877382e+01
2.839999999999999747e-01,5.140000000000000000e+02,3.322796132275664149e+01
2.849999999999999756e-01,5.130000000000000000e+02,3.251404938900304131e+01
2.859999999999999765e-01,5.120000000000000000e+02,3.192831279488230223e+01
2.869999999999999774e-01,5.120000000000000000e+02,3.148080893685829196e+01
2.879999999999999782e-01,5.110000000000000000e+02,3.117718886370532871e+01
2.889999999999999791e-01,5.100000000000000000e+02,3.101852689690425890e+01
2.899999999999999800e-01,5.100000000000000000e+02,3.100129901345029282e+01
2.909999999999999809e-01,5.100000000000000000e+02,3.111751344865933788e+01
2.919999999999999818e-01,5.090000000000000000e+02,3.135499351991905215e+01
2.929999999999999827e-01,5.080000000000000000e+02,3.169780850879424605e+01
2.939999999999999836e-01,5.100000000000000000e+02,3.212684359355590402e+01
2.949999999999999845e-01,5.120000000000000000e+02,3.262049443846998287e+01
2.959999999999999853e-01,5.110000000000000000e+02,3.315546637309057587e+01
2.969999999999999862e-01,5.130000000000000000e+02,3.370765248140954640e+01
2.979999999999999871e-01,5.130000000000000000e+02,3.425305977934139179e+01
2.989999999999999880e-01,5.110000000000000000e+02,3.476874843012586069e+01
2.999999999999999889e-01,5.120000000000000000e+02,3.523374605743233445e+01
3.009999999999999898e-01,5.160000000000000000e+02,3.562989803513858789e+01
3.019999999999999907e-01,5.190000000000000000e+02,3.594261543428681449e+01
3.029999999999999916e-01,5.210000000000000000e+02,3.616148523552849525e+01
3.039999999999999925e-01,5.220000000000000000e+02,3.628071246137711370e+01
3.049999999999999933e-01,5.230000000000000000e+02,3.629937087701632237e+01
3.059999999999999942e-01,5.220000000000000000e+02,3.622144752457331407e+01
3.069999999999999951e-01,5.210000000000000000e+02,3.605567612952163614e+01
3.079999999999999960e-01,5.180000000000000000e+02,3.581516478034898654e+01
3.089999999999999969e-01,5.160000000000000000e+02,3.551683360326286021e+01
3.099999999999999978e-01,5.160000000000000000e+02,3.518068778945417563e+01
3.109999999999999987e-01,5.140000000000000000e+02,3.482895967808585880e+01
3.119999999999999996e-01,5.130000000000000000e+02,3.448516013287032678e+01
3.130000000000000004e-01,5.120000000000000000e+02,3.417308377566577349e+01
3.140000000000000013e-01,5.130000000000000000e+02,3.391581450832531885e+01
3.150000000000000022e-01,5.150000000000000000e+02,3.373477707876384812e+01
3.160000000000000031e-01,5.160000000000000000e+02,3.364887730737854099e+01
3.170000000000000040e-01,5.160000000000000000e+02,3.367376821639666673e+01
3.180000000000000049e-01,5.160000000000000000e+02,3.382127205925824143e+01
3.190000000000000058e-01,5.150000000000000000e+02,3.409897959423307867e+01
3.200000000000000067e-01,5.150000000000000000e+02,3.451003842054276305e+01
3.210000000000000075e-01,5.140000000000000000e+02,3.505313236611991101e+01
3.220000000000000084e-01,5.150000000000000000e+02,3.572264435441437058e+01
3.230000000000000093e-01,5.170000000000000000e+02,3.650898642157096674e+01
3.240000000000000102e-01,5.190000000000000000e+02,3.739907307992255880e+01
3.250000000000000111e-01,5.230000000000000000e+02,3.837690841374323014e+01
3.260000000000000120e-01,5.250000000000000000e+02,3.942425342042776037e+01
3.270000000000000129e-01,5.270000000000000000e+02,4.052133831753226190e+01
3.280000000000000138e-01,5.290000000000000000e+02,4.164758482896089475e+01
3.290000000000000147e-01,5.300000000000000000e+02,4.278230571125973825e+01
3.300000000000000155e-01,5.330000000000000000e+02,4.390535272754798513e+01
3.310000000000000164e-01,5.330000000000000000e+02,4.499768956205281967e+01
3.320000000000000173e-01,5.300000000000000000e+02,4.604187235817898483e+01
3.330000000000000182e-01,5.270000000000000000e+02,4.702242718491046958e+01
3.340000000000000191e-01,5.270000000000000000e+02,4.792612031805010986e+01
3.350000000000000200e-01,5.300000000000000000e+02,4.874212333058692792e+01
3.360000000000000209e-01,5.320000000000000000e+02,4.946208025749056247e+01
3.370000000000000218e-01,5.310000000000000000e+02,5.008008826669050251e+01
3.380000000000000226e-01,5.310000000000000000e+02,5.059260617067481292e+01
3.390000000000000235e-01,5.340000000000000000e+02,5.099830670340525529e+01
3.400000000000000244e-01,5.360000000000000000e+02,5.129788881848548954e+01
3.410000000000000253e-01,5.370000000000000000e+02,5.149386547504889222e+01
3.420000000000000262e-01,5.380000000000000000e+02,5.159034066821804032e+01
3.430000000000000271e-01,5.390000000000000000e+02,5.159278706912553503e+01
3.439999999999999725e-01,5.400000000000000000e+02,5.150783281662485535e+01
3.449999999999999734e-01,5.390000000000000000e+02,5.134306299311895572e+01
3.459999999999999742e-01,5.380000000000000000e+02,5.110683834228787248e+01
3.469999999999999751e-01,5.360000000000000000e+02,5.080813103726593027e+01
3.479999999999999760e-01,5.340000000000000000e+02,5.045637493907471338e+01
3.489999999999999769e-01,5.340000000000000000e+02,5.006132591711502045e+01
3.499999999999999778e-01,5.330000000000000000e+02,4.963292652459737297e+01
3.509999999999999787e-01,5.320000000000000000e+02,4.918116869175992889e+01
3.519999999999999796e-01,5.330000000000000000e+02,4.871594815212019114e+01
3.529999999999999805e-01,5.350000000000000000e+02,4.824690505918282213e+01
3.539999999999999813e-01,5.340000000000000000e+02,4.778324666186602343e+01
3.549999999999999822e-01,5.320000000000000000e+02,4.733354993275863620e+01
3.559999999999999831e-01,5.320000000000000000e+02,4.690554459328568271e+01
3.569999999999999840e-01,5.320000000000000000e+02,4.650587992199533716e+01
3.579999999999999849e-01,5.310000000000000000e+02,4.613988189208178170e+01
3.589999999999999858e-01,5.310000000000000000e+02,4.581131034737157393e+01
3.599999999999999867e-01,5.340000000000000000e+02,4.552212884457046727e+01
3.609999999999999876e-01,5.370000000000000000e+02,4.527230219468983563e+01
3.619999999999999885e-01,5.380000000000000000e+02,4.505963835535701634e+01
3.629999999999999893e-01,5.360000000000000000e+02,4.487969190297239663e+01
3.639999999999999902e-01,5.340000000000000000e+02,4.472574563693051175e+01
3.649999999999999911e-01,5.310000000000000000e+02,4.458888479397641902e+01
3.659999999999999920e-01,5.270000000000000000e+02,4.445817482989423297e+01
3.669999999999999929e-01,5.240000000000000000e+02,4.432094882313303685e+01
3.679999999999999938e-01,5.230000000000000000e+02,4.416320446202804817e+01
3.689999999999999947e-01,5.250000000000000000e+02,4.397010361233265030e+01
3.699999999999999956e-01,5.300000000000000000e+02,4.372656005751413488e+01
3.709999999999999964e-01,5.340000000000000000e+02,4.341789368140809557e+01
3.719999999999999973e-01,5.330000000000000000e+02,4.303052269203955404e+01
3.729999999999999982e-01,5.310000000000000000e+02,4.255266004091537724e+01
3.739999999999999991e-01,5.300000000000000000e+02,4.197497650173566086e+01
3.750000000000000000e-01,5.290000000000000000e+02,4.129119136957824310e+01
3.760000000000000009e-01,5.270000000000000000e+02,4.049855272319957322e+01
3.770000000000000018e-01,5.270000000000000000e+02,3.959817278830492882e+01
3.780000000000000027e-01,5.290000000000000000e+02,3.859519009073908791e+01
3.790000000000000036e-01,5.310000000000000000e+02,3.749873854577451482e+01
3.800000000000000044e-01,5.300000000000000000e+02,3.632171396019991505e+01
3.810000000000000053e-01,5.290000000000000000e+02,3.508034003446859828e+01
3.820000000000000062e-01,5.260000000000000000e+02,3.379354812425782484e+01
3.830000000000000071e-01,5.230000000000000000e+02,3.248219695670750440e+01
3.840000000000000080e-01,5.220000000000000000e+02,3.116816937361920736e+01
3.850000000000000089e-01,5.190000000000000000e+02,2.987339220313939947e+01
3.860000000000000098e-01,5.150000000000000000e+02,2.861883184722773166e+01
3.870000000000000107e-01,5.120000000000000000e+02,2.742352156700933463e+01
3.880000000000000115e-01,5.090000000000000000e+02,2.630367639862082996e+01
3.890000000000000124e-01,5.080000000000000000e+02,2.527194801216283437e+01
3.900000000000000133e-01,5.090000000000000000e+02,2.433686475335734656e+01
3.910000000000000142e-01,5.110000000000000000e+02,2.350249194132525687e+01
3.920000000000000151e-01,5.120000000000000000e+02,2.276833481931330283e+01
3.930000000000000160e-01,5.100000000000000000e+02,2.212949213784341751e+01
3.940000000000000169e-01,5.090000000000000000e+02,2.157705309832509144e+01
3.950000000000000178e-01,5.100000000000000000e+02,2.109871528368028848e+01
3.960000000000000187e-01,5.100000000000000000e+02,2.067958724696029904e+01
3.970000000000000195e-01,5.100000000000000000e+02,2.030312756061051260e+01
3.980000000000000204e-01,5.090000000000000000e+02,1.995216317089491298e+01
3.990000000000000213e-01,5.110000000000000000e+02,1.960992450146965282e+01
4.000000000000000222e-01,5.120000000000000000e+02,1.926103333207884560e+01
4.010000000000000231e-01,5.120000000000000000e+02,1.889238221111744664e+01
4.020000000000000240e-01,5.130000000000000000e+02,1.849385093757756948e+01
4.030000000000000249e-01,5.140000000000000000e+02,1.805881608586749820e+01
4.040000000000000258e-01,5.130000000000000000e+02,1.758442300508131240e+01
4.050000000000000266e-01,5.120000000000000000e+02,1.707160533953746651e+01
4.060000000000000275e-01,5.110000000000000000e+02,1.652485385873979240e+01
4.069999999999999729e-01,5.090000000000000000e+02,1.595175312152743707e+01
4.079999999999999738e-01,5.060000000000000000e+02,1.536232007905664076e+01
4.089999999999999747e-01,5.040000000000000000e+02,1.476819205435789506e+01
4.099999999999999756e-01,5.020000000000000000e+02,1.418172167575817788e+01
4.109999999999999765e-01,4.990000000000000000e+02,1.361504255653883178e+01
4.119999999999999774e-01,4.990000000000000000e+02,1.307917134630007716e+01
4.129999999999999782e-01,4.990000000000000000e+02,1.258320908366324353e+01
4.139999999999999791e-01,4.980000000000000000e+02,1.213369773196495238e+01
4.149999999999999800e-01,5.000000000000000000e+02,1.173417686789760950e+01
4.159999999999999809e-01,5.000000000000000000e+02,1.138497148107192558e+01
4.169999999999999818e-01,5.000000000000000000e+02,1.108322571089062158e+01
4.179999999999999827e-01,5.030000000000000000e+02,1.082318021991108914e+01
4.189999999999999836e-01,5.050000000000000000e+02,1.059667396376671356e+01
4.199999999999999845e-01,5.070000000000000000e+02,1.039383552407220890e+01
4.209999999999999853e-01,5.050000000000000000e+02,1.020391597191402155e+01
4.219999999999999862e-01,5.030000000000000000e+02,1.001620529596379150e+01
4.229999999999999871e-01,5.020000000000000000e+02,9.820968397202074485e+00
4.239999999999999880e-01,5.030000000000000000e+02,9.610334887314433416e+00
4.249999999999999889e-01,5.030000000000000000e+02,9.379079508722879766e+00
4.259999999999999898e-01,5.020000000000000000e+02,9.125236716238596557e+00
4.269999999999999907e-01,5.000000000000000000e+02,8.850503356874936500e+00
4.279999999999999916e-01,5.020000000000000000e+02,8.560396763753347571e+00
4.289999999999999925e-01,5.060000000000000000e+02,8.264151074281665288e+00
4.299999999999999933e-01,5.060000000000000000e+02,7.974351204928164627e+00
4.309999999999999942e-01,5.030000000000000000e+02,7.706320621387995118e+00
4.319999999999999951e-01,4.990000000000000000e+02,7.477294797496418788e+00
4.329999999999999960e-01,4.980000000000000000e+02,7.305426092102193181e+00
4.339999999999999969e-01,4.990000000000000000e+02,7.208676849998651548e+00
4.349999999999999978e-01,5.010000000000000000e+02,7.203665185967972562e+00
4.359999999999999987e-01,5.010000000000000000e+02,7.304531688188451888e+00
4.369999999999999996e-01,5.000000000000000000e+02,7.521894964538465622e+00
4.380000000000000004e-01,5.000000000000000000e+02,7.861959586281639822e+00
4.390000000000000013e-01,4.990000000000000000e+02,8.325831834686038491e+00
4.400000000000000022e-01,4.990000000000000000e+02,8.909087227498664774e+00
4.410000000000000031e-01,4.980000000000000000e+02,9.601619785725484135e+00
4.420000000000000040e-01,4.980000000000000000e+02,1.038778723740452925e+01
4.430000000000000049e-01,5.010000000000000000e+02,1.124684978178320094e+01
4.440000000000000058e-01,5.050000000000000000e+02,1.215368363250373740e+01
4.450000000000000067e-01,5.080000000000000000e+02,1.307973528095579319e+01
4.460000000000000075e-01,5.090000000000000000e+02,1.399416915270269968e+01
4.470000000000000084e-01,5.110000000000000000e+02,1.486515082264059018e+01
4.480000000000000093e-01,5.100000000000000000e+02,1.566120078564955698e+01
4.490000000000000102e-01,5.080000000000000000e+02,1.635255031879747989e+01
4.500000000000000111e-01,5.110000000000000000e+02,1.691243136149882886e+01
4.510000000000000120e-01,5.180000000000000000e+02,1.731823649222754824e+01
4.520000000000000129e-01,5.200000000000000000e+02,1.755249268272856611e+01
4.530000000000000138e-01,5.180000000000000000e+02,1.760360305207441556e+01
4.540000000000000147e-01,5.140000000000000000e+02,1.746632364807334170e+01
4.550000000000000155e-01,5.140000000000000000e+02,1.714195655798890527e+01
4.560000000000000164e-01,5.150000000000000000e+02,1.663825553278757852e+01
4.570000000000000173e-01,5.120000000000000000e+02,1.596905492656603620e+01
4.580000000000000182e-01,5.090000000000000000e+02,1.515364627750372506e+01
4.590000000000000191e-01,5.060000000000000000e+02,1.421593855719379462e+01
4.600000000000000200e-01,5.040000000000000000e+02,1.318344740045679409e+01
4.610000000000000209e-01,5.030000000000000000e+02,1.208616507989274780e+01
4.620000000000000218e-01,5.030000000000000000e+02,1.095536638345233449e+01
4.630000000000000226e-01,5.040000000000000000e+02,9.822405862310541025e+00
4.640000000000000235e-01,5.040000000000000000e+02,8.717559302817894817e+00
4.650000000000000244e-01,5.020000000000000000e+02,7.668957070889524275e+00
4.660000000000000253e-01,4.990000000000000000e+02,6.701649647061623583e+00
4.670000000000000262e-01,4.990000000000000000e+02,5.836836780698608784e+00
4.680000000000000271e-01,4.990000000000000000e+02,5.091281862880862263e+00
4.689999999999999725e-01,5.000000000000000000e+02,4.476922981682415426e+00
4.699999999999999734e-01,5.020000000000000000e+02,4.000682283826805019e+00
4.709999999999999742e-01,5.030000000000000000e+02,3.664466259913726986e+00
4.719999999999999751e-01,5.030000000000000000e+02,3.465341837062145824e+00
4.729999999999999760e-01,5.000000000000000000e+02,3.395867025201613210e+00
4.739999999999999769e-01,4.990000000000000000e+02,3.444550512783930429e+00
4.749999999999999778e-01,4.990000000000000000e+02,3.596412102044836967e+00
4.759999999999999787e-01,5.000000000000000000e+02,3.833615143541163395e+00
4.769999999999999796e-01,5.010000000000000000e+02,4.136142992610597702e+00
4.779999999999999805e-01,5.030000000000000000e+02,4.482493694145764707e+00
4.789999999999999813e-01,5.020000000000000000e+02,4.850370270247930549e+00
4.799999999999999822e-01,5.020000000000000000e+02,5.217347767299998829e+00
4.809999999999999831e-01,5.020000000000000000e+02,5.561502240503921612e+00
4.819999999999999840e-01,5.030000000000000000e+02,5.861990766560912114e+00
4.829999999999999849e-01,5.020000000000000000e+02,6.099575082792311420e+00
4.839999999999999858e-01,5.000000000000000000e+02,6.257084331023680335e+00
4.849999999999999867e-01,4.990000000000000000e+02,6.319814502370763698e+00
4.859999999999999876e-01,5.000000000000000000e+02,6.275863494165100143e+00
4.869999999999999885e-01,5.020000000000000000e+02,6.116401253414159633e+00
4.879999999999999893e-01,5.020000000000000000e+02,5.835874422900229952e+00
4.889999999999999902e-01,5.060000000000000000e+02,5.432144417444288997e+00
4.899999999999999911e-01,5.070000000000000000e+02,4.906557166517452551e+00
4.909999999999999920e-01,5.080000000000000000e+02,4.263942102563683889e+00
4.919999999999999929e-01,5.050000000000000000e+02,3.512537573522577894e+00
4.929999999999999938e-01,5.010000000000000000e+02,2.663839896923178241e+00
4.939999999999999947e-01,4.980000000000000000e+02,1.732373882062354209e+00
4.949999999999999956e-01,4.970000000000000000e+02,7.353838946511856989e-01
4.959999999999999964e-01,4.940000000000000000e+02,-3.075535707090727988e-01
4.969999999999999973e-01,4.910000000000000000e+02,-1.374992367147161554e+00
4.979999999999999982e-01,4.920000000000000000e+02,-2.444147823926607899e+00
4.989999999999999991e-01,4.940000000000000000e+02,-3.491486853833457360e+00
5.000000000000000000e-01,4.950000000000000000e+02,-4.493363960894368070e+00
5.010000000000000009e-01,4.950000000000000000e+02,-5.426686750391326086e+00
5.020000000000000018e-01,4.930000000000000000e+02,-6.269591542781190796e+00
5.030000000000000027e-01,4.930000000000000000e+02,-7.002107248616122881e+00
5.040000000000000036e-01,4.930000000000000000e+02,-7.606784000618083574e+00
5.050000000000000044e-01,4.930000000000000000e+02,-8.069262364816390587e+00
5.060000000000000053e-01,4.910000000000000000e+02,-8.378759426578035630e+00
5.070000000000000062e-01,4.890000000000000000e+02,-8.528449771981065908e+00
5.080000000000000071e-01,4.880000000000000000e+02,-8.515722388465478687e+00
5.090000000000000080e-01,4.870000000000000000e+02,-8.342298733556088308e+00
5.100000000000000089e-01,4.870000000000000000e+02,-8.014202518629069516e+00
5.110000000000000098e-01,4.880000000000000000e+02,-7.541577890629605818e+00
5.120000000000000107e-01,4.900000000000000000e+02,-6.938359357031771424e+00
5.130000000000000115e-01,4.910000000000000000e+02,-6.221803621038593413e+00
5.140000000000000124e-01,4.930000000000000000e+02,-5.411900078541528103e+00
5.150000000000000133e-01,4.950000000000000000e+02,-4.530682680019592290e+00
5.160000000000000142e-01,4.970000000000000000e+02,-3.601470815203930531e+00
5.170000000000000151e-01,4.990000000000000000e+02,-2.648070531073062561e+00
5.180000000000000160e-01,5.000000000000000000e+02,-1.693969520801150264e+00
5.190000000000000169e-01,5.010000000000000000e+02,-7.615597939002550776e-01
5.200000000000000178e-01,5.010000000000000000e+02,1.285792726519917606e-01
5.210000000000000187e-01,4.990000000000000000e+02,9.583076278149288418e-01
5.220000000000000195e-01,4.980000000000000000e+02,1.712435395210523792e+00
5.230000000000000204e-01,4.990000000000000000e+02,2.379097806421957451e+00
5.240000000000000213e-01,5.010000000000000000e+02,2.949980617917466130e+00
5.250000000000000222e-01,5.040000000000000000e+02,3.420389511635456792e+00
5.260000000000000231e-01,5.070000000000000000e+02,3.789164368029856345e+00
5.270000000000000240e-01,5.080000000000000000e+02,4.058446623309994727e+00
5.280000000000000249e-01,5.080000000000000000e+02,4.233314827446374551e+00
5.290000000000000258e-01,5.070000000000000000e+02,4.321309666622078716e+00
5.300000000000000266e-01,5.060000000000000000e+02,4.331874788660838860e+00
5.310000000000000275e-01,5.050000000000000000e+02,4.275743497691002482e+00
5.320000000000000284e-01,5.040000000000000000e+02,4.164303546394182654e+00
5.330000000000000293e-01,5.040000000000000000e+02,4.008972706209394055e+00
5.340000000000000302e-01,5.010000000000000000e+02,3.820616484184157891e+00
5.350000000000000311e-01,4.990000000000000000e+02,3.609036329913309249e+00
5.360000000000000320e-01,4.970000000000000000e+02,3.382552097469116337e+00
5.370000000000000329e-01,4.960000000000000000e+02,3.147696663249848648e+00
5.380000000000000338e-01,4.970000000000000000e+02,2.909033813623899789e+00
5.390000000000000346e-01,4.990000000000000000e+02,2.669103239399322369e+00
5.400000000000000355e-01,5.030000000000000000e+02,2.428489178989614583e+00
5.410000000000000364e-01,5.080000000000000000e+02,2.186002409634966615e+00
5.420000000000000373e-01,5.100000000000000000e+02,1.938959326186297183e+00
5.430000000000000382e-01,5.100000000000000000e+02,1.683537121765281475e+00
5.440000000000000391e-01,5.080000000000000000e+02,1.415180839237671462e+00
5.450000000000000400e-01,5.060000000000000000e+02,1.129036418460203750e+00
5.460000000000000409e-01,5.040000000000000000e+02,8.203838170351837045e-01
5.470000000000000417e-01,5.010000000000000000e+02,4.850457121687035689e-01
5.480000000000000426e-01,4.970000000000000000e+02,1.197499861572896146e-01
5.490000000000000435e-01,4.970000000000000000e+02,-2.775721163445450390e-01
5.500000000000000444e-01,4.980000000000000000e+02,-7.075658990509378077e-01
5.510000000000000453e-01,4.970000000000000000e+02,-1.169320178015745393e+00
5.520000000000000462e-01,4.980000000000000000e+02,-1.660325426794573067e+00
5.530000000000000471e-01,4.970000000000000000e+02,-2.176522510283761314e+00
5.540000000000000480e-01,4.970000000000000000e+02,-2.712437023764854960e+00
5.550000000000000488e-01,4.980000000000000000e+02,-3.261390338765318475e+00
5.560000000000000497e-01,4.990000000000000000e+02,-3.815775125257611755e+00
5.570000000000000506e-01,4.990000000000000000e+02,-4.367380446623335466e+00
5.580000000000000515e-01,5.010000000000000000e+02,-4.907749564312757329e+00
5.590000000000000524e-01,5.040000000000000000e+02,-5.428552382967316348e+00
5.600000000000000533e-01,5.000000000000000000e+02,-5.921954041630772991e+00
5.610000000000000542e-01,4.940000000000000000e+02,-6.380961526728651911e+00
5.620000000000000551e-01,4.880000000000000000e+02,-6.799731343340150502e+00
5.629999999999999449e-01,4.870000000000000000e+02,-7.173823202908232943e+00
5.639999999999999458e-01,4.920000000000000000e+02,-7.500387305559952367e+00
5.649999999999999467e-01,4.960000000000000000e+02,-7.778276014712904640e+00
5.659999999999999476e-01,4.970000000000000000e+02,-8.008074405191312195e+00
5.669999999999999485e-01,4.970000000000000000e+02,-8.192048146633304384e+00
5.679999999999999494e-01,4.960000000000000000e+02,-8.334011272048947205e+00
5.689999999999999503e-01,4.920000000000000000e+02,-8.439120376831354520e+00
5.699999999999999512e-01,4.910000000000000000e+02,-8.513605497998979033e+00
5.709999999999999520e-01,4.910000000000000000e+02,-8.564451151962131803e+00
5.719999999999999529e-01,4.910000000000000000e+02,-8.599043599589325737e+00
5.729999999999999538e-01,4.920000000000000000e+02,-8.624802228125282966e+00
5.739999999999999547e-01,4.910000000000000000e+02,-8.648813895009418218e+00
5.749999999999999556e-01,4.930000000000000000e+02,-8.677489113759349948e+00
5.759999999999999565e-01,4.960000000000000000e+02,-8.716258065413633460e+00
5.769999999999999574e-01,4.990000000000000000e+02,-8.769322624707827529e+00
5.779999999999999583e-01,4.990000000000000000e+02,-8.839477977715333168e+00
5.789999999999999591e-01,5.000000000000000000e+02,-8.928014099135278769e+00
5.799999999999999600e-01,4.970000000000000000e+02,-9.034703511031510814e+00
5.809999999999999609e-01,4.950000000000000000e+02,-9.157877545540337394e+00
5.819999999999999618e-01,4.920000000000000000e+02,-9.294588981099863645e+00
5.829999999999999627e-01,4.900000000000000000e+02,-9.440854615028085206e+00
5.839999999999999636e-01,4.900000000000000000e+02,-9.591967262460089572e+00
5.849999999999999645e-01,4.910000000000000000e+02,-9.742862997992993712e+00
5.859999999999999654e-01,4.910000000000000000e+02,-9.888526318924764524e+00
5.869999999999999662e-01,4.900000000000000000e+02,-1.002441341590703594e+01
5.879999999999999671e-01,4.900000000000000000e+02,-1.014687197156391285e+01
5.889999999999999680e-01,4.940000000000000000e+02,-1.025353493595068244e+01
5.899999999999999689e-01,4.960000000000000000e+02,-1.034366560576672178e+01
5.909999999999999698e-01,4.960000000000000000e+02,-1.041843211449149997e+01
5.919999999999999707e-01,4.960000000000000000e+02,-1.048109117366947274e+01
5.929999999999999716e-01,4.940000000000000000e+02,-1.053706363594750783e+01
5.939999999999999725e-01,4.910000000000000000e+02,-1.059388820619672700e+01
5.949999999999999734e-01,4.910000000000000000e+02,-1.066104440400484599e+01
5.959999999999999742e-01,4.920000000000000000e+02,-1.074964162413327884e+01
5.969999999999999751e-01,4.920000000000000000e+02,-1.087197772729915535e+01
5.979999999999999760e-01,4.930000000000000000e+02,-1.104097781459000238e+01
5.989999999999999769e-01,4.920000000000000000e+02,-1.126953139716978214e+01
5.999999999999999778e-01,4.920000000000000000e+02,-1.156975368297918116e+01
6.009999999999999787e-01,4.910000000000000000e+02,-1.195220370375770358e+01
6.019999999999999796e-01,4.920000000000000000e+02,-1.242509798885582484e+01
6.029999999999999805e-01,4.900000000000000000e+02,-1.299356293106032290e+01
6.039999999999999813e-01,4.870000000000000000e+02,-1.365897138377664888e+01
6.049999999999999822e-01,4.860000000000000000e+02,-1.441840894956537156e+01
6.059999999999999831e-01,4.860000000000000000e+02,-1.526431255612424920e+01
6.069999999999999840e-01,4.870000000000000000e+02,-1.618431811677759669e+01
6.079999999999999849e-01,4.890000000000000000e+02,-1.716134538328708459e+01
6.089999999999999858e-01,4.910000000000000000e+02,-1.817393678259426437e+01
6.099999999999999867e-01,4.920000000000000000e+02,-1.919685357455793451e+01
6.109999999999999876e-01,4.930000000000000000e+02,-2.020191777696171798e+01
6.119999999999999885e-01,4.900000000000000000e+02,-2.115907286031866974e+01
6.129999999999999893e-01,4.860000000000000000e+02,-2.203762123028861453e+01
6.139999999999999902e-01,4.830000000000000000e+02,-2.280758306055441409e+01
6.149999999999999911e-01,4.820000000000000000e+02,-2.344111016055595798e+01
6.159999999999999920e-01,4.810000000000000000e+02,-2.391388119516344801e+01
6.169999999999999929e-01,4.780000000000000000e+02,-2.420640145409063848e+01
6.179999999999999938e-01,4.750000000000000000e+02,-2.430513196272268672e+01
6.189999999999999947e-01,4.760000000000000000e+02,-2.420337917178148501e+01
6.199999999999999956e-01,4.740000000000000000e+02,-2.390188754442161212e+01
6.209999999999999964e-01,4.720000000000000000e+02,-2.340909250534765462e+01
6.219999999999999973e-01,4.720000000000000000e+02,-2.274100953456617091e+01
6.229999999999999982e-01,4.750000000000000000e+02,-2.192075552436281072e+01
6.239999999999999991e-01,4.810000000000000000e+02,-2.097771954184715426e+01
6.250000000000000000e-01,4.860000000000000000e+02,-1.994642044674825243e+01
6.260000000000000009e-01,4.870000000000000000e+02,-1.886510703680170664e+01
6.270000000000000018e-01,4.900000000000000000e+02,-1.777417130634755082e+01
6.280000000000000027e-01,4.930000000000000000e+02,-1.671445602193270830e+01
6.290000000000000036e-01,4.970000000000000000e+02,-1.572554346938755820e+01
6.300000000000000044e-01,4.990000000000000000e+02,-1.484411259771462355e+01
6.310000000000000053e-01,4.990000000000000000e+02,-1.410244693951615602e+01
6.320000000000000062e-01,4.970000000000000000e+02,-1.352716604858004601e+01
6.330000000000000071e-01,4.940000000000000000e+02,-1.313823950062710111e+01
6.340000000000000080e-01,4.920000000000000000e+02,-1.294832573832803924e+01
6.350000000000000089e-01,4.920000000000000000e+02,-1.296245935563845286e+01
6.360000000000000098e-01,4.920000000000000000e+02,-1.317809103177279084e+01
6.370000000000000107e-01,4.910000000000000000e+02,-1.358546544837972192e+01
6.380000000000000115e-01,4.900000000000000000e+02,-1.416830526477813734e+01
6.390000000000000124e-01,4.890000000000000000e+02,-1.490475453239873538e+01
6.400000000000000133e-01,4.890000000000000000e+02,-1.576852353545851848e+01
6.410000000000000142e-01,4.890000000000000000e+02,-1.673016944213965118e+01
6.420000000000000151e-01,4.880000000000000000e+02,-1.775844357564269416e+01
6.430000000000000160e-01,4.860000000000000000e+02,-1.882163655249473067e+01
6.440000000000000169e-01,4.840000000000000000e+02,-1.988885673763622108e+01
6.450000000000000178e-01,4.820000000000000000e+02,-2.093118497814272416e+01
6.460000000000000187e-01,4.790000000000000000e+02,-2.192265877807846053e+01
6.470000000000000195e-01,4.780000000000000000e+02,-2.284105121970709718e+01
6.480000000000000204e-01,4.790000000000000000e+02,-2.366842319860494115e+01
6.490000000000000213e-01,4.800000000000000000e+02,-2.439144107409160966e+01
6.500000000000000222e-01,4.810000000000000000e+02,-2.500146481964358713e+01
6.510000000000000231e-01,4.810000000000000000e+02,-2.549442344403517069e+01
6.520000000000000240e-01,4.810000000000000000e+02,-2.587050421719621696e+01
6.530000000000000249e-01,4.820000000000000000e+02,-2.613368960809988906e+01
6.540000000000000258e-01,4.840000000000000000e+02,-2.629118054389678960e+01
6.550000000000000266e-01,4.850000000000000000e+02,-2.635274654777058956e+01
6.560000000000000275e-01,4.860000000000000000e+02,-2.633004262324217137e+01
6.570000000000000284e-01,4.840000000000000000e+02,-2.623592972133868173e+01
6.580000000000000293e-01,4.840000000000000000e+02,-2.608383069964830625e+01
6.590000000000000302e-01,4.830000000000000000e+02,-2.588714740929726332e+01
6.600000000000000311e-01,4.800000000000000000e+02,-2.565875753050992714e+01
6.610000000000000320e-01,4.760000000000000000e+02,-2.541060262001096248e+01
6.620000000000000329e-01,4.750000000000000000e+02,-2.515337207860808988e+01
6.630000000000000338e-01,4.750000000000000000e+02,-2.489628183864912359e+01
6.640000000000000346e-01,4.750000000000000000e+02,-2.464694181988384969e+01
6.650000000000000355e-01,4.790000000000000000e+02,-2.441130277154709916e+01
6.660000000000000364e-01,4.830000000000000000e+02,-2.419367102462843633e+01
6.670000000000000373e-01,4.850000000000000000e+02,-2.399677880896660298e+01
6.680000000000000382e-01,4.870000000000000000e+02,-2.382189793444620562e+01
6.690000000000000391e-01,4.880000000000000000e+02,-2.366898552372478903e+01
6.700000000000000400e-01,4.870000000000000000e+02,-2.353685182567405931e+01
6.710000000000000409e-01,4.840000000000000000e+02,-2.342334166189849753e+01
6.720000000000000417e-01,4.840000000000000000e+02,-2.332552253842957768e+01
6.730000000000000426e-01,4.840000000000000000e+02,-2.323987373273975265e+01
6.740000000000000435e-01,4.840000000000000000e+02,-2.316247165906136019e+01
6.750000000000000444e-01,4.850000000000000000e+02,-2.308916751139064516e+01
6.760000000000000453e-01,4.850000000000000000e+02,-2.301575363331792090e+01
6.770000000000000462e-01,4.850000000000000000e+02,-2.293811536028530895e+01
6.780000000000000471e-01,4.830000000000000000e+02,-2.285236533875872311e+01
6.790000000000000480e-01,4.820000000000000000e+02,-2.275495766418735144e+01
6.800000000000000488e-01,4.830000000000000000e+02,-2.264277969150469616e+01
6.810000000000000497e-01,4.810000000000000000e+02,-2.251322011760363040e+01
6.820000000000000506e-01,4.810000000000000000e+02,-2.236421292635384361e+01
6.830000000000000515e-01,4.820000000000000000e+02,-2.219425798329010746e+01
6.840000000000000524e-01,4.840000000000000000e+02,-2.200242038071526807e+01
6.850000000000000533e-01,4.860000000000000000e+02,-2.178831193832236224e+01
6.860000000000000542e-01,4.870000000000000000e+02,-2.155205941143248438e+01
6.870000000000000551e-01,4.890000000000000000e+02,-2.129426479845422548e+01
6.879999999999999449e-01,4.890000000000000000e+02,-2.101596353991122612e+01
6.889999999999999458e-01,4.890000000000000000e+02,-2.071858626996175445e+01
6.899999999999999467e-01,4.880000000000000000e+02,-2.040392907697365743e+01
6.909999999999999476e-01,4.890000000000000000e+02,-2.007413597271594696e+01
6.919999999999999485e-01,4.920000000000000000e+02,-1.973169554254674907e+01
6.929999999999999494e-01,4.930000000000000000e+02,-1.937945168987744538e+01
6.939999999999999503e-01,4.910000000000000000e+02,-1.902062617823292712e+01
6.949999999999999512e-01,4.860000000000000000e+02,-1.865884851924185739e+01
6.959999999999999520e-01,4.810000000000000000e+02,-1.829818686464428978e+01
6.969999999999999529e-01,4.840000000000000000e+02,-1.794317212746642554e+01
6.979999999999999538e-01,4.880000000000000000e+02,-1.759880673841416510e+01
6.989999999999999547e-01,4.910000000000000000e+02,-1.727054934443589218e+01
6.999999999999999556e-01,4.910000000000000000e+02,-1.696426742475262017e+01
7.009999999999999565e-01,4.900000000000000000e+02,-1.668615122231389236e+01
7.019999999999999574e-01,4.910000000000000000e+02,-1.644258449583711368e+01
7.029999999999999583e-01,4.920000000000000000e+02,-1.623997027123439452e+01
7.039999999999999591e-01,4.930000000000000000e+02,-1.608451285576347445e+01
7.049999999999999600e-01,4.930000000000000000e+02,-1.598196069225914151e+01
7.059999999999999609e-01,4.950000000000000000e+02,-1.593731797816553630e+01
7.069999999999999618e-01,4.950000000000000000e+02,-1.595453615372316492e+01
7.079999999999999627e-01,4.950000000000000000e+02,-1.603619917789524862e+01
7.089999999999999636e-01,4.940000000000000000e+02,-1.618321877230557249e+01
7.099999999999999645e-01,4.890000000000000000e+02,-1.639455735250822954e+01
7.109999999999999654e-01,4.860000000000000000e+02,-1.666699703592390946e+01
7.119999999999999662e-01,4.860000000000000000e+02,-1.699497280158118429e+01
7.129999999999999671e-01,4.870000000000000000e+02,-1.737048650322519094e+01
7.139999999999999680e-01,4.890000000000000000e+02,-1.778311597914118281e+01
7.149999999999999689e-01,4.940000000000000000e+02,-1.822012999390578258e+01
7.159999999999999698e-01,4.960000000000000000e+02,-1.866671529237908089e+01
7.169999999999999707e-01,4.950000000000000000e+02,-1.910631682064745362e+01
7.179999999999999716e-01,4.920000000000000000e+02,-1.952108641933158495e+01
7.189999999999999725e-01,4.910000000000000000e+02,-1.989242932944549125e+01
7.199999999999999734e-01,4.890000000000000000e+02,-2.020163201939921649e+01
7.209999999999999742e-01,4.870000000000000000e+02,-2.043054950872273068e+01
7.219999999999999751e-01,4.860000000000000000e+02,-2.056232587898578501e+01
7.229999999999999760e-01,4.840000000000000000e+02,-2.058211832757974946e+01
7.239999999999999769e-01,4.830000000000000000e+02,-2.047779316383028458e+01
7.249999999999999778e-01,4.840000000000000000e+02,-2.024056170478104377e+01
7.259999999999999787e-01,4.850000000000000000e+02,-1.986552513478277149e+01
7.269999999999999796e-01,4.870000000000000000e+02,-1.935209998717191127e+01
7.279999999999999805e-01,4.900000000000000000e+02,-1.870429984474000307e+01
7.289999999999999813e-01,4.920000000000000000e+02,-1.793085393633669256e+01
7.299999999999999822e-01,4.970000000000000000e+02,-1.704514929467632101e+01
7.309999999999999831e-01,4.990000000000000000e+02,-1.606498979126908822e+01
7.319999999999999840e-01,4.990000000000000000e+02,-1.501217244382333504e+01
7.329999999999999849e-01,4.970000000000000000e+02,-1.391188868338481655e+01
7.339999999999999858e-01,4.960000000000000000e+02,-1.279196557402220336e+01
7.349999999999999867e-01,4.940000000000000000e+02,-1.168196910498313912e+01
7.359999999999999876e-01,4.920000000000000000e+02,-1.061219842254256385e+01
7.369999999999999885e-01,4.940000000000000000e+02,-9.612606008553594705e+00
7.379999999999999893e-01,4.950000000000000000e+02,-8.711684078793508590e+00
7.389999999999999902e-01,4.950000000000000000e+02,-7.935361559434105594e+00
7.399999999999999911e-01,4.960000000000000000e+02,-7.305958566985712999e+00
7.409999999999999920e-01,5.000000000000000000e+02,-6.841246023067698800e+00
7.419999999999999929e-01,5.050000000000000000e+02,-6.553656569210716931e+00
7.429999999999999938e-01,5.080000000000000000e+02,-6.449689074139670630e+00
7.439999999999999947e-01,5.110000000000000000e+02,-6.529542635468743583e+00
7.449999999999999956e-01,5.120000000000000000e+02,-6.787007122594059361e+00
7.459999999999999964e-01,5.100000000000000000e+02,-7.209626233494741854e+00
7.469999999999999973e-01,5.050000000000000000e+02,-7.779136193307076397e+00
7.479999999999999982e-01,5.020000000000000000e+02,-8.472169245687675598e+00
7.489999999999999991e-01,5.010000000000000000e+02,-9.261196774480257687e+00
7.500000000000000000e-01,5.000000000000000000e+02,-1.011567314131097994e+01
7.510000000000000009e-01,4.970000000000000000e+02,-1.100332906742296757e+01
7.520000000000000018e-01,4.960000000000000000e+02,-1.189155351705682229e+01
7.530000000000000027e-01,4.940000000000000000e+02,-1.274879632944770336e+01
7.540000000000000036e-01,4.910000000000000000e+02,-1.354592088547216022e+01
7.550000000000000044e-01,4.890000000000000000e+02,-1.425743723060194768e+01
7.560000000000000053e-01,4.880000000000000000e+02,-1.486255137852448094e+01
7.570000000000000062e-01,4.900000000000000000e+02,-1.534597576901644445e+01
7.580000000000000071e-01,4.910000000000000000e+02,-1.569845854742590241e+01
7.590000000000000080e-01,4.900000000000000000e+02,-1.591700472031786973e+01
7.600000000000000089e-01,4.910000000000000000e+02,-1.600477937461899458e+01
7.610000000000000098e-01,4.920000000000000000e+02,-1.597070094948104213e+01
7.620000000000000107e-01,4.940000000000000000e+02,-1.582874989412256106e+01
7.630000000000000115e-01,4.950000000000000000e+02,-1.559703383545053512e+01
7.640000000000000124e-01,4.960000000000000000e+02,-1.529666363069034318e+01
7.650000000000000133e-01,4.970000000000000000e+02,-1.495050458642643143e+01
7.660000000000000142e-01,4.990000000000000000e+02,-1.458187311448272538e+01
7.670000000000000151e-01,5.000000000000000000e+02,-1.421325086525311221e+01
7.680000000000000160e-01,5.010000000000000000e+02,-1.386508591357761944e+01
7.690000000000000169e-01,5.000000000000000000e+02,-1.355474413170211712e+01
7.700000000000000178e-01,4.980000000000000000e+02,-1.329566397827359303e+01
7.710000000000000187e-01,4.960000000000000000e+02,-1.309675527512957061e+01
7.720000000000000195e-01,4.970000000000000000e+02,-1.296206799239527463e+01
7.730000000000000204e-01,4.960000000000000000e+02,-1.289074155179836900e+01
7.740000000000000213e-01,4.960000000000000000e+02,-1.287722963133501608e+01
7.750000000000000222e-01,4.950000000000000000e+02,-1.291178079879259855e+01
7.760000000000000231e-01,4.950000000000000000e+02,-1.298114229366687056e+01
7.770000000000000240e-01,4.950000000000000000e+02,-1.306944354072852832e+01
7.780000000000000249e-01,4.960000000000000000e+02,-1.315920795924715847e+01
7.790000000000000258e-01,4.960000000000000000e+02,-1.323243658620885732e+01
7.800000000000000266e-01,4.960000000000000000e+02,-1.327170503237435817e+01
7.810000000000000275e-01,4.950000000000000000e+02,-1.326121624293282686e+01
7.820000000000000284e-01,4.970000000000000000e+02,-1.318775520653746369e+01
7.830000000000000293e-01,4.970000000000000000e+02,-1.304149780733617447e+01
7.840000000000000302e-01,4.980000000000000000e+02,-1.281663403094664311e+01
7.850000000000000311e-01,4.990000000000000000e+02,-1.251177526313808208e+01
7.860000000000000320e-01,4.980000000000000000e+02,-1.213012599202479613e+01
7.870000000000000329e-01,4.980000000000000000e+02,-1.167941138139974022e+01
7.880000000000000338e-01,4.960000000000000000e+02,-1.117156348658726372e+01
7.890000000000000346e-01,4.960000000000000000e+02,-1.062217992565412672e+01
7.900000000000000355e-01,4.960000000000000000e+02,-1.004977921913106087e+01
7.910000000000000364e-01,4.970000000000000000e+02,-9.474886420645571405e+00
7.920000000000000373e-01,5.020000000000000000e+02,-8.918990755927222125e+00
7.930000000000000382e-01,5.040000000000000000e+02,-8.403423471589018590e+00
7.940000000000000391e-01,5.040000000000000000e+02,-7.948208699814178324e+00
7.950000000000000400e-01,5.020000000000000000e+02,-7.570942638098093980e+00
7.960000000000000409e-01,5.020000000000000000e+02,-7.285756538607625288e+00
7.970000000000000417e-01,5.030000000000000000e+02,-7.102416774689801038e+00
7.980000000000000426e-01,5.020000000000000000e+02,-7.025610555552663783e+00
7.990000000000000435e-01,5.040000000000000000e+02,-7.054458742179918751e+00
8.000000000000000444e-01,5.060000000000000000e+02,-7.182287836954794891e+00
8.010000000000000453e-01,5.080000000000000000e+02,-7.396681857706944641e+00
8.020000000000000462e-01,5.080000000000000000e+02,-7.679821873397250087e+00
8.030000000000000471e-01,5.060000000000000000e+02,-8.009107007310809934e+00
8.040000000000000480e-01,5.050000000000000000e+02,-8.358036348432095863e+00
8.050000000000000488e-01,5.040000000000000000e+02,-8.697317180631728206e+00
8.060000000000000497e-01,5.020000000000000000e+02,-8.996152017029867665e+00
8.070000000000000506e-01,4.990000000000000000e+02,-9.223645887997657056e+00
8.080000000000000515e-01,4.960000000000000000e+02,-9.350266897735670213e+00
8.090000000000000524e-01,4.980000000000000000e+02,-9.349287851848716357e+00
8.100000000000000533e-01,5.000000000000000000e+02,-9.198135225892608346e+00
8.110000000000000542e-01,4.990000000000000000e+02,-8.879574153422991500e+00
8.120000000000000551e-01,4.960000000000000000e+02,-8.382664495460943499e+00
8.129999999999999449e-01,4.970000000000000000e+02,-7.703433204868208151e+00
8.139999999999999458e-01,5.000000000000000000e+02,-6.845221675411175433e+00
8.149999999999999467e-01,5.050000000000000000e+02,-5.818682906469772931e+00
8.159999999999999476e-01,5.080000000000000000e+02,-4.641421280165227259e+00
8.169999999999999485e-01,5.080000000000000000e+02,-3.337286566005122523e+00
8.179999999999999494e-01,5.080000000000000000e+02,-1.935352392530793386e+00
8.189999999999999503e-01,5.080000000000000000e+02,-4.686267976056924800e-01
8.199999999999999512e-01,5.110000000000000000e+02,1.027442418103744259e+00
8.209999999999999520e-01,5.130000000000000000e+02,2.516592852025374416e+00
8.219999999999999529e-01,5.140000000000000000e+02,3.963420420869298244e+00
8.229999999999999538e-01,5.150000000000000000e+02,5.335013624972360979e+00
8.239999999999999547e-01,5.180000000000000000e+02,6.602463764967571258e+00
8.249999999999999556e-01,5.200000000000000000e+02,7.742171454775357731e+00
8.259999999999999565e-01,5.230000000000000000e+02,8.736879970120954297e+00
8.269999999999999574e-01,5.250000000000000000e+02,9.576380120967103338e+00
8.279999999999999583e-01,5.250000000000000000e+02,1.025784869873342409e+01
8.289999999999999591e-01,5.240000000000000000e+02,1.078580218817916148e+01
8.299999999999999600e-01,5.230000000000000000e+02,1.117166826729616957e+01
8.309999999999999609e-01,5.230000000000000000e+02,1.143299848005713315e+01
8.319999999999999618e-01,5.250000000000000000e+02,1.159236517316677961e+01
8.329999999999999627e-01,5.270000000000000000e+02,1.167600320925360435e+01
8.339999999999999636e-01,5.270000000000000000e+02,1.171227109714022419e+01
8.349999999999999645e-01,5.240000000000000000e+02,1.173001619062683609e+01
8.359999999999999654e-01,5.190000000000000000e+02,1.175693391160604051e+01
8.369999999999999662e-01,5.140000000000000000e+02,1.181801123507368523e+01
8.379999999999999671e-01,5.120000000000000000e+02,1.193413990982651285e+01
8.389999999999999680e-01,5.140000000000000000e+02,1.212097535157213279e+01
8.399999999999999689e-01,5.180000000000000000e+02,1.238810338453678739e+01
8.409999999999999698e-01,5.210000000000000000e+02,1.273855981459950293e+01
8.419999999999999707e-01,5.240000000000000000e+02,1.316872817238184723e+01
8.429999999999999716e-01,5.270000000000000000e+02,1.366861997616737945e+01
8.439999999999999725e-01,5.270000000000000000e+02,1.422252069759140980e+01
8.449999999999999734e-01,5.260000000000000000e+02,1.480996442274427416e+01
8.459999999999999742e-01,5.260000000000000000e+02,1.540698206900313316e+01
8.469999999999999751e-01,5.260000000000000000e+02,1.598755289738258334e+01
8.479999999999999760e-01,5.270000000000000000e+02,1.652517773535373991e+01
8.489999999999999769e-01,5.290000000000000000e+02,1.699448537907713330e+01
8.499999999999999778e-01,5.290000000000000000e+02,1.737278143919340323e+01
8.509999999999999787e-01,5.290000000000000000e+02,1.764145156136876835e+01
8.519999999999999796e-01,5.290000000000000000e+02,1.778713838730629604e+01
8.529999999999999805e-01,5.300000000000000000e+02,1.780262348776167158e+01
8.539999999999999813e-01,5.320000000000000000e+02,1.768736123808157146e+01
8.549999999999999822e-01,5.330000000000000000e+02,1.744763045554794445e+01
8.559999999999999831e-01,5.320000000000000000e+02,1.709629063285366612e+01
8.569999999999999840e-01,5.320000000000000000e+02,1.665215169436824993e+01
8.579999999999999849e-01,5.320000000000000000e+02,1.613898818230339316e+01
8.589999999999999858e-01,5.320000000000000000e+02,1.558424941517629314e+01
8.599999999999999867e-01,5.290000000000000000e+02,1.501753523941930091e+01
8.609999999999999876e-01,5.240000000000000000e+02,1.446892139911890141e+01
8.619999999999999885e-01,5.210000000000000000e+02,1.396722833046358758e+01
8.629999999999999893e-01,5.190000000000000000e+02,1.353833163932198147e+01
8.639999999999999902e-01,5.180000000000000000e+02,1.320361123805723835e+01
8.649999999999999911e-01,5.190000000000000000e+02,1.297862904480461843e+01
8.659999999999999920e-01,5.190000000000000000e+02,1.287211259927962459e+01
8.669999999999999929e-01,5.160000000000000000e+02,1.288530460475966422e+01
8.679999999999999938e-01,5.160000000000000000e+02,1.301171728153477680e+01
8.689999999999999947e-01,5.190000000000000000e+02,1.323730680259648729e+01
8.699999999999999956e-01,5.240000000000000000e+02,1.354105845799354313e+01
8.709999999999999964e-01,5.260000000000000000e+02,1.389594912957497108e+01
8.719999999999999973e-01,5.270000000000000000e+02,1.427023169996996188e+01
8.729999999999999982e-01,5.280000000000000000e+02,1.462896758161051736e+01
8.739999999999999991e-01,5.280000000000000000e+02,1.493571980893556095e+01
8.750000000000000000e-01,5.300000000000000000e+02,1.515431094198758721e+01
8.760000000000000009e-01,5.300000000000000000e+02,1.525054785052846817e+01
8.770000000000000018e-01,5.310000000000000000e+02,1.519381933695702713e+01
8.780000000000000027e-01,5.310000000000000000e+02,1.495848215090840760e+01
8.790000000000000036e-01,5.310000000000000000e+02,1.452496550252347340e+01
8.800000000000000044e-01,5.290000000000000000e+02,1.388054262656280713e+01
8.810000000000000053e-01,5.260000000000000000e+02,1.301973897880531261e+01
8.820000000000000062e-01,5.240000000000000000e+02,1.194436881412858753e+01
8.830000000000000071e-01,5.210000000000000000e+02,1.066321372667140821e+01
8.840000000000000080e-01,5.190000000000000000e+02,9.191376827882336897e+00
8.850000000000000089e-01,5.160000000000000000e+02,7.549363374209793420e+00
8.860000000000000098e-01,5.150000000000000000e+02,5.761951864368244358e+00
8.870000000000000107e-01,5.120000000000000000e+02,3.856928251533578766e+00
8.880000000000000115e-01,5.100000000000000000e+02,1.863759648001654501e+00
8.890000000000000124e-01,5.080000000000000000e+02,-1.877172238045122232e-01
8.900000000000000133e-01,5.050000000000000000e+02,-2.268523197434686889e+00
8.910000000000000142e-01,5.050000000000000000e+02,-4.351619279428245335e+00
8.920000000000000151e-01,5.050000000000000000e+02,-6.412797019173151369e+00
8.930000000000000160e-01,5.040000000000000000e+02,-8.431343404945273790e+00
8.940000000000000169e-01,5.000000000000000000e+02,-1.039046248036555475e+01
8.950000000000000178e-01,4.960000000000000000e+02,-1.227745121041993315e+01
8.960000000000000187e-01,4.940000000000000000e+02,-1.408364142755887549e+01
8.970000000000000195e-01,4.920000000000000000e+02,-1.580413215353622647e+01
8.980000000000000204e-01,4.950000000000000000e+02,-1.743734660489880994e+01
8.990000000000000213e-01,4.960000000000000000e+02,-1.898445534279208857e+01
9.000000000000000222e-01,4.950000000000000000e+02,-2.044871113136403906e+01
9.010000000000000231e-01,4.920000000000000000e+02,-2.183474214194463059e+01
9.020000000000000240e-01,4.900000000000000000e+02,-2.314784838635682718e+01
9.030000000000000249e-01,4.870000000000000000e+02,-2.439334203883015206e+01
9.040000000000000258e-01,4.860000000000000000e+02,-2.557596608160991281e+01
9.050000000000000266e-01,4.850000000000000000e+02,-2.669941802449038093e+01
9.060000000000000275e-01,4.830000000000000000e+02,-2.776599687235719216e+01
9.070000000000000284e-01,4.810000000000000000e+02,-2.877638260929755631e+01
9.080000000000000293e-01,4.790000000000000000e+02,-2.972954875817935161e+01
9.090000000000000302e-01,4.800000000000000000e+02,-3.062280052843295408e+01
9.100000000000000311e-01,4.820000000000000000e+02,-3.145192407917478050e+01
9.110000000000000320e-01,4.820000000000000000e+02,-3.221142682002876967e+01
9.120000000000000329e-01,4.800000000000000000e+02,-3.289484468940508322e+01
9.130000000000000338e-01,4.780000000000000000e+02,-3.349509015173728699e+01
9.140000000000000346e-01,4.760000000000000000e+02,-3.400481432319214292e+01
9.150000000000000355e-01,4.760000000000000000e+02,-3.441675816826358414e+01
9.160000000000000364e-01,4.750000000000000000e+02,-3.472407101732460433e+01
9.170000000000000373e-01,4.740000000000000000e+02,-3.492057955215597786e+01
9.180000000000000382e-01,4.740000000000000000e+02,-3.500099660625193820e+01
9.190000000000000391e-01,4.730000000000000000e+02,-3.496106624022298348e+01
9.200000000000000400e-01,4.730000000000000000e+02,-3.479764909336559242e+01
9.210000000000000409e-01,4.760000000000000000e+02,-3.450875941118295742e+01
9.220000000000000417e-01,4.780000000000000000e+02,-3.409357177890500168e+01
9.230000000000000426e-01,4.800000000000000000e+02,-3.355242080603329669e+01
9.240000000000000435e-01,4.800000000000000000e+02,-3.288682018590577627e+01
9.250000000000000444e-01,4.790000000000000000e+02,-3.209952815616306054e+01
9.260000000000000453e-01,4.800000000000000000e+02,-3.119468400585563828e+01
9.270000000000000462e-01,4.820000000000000000e+02,-3.017803469841988928e+01
9.280000000000000471e-01,4.850000000000000000e+02,-2.905726193026601578e+01
9.290000000000000480e-01,4.870000000000000000e+02,-2.784240831781564296e+01
9.300000000000000488e-01,4.880000000000000000e+02,-2.654638748607551690e+01
9.310000000000000497e-01,4.880000000000000000e+02,-2.518554748813185284e+01
9.320000000000000506e-01,4.870000000000000000e+02,-2.378024134158416913e+01
9.330000000000000515e-01,4.870000000000000000e+02,-2.235534385046094030e+01
9.340000000000000524e-01,4.890000000000000000e+02,-2.094064173814807717e+01
9.350000000000000533e-01,4.910000000000000000e+02,-1.957101592081233576e+01
9.360000000000000542e-01,4.920000000000000000e+02,-1.828633188351521000e+01
9.370000000000000551e-01,4.930000000000000000e+02,-1.713095775080229899e+01
9.379999999999999449e-01,4.960000000000000000e+02,-1.615284060157627621e+01
9.389999999999999458e-01,4.960000000000000000e+02,-1.540209024612865107e+01
9.399999999999999467e-01,4.950000000000000000e+02,-1.492904589879114852e+01
9.409999999999999476e-01,4.930000000000000000e+02,-1.478183417068238903e+01
9.419999999999999485e-01,4.930000000000000000e+02,-1.500346516398888141e+01
9.429999999999999494e-01,4.900000000000000000e+02,-1.562855514246241029e+01
9.439999999999999503e-01,4.860000000000000000e+02,-1.667980669998238596e+01
9.449999999999999512e-01,4.830000000000000000e+02,-1.816441753515312385e+01
9.459999999999999520e-01,4.800000000000000000e+02,-2.007062358853904982e+01
9.469999999999999529e-01,4.810000000000000000e+02,-2.236460808863498784e+01
9.479999999999999538e-01,4.830000000000000000e+02,-2.498802186686359050e+01
9.489999999999999547e-01,4.840000000000000000e+02,-2.785635949985803350e+01
9.499999999999999556e-01,4.860000000000000000e+02,-3.085841852265328455e+01
9.509999999999999565e-01,4.870000000000000000e+02,-3.385703422392696638e+01
9.519999999999999574e-01,4.890000000000000000e+02,-3.669123067031264895e+01
9.529999999999999583e-01,4.920000000000000000e+02,-3.917986122036073482e+01
9.539999999999999591e-01,4.910000000000000000e+02,-4.112673185617425986e+01
9.549999999999999600e-01,4.870000000000000000e+02,-4.232711246772595359e+01
9.559999999999999609e-01,4.830000000000000000e+02,-4.257545020132457836e+01
9.569999999999999618e-01,4.830000000000000000e+02,-4.167401143370562266e+01
9.579999999999999627e-01,4.830000000000000000e+02,-3.944210167091954133e+01
9.589999999999999636e-01,4.830000000000000000e+02,-3.572545258295522075e+01
9.599999999999999645e-01,4.820000000000000000e+02,-3.040532894514786122e+01
9.609999999999999654e-01,4.830000000000000000e+02,-2.340690061530835564e+01
9.619999999999999662e-01,4.840000000000000000e+02,-1.470644708429740888e+01
9.629999999999999671e-01,4.850000000000000000e+02,-4.337008520103198705e+00
9.639999999999999680e-01,4.890000000000000000e+02,7.607844239685948473e+00
9.649999999999999689e-01,4.990000000000000000e+02,2.097238606971124852e+01
9.659999999999999698e-01,5.110000000000000000e+02,3.553945825918109591e+01
9.669999999999999707e-01,5.280000000000000000e+02,5.103365231671688917e+01
9.679999999999999716e-01,5.470000000000000000e+02,6.712698160522182889e+01
9.689999999999999725e-01,5.680000000000000000e+02,8.344695931674591804e+01
9.699999999999999734e-01,5.920000000000000000e+02,9.958688877037813825e+01
9.709999999999999742e-01,6.140000000000000000e+02,1.151180599132371469e+02
9.719999999999999751e-01,6.350000000000000000e+02,1.296034410222477504e+02
9.729999999999999760e-01,6.550000000000000000e+02,1.426123633520403473e+02
9.739999999999999769e-01,6.760000000000000000e+02,1.537356244421823419e+02
9.749999999999999778e-01,6.960000000000000000e+02,1.626003873732271643e+02
9.759999999999999787e-01,7.140000000000000000e+02,1.688842313267282123e+02
9.769999999999999796e-01,7.280000000000000000e+02,1.723277145285561289e+02
9.779999999999999805e-01,7.390000000000000000e+02,1.727448442480123560e+02
9.789999999999999813e-01,7.410000000000000000e+02,1.700309134873723735e+02
9.799999999999999822e-01,7.320000000000000000e+02,1.641672723475815587e+02
9.809999999999999831e-01,7.140000000000000000e+02,1.552227662063502009e+02
9.819999999999999840e-01,6.920000000000000000e+02,1.433517814912075323e+02
9.829999999999999849e-01,6.640000000000000000e+02,1.287890507113111198e+02
9.839999999999999858e-01,6.310000000000000000e+02,1.118415391099968730e+02
9.849999999999999867e-01,5.940000000000000000e+02,9.287785416394356730e+01
9.859999999999999876e-01,5.590000000000000000e+02,7.231569821527374131e+01
9.869999999999999885e-01,5.290000000000000000e+02,5.060793536832524353e+01
9.879999999999999893e-01,5.040000000000000000e+02,2.822786935719889811e+01
9.889999999999999902e-01,4.810000000000000000e+02,5.654328924393082545e+00
9.899999999999999911e-01,4.610000000000000000e+02,-1.664286825759782928e+01
9.909999999999999920e-01,4.440000000000000000e+02,-3.821655090345038275e+01
9.919999999999999929e-01,4.320000000000000000e+02,-5.865447508222554518e+01
9.929999999999999938e-01,4.190000000000000000e+02,-7.758988103449119933e+01
9.939999999999999947e-01,4.060000000000000000e+02,-9.471004951680534134e+01
9.949999999999999956e-01,3.940000000000000000e+02,-1.097626786296205097e+02
9.959999999999999964e-01,3.830000000000000000e+02,-1.225599972624344645e+02
9.969999999999999973e-01,3.760000000000000000e+02,-1.329806188337787773e+02
9.979999999999999982e-01,3.710000000000000000e+02,-1.409692140832371479e+02
9.989999999999999991e-01,3.700000000000000000e+02,-1.465341409280958089e+02
1.000000000000000000e+00,3.690000000000000000e+02,-1.497432135890091160e+02
1.000999999999999890e+00,3.660000000000000000e+02,-1.507178305446451816e+02
1.002000000000000002e+00,3.640000000000000000e+02,-1.496257239840250293e+02
1.002999999999999892e+00,3.630000000000000000e+02,-1.466726473518873206e+02
1.004000000000000004e+00,3.670000000000000000e+02,-1.420933716994957479e+02
1.004999999999999893e+00,3.700000000000000000e+02,-1.361423958030235042e+02
1.006000000000000005e+00,3.760000000000000000e+02,-1.290847737763635052e+02
1.006999999999999895e+00,3.880000000000000000e+02,-1.211874252773246781e+02
1.008000000000000007e+00,4.020000000000000000e+02,-1.127112284127801587e+02
1.008999999999999897e+00,4.160000000000000000e+02,-1.039041191959988737e+02
1.010000000000000009e+00,4.270000000000000000e+02,-9.499534481549513032e+01
1.010999999999999899e+00,4.340000000000000000e+02,-8.619094649652986107e+01
1.012000000000000011e+00,4.400000000000000000e+02,-7.767048409300736012e+01
1.012999999999999901e+00,4.460000000000000000e+02,-6.958496050677706535e+01
1.014000000000000012e+00,4.510000000000000000e+02,-6.205586075140593749e+01
1.014999999999999902e+00,4.550000000000000000e+02,-5.517518852488314707e+01
1.016000000000000014e+00,4.580000000000000000e+02,-4.900636255198591584e+01
1.016999999999999904e+00,4.620000000000000000e+02,-4.358582524712993234e+01
1.018000000000000016e+00,4.690000000000000000e+02,-3.892521658453541278e+01
1.018999999999999906e+00,4.760000000000000000e+02,-3.501397515142969041e+01
1.020000000000000018e+00,4.810000000000000000e+02,-3.182224384413737539e+01
1.020999999999999908e+00,4.850000000000000000e+02,-2.930397525931071456e+01
1.022000000000000020e+00,4.870000000000000000e+02,-2.740014625807435422e+01
1.022999999999999909e+00,4.870000000000000000e+02,-2.604199955089210761e+01
1.024000000000000021e+00,4.840000000000000000e+02,-2.515423398102313612e+01
1.024999999999999911e+00,4.820000000000000000e+02,-2.465806816996611417e+01
1.026000000000000023e+00,4.820000000000000000e+02,-2.447410685185759505e+01
1.026999999999999913e+00,4.840000000000000000e+02,-2.452494617168117585e+01
1.028000000000000025e+00,4.860000000000000000e+02,-2.473746320101663798e+01
1.028999999999999915e+00,4.870000000000000000e+02,-2.504474556004643659e+01
1.030000000000000027e+00,4.860000000000000000e+02,-2.538762895896406846e+01
1.030999999999999917e+00,4.810000000000000000e+02,-2.571582330785510351e+01
1.032000000000000028e+00,4.810000000000000000e+02,-2.598862138822928003e+01
1.032999999999999918e+00,4.820000000000000000e+02,-2.617519749690221786e+01
1.034000000000000030e+00,4.830000000000000000e+02,-2.625451650100551149e+01
1.034999999999999920e+00,4.850000000000000000e+02,-2.621488590347372138e+01
1.036000000000000032e+00,4.870000000000000000e+02,-2.605319433920907102e+01
1.036999999999999922e+00,4.880000000000000000e+02,-2.577388896371836324e+01
1.038000000000000034e+00,4.870000000000000000e+02,-2.538775108058976215e+01
1.038999999999999924e+00,4.870000000000000000e+02,-2.491053379334575624e+01
1.040000000000000036e+00,4.870000000000000000e+02,-2.436152728443637372e+01
1.040999999999999925e+00,4.860000000000000000e+02,-2.376211646924518206e+01
1.042000000000000037e+00,4.870000000000000000e+02,-2.313439232706361537e+01
1.042999999999999927e+00,4.890000000000000000e+02,-2.249987238142998436e+01
1.044000000000000039e+00,4.890000000000000000e+02,-2.187837790872186616e+01
1.044999999999999929e+00,4.900000000000000000e+02,-2.128710590728117324e+01
1.046000000000000041e+00,4.920000000000000000e+02,-2.073992313564784595e+01
1.046999999999999931e+00,4.930000000000000000e+02,-2.024689814053415660e+01
1.048000000000000043e+00,4.910000000000000000e+02,-1.981407566444040214e+01
1.048999999999999932e+00,4.890000000000000000e+02,-1.944348665322205605e+01
1.050000000000000044e+00,4.920000000000000000e+02,-1.913337673944624129e+01
1.050999999999999934e+00,4.940000000000000000e+02,-1.887862696432009457e+01
1.052000000000000046e+00,4.960000000000000000e+02,-1.867133295529416870e+01
1.052999999999999936e+00,4.950000000000000000e+02,-1.850150305589967203e+01
1.054000000000000048e+00,4.930000000000000000e+02,-1.835783218467606659e+01
1.054999999999999938e+00,4.940000000000000000e+02,-1.822850657386087647e+01
1.056000000000000050e+00,4.940000000000000000e+02,-1.810199501624815355e+01
1.056999999999999940e+00,4.890000000000000000e+02,-1.796778476005957970e+01
1.058000000000000052e+00,4.890000000000000000e+02,-1.781702458826723756e+01
1.058999999999999941e+00,4.890000000000000000e+02,-1.764304367693429043e+01
1.060000000000000053e+00,4.890000000000000000e+02,-1.744172225313808866e+01
1.060999999999999943e+00,4.890000000000000000e+02,-1.721169851107397619e+01
1.062000000000000055e+00,4.900000000000000000e+02,-1.695440528857919560e+01
1.062999999999999945e+00,4.920000000000000000e+02,-1.667393921430499049e+01
1.064000000000000057e+00,4.930000000000000000e+02,-1.637677395176110196e+01
1.064999999999999947e+00,4.950000000000000000e+02,-1.607133734187620533e+01
1.066000000000000059e+00,4.970000000000000000e+02,-1.576747926414017442e+01
1.066999999999999948e+00,4.990000000000000000e+02,-1.547586253759909347e+01
1.068000000000000060e+00,5.000000000000000000e+02,-1.520731288454310715e+01
1.068999999999999950e+00,4.990000000000000000e+02,-1.497216569430362831e+01
1.070000000000000062e+00,4.990000000000000000e+02,-1.477964697131083760e+01
1.070999999999999952e+00,4.970000000000000000e+02,-1.463732346089740588e+01
1.072000000000000064e+00,4.960000000000000000e+02,-1.455065265798652696e+01
1.072999999999999954e+00,4.950000000000000000e+02,-1.452265745845934752e+01
1.074000000000000066e+00,4.960000000000000000e+02,-1.455374293873438063e+01
1.074999999999999956e+00,4.960000000000000000e+02,-1.464166454375309456e+01
1.076000000000000068e+00,4.960000000000000000e+02,-1.478164827433497486e+01
1.076999999999999957e+00,4.950000000000000000e+02,-1.496665476606063194e+01
1.078000000000000069e+00,4.940000000000000000e+02,-1.518777092171382392e+01
1.078999999999999959e+00,4.940000000000000000e+02,-1.543470545643693370e+01
1.080000000000000071e+00,4.940000000000000000e+02,-1.569635875457504781e+01
1.080999999999999961e+00,4.950000000000000000e+02,-1.596143316940672996e+01
1.082000000000000073e+00,4.950000000000000000e+02,-1.621904758469823093e+01
1.082999999999999963e+00,4.950000000000000000e+02,-1.645931985885448867e+01
1.084000000000000075e+00,4.930000000000000000e+02,-1.667388272873668953e+01
1.084999999999999964e+00,4.920000000000000000e+02,-1.685630277506712105e+01
1.086000000000000076e+00,4.920000000000000000e+02,-1.700237793147891452e+01
1.086999999999999966e+00,4.920000000000000000e+02,-1.711029642095537184e+01
1.088000000000000078e+00,4.920000000000000000e+02,-1.718064848789989796e+01
1.088999999999999968e+00,4.930000000000000000e+02,-1.721629134157150531e+01
1.090000000000000080e+00,4.940000000000000000e+02,-1.722207676771298068e+01
1.090999999999999970e+00,4.930000000000000000e+02,-1.720445931813762641e+01
1.092000000000000082e+00,4.900000000000000000e+02,-1.717101029913093413e+01
1.092999999999999972e+00,4.890000000000000000e+02,-1.712986846357442516e+01
1.094000000000000083e+00,4.920000000000000000e+02,-1.708916198913606621e+01
1.094999999999999973e+00,4.960000000000000000e+02,-1.705643775223299130e+01
1.096000000000000085e+00,4.980000000000000000e+02,-1.703813299838056139e+01
1.096999999999999975e+00,4.960000000000000000e+02,-1.703912134388176014e+01
1.098000000000000087e+00,4.950000000000000000e+02,-1.706235986369332025e+01
1.098999999999999977e+00,4.940000000000000000e+02,-1.710865721248320170e+01
1.100000000000000089e+00,4.950000000000000000e+02,-1.717657479159108291e+01
1.100999999999999979e+00,4.960000000000000000e+02,-1.726246448907675912e+01
1.102000000000000091e+00,4.950000000000000000e+02,-1.736063808546460407e+01
1.102999999999999980e+00,4.930000000000000000e+02,-1.746365561390466326e+01
1.104000000000000092e+00,4.910000000000000000e+02,-1.756271330079340842e+01
1.104999999999999982e+00,4.910000000000000000e+02,-1.764810659305980067e+01
1.106000000000000094e+00,4.910000000000000000e+02,-1.770974046529637391e+01
1.106999999999999984e+00,4.910000000000000000e+02,-1.773765780475961407e+01
1.108000000000000096e+00,4.910000000000000000e+02,-1.772255715256351749e+01
1.108999999999999986e+00,4.910000000000000000e+02,-1.765627325297919015e+01
1.110000000000000098e+00,4.900000000000000000e+02,-1.753219743380642370e+01
1.110999999999999988e+00,4.900000000000000000e+02,-1.734561943506362525e+01
1.112000000000000099e+00,4.910000000000000000e+02,-1.709397750841234043e+01
1.112999999999999989e+00,4.940000000000000000e+02,-1.677700901623612140e+01
1.114000000000000101e+00,4.960000000000000000e+02,-1.639679899744602665e+01
1.114999999999999991e+00,4.970000000000000000e+02,-1.595772893657715485e+01
1.116000000000000103e+00,4.970000000000000000e+02,-1.546633206176853470e+01
1.116999999999999993e+00,4.960000000000000000e+02,-1.493106478972770645e+01
1.118000000000000105e+00,4.950000000000000000e+02,-1.436200640681500218e+01
1.118999999999999995e+00,4.950000000000000000e+02,-1.377050077601979439e+01
1.120000000000000107e+00,4.960000000000000000e+02,-1.316875489428588430e+01
1.120999999999999996e+00,4.980000000000000000e+02,-1.256940962459736255e+01
1.122000000000000108e+00,4.990000000000000000e+02,-1.198509802394928592e+01
1.122999999999999998e+00,4.990000000000000000e+02,-1.142800649080541753e+01
1.124000000000000110e+00,5.000000000000000000e+02,-1.090945353425997233e+01
1.125000000000000000e+00,5.010000000000000000e+02,-1.043950034575172836e+01
1.125999999999999890e+00,5.000000000000000000e+02,-1.002660651111655810e+01
1.127000000000000002e+00,4.990000000000000000e+02,-9.677343077712158959e+00
1.127999999999999892e+00,4.960000000000000000e+02,-9.396173708979961958e+00
1.129000000000000004e+00,4.970000000000000000e+02,-9.185312736666766398e+00
1.129999999999999893e+00,5.020000000000000000e+02,-9.044666499046956076e+00
1.131000000000000005e+00,5.040000000000000000e+02,-8.971861412908904043e+00
1.131999999999999895e+00,5.060000000000000000e+02,-8.962358806440620995e+00
1.133000000000000007e+00,5.040000000000000000e+02,-9.009652745815596830e+00
1.133999999999999897e+00,4.990000000000000000e+02,-9.105543095909277795e+00
1.135000000000000009e+00,4.980000000000000000e+02,-9.240472102251452213e+00
1.135999999999999899e+00,4.990000000000000000e+02,-9.403909148275996444e+00
1.137000000000000011e+00,5.020000000000000000e+02,-9.584765329473439621e+00
1.137999999999999901e+00,5.040000000000000000e+02,-9.771817383338765595e+00
1.139000000000000012e+00,5.020000000000000000e+02,-9.954119567095004228e+00
1.139999999999999902e+00,5.020000000000000000e+02,-1.012138245697933669e+01
1.141000000000000014e+00,5.000000000000000000e+02,-1.026429942840550957e+01
1.141999999999999904e+00,4.960000000000000000e+02,-1.037480472600702974e+01
1.143000000000000016e+00,4.950000000000000000e+02,-1.044625138595953473e+01
1.143999999999999906e+00,4.950000000000000000e+02,-1.047350255407513941e+01
1.145000000000000018e+00,4.950000000000000000e+02,-1.045293557791565675e+01
1.145999999999999908e+00,4.960000000000000000e+02,-1.038236419641460806e+01
1.147000000000000020e+00,4.990000000000000000e+02,-1.026088973214403488e+01
1.147999999999999909e+00,5.010000000000000000e+02,-1.008869694846419662e+01
1.149000000000000021e+00,5.010000000000000000e+02,-9.866813763861769004e+00
1.149999999999999911e+00,5.020000000000000000e+02,-9.596856016197982342e+00
1.151000000000000023e+00,5.030000000000000000e+02,-9.280778770088785379e+00
1.151999999999999913e+00,5.040000000000000000e+02,-8.920654242703690784e+00
1.153000000000000025e+00,5.040000000000000000e+02,-8.518493423786853924e+00
1.153999999999999915e+00,5.050000000000000000e+02,-8.076124164207485023e+00
1.155000000000000027e+00,5.050000000000000000e+02,-7.595133298136510724e+00
1.155999999999999917e+00,5.030000000000000000e+02,-7.076874716231820628e+00
1.157000000000000028e+00,5.030000000000000000e+02,-6.522539717829944017e+00
1.157999999999999918e+00,5.040000000000000000e+02,-5.933280914202747169e+00
1.159000000000000030e+00,5.030000000000000000e+02,-5.310376839968658835e+00
1.159999999999999920e+00,5.010000000000000000e+02,-4.655421558319775777e+00
1.161000000000000032e+00,5.020000000000000000e+02,-3.970522090529013060e+00
1.161999999999999922e+00,5.040000000000000000e+02,-3.258486493927920336e+00
1.163000000000000034e+00,5.060000000000000000e+02,-2.522986753130218140e+00
1.163999999999999924e+00,5.070000000000000000e+02,-1.768683119184608410e+00
1.165000000000000036e+00,5.090000000000000000e+02,-1.001299827963222588e+00
1.165999999999999925e+00,5.100000000000000000e+02,-2.276459020771678110e-01
1.167000000000000037e+00,5.100000000000000000e+02,5.444213686462173740e-01
1.167999999999999927e+00,5.110000000000000000e+02,1.306088994531801051e+00
1.169000000000000039e+00,5.120000000000000000e+02,2.047732432300910510e+00
1.169999999999999929e+00,5.150000000000000000e+02,2.759104320292101509e+00
1.171000000000000041e+00,5.160000000000000000e+02,3.429559067980952669e+00
1.171999999999999931e+00,5.120000000000000000e+02,4.048303609709588358e+00
1.173000000000000043e+00,5.120000000000000000e+02,4.604664401858231670e+00
1.173999999999999932e+00,5.120000000000000000e+02,5.088361112117173235e+00
1.175000000000000044e+00,5.150000000000000000e+02,5.489778256529139533e+00
1.175999999999999934e+00,5.180000000000000000e+02,5.800227107403772564e+00
1.177000000000000046e+00,5.180000000000000000e+02,6.012191352804416411e+00
1.177999999999999936e+00,5.160000000000000000e+02,6.119551090443320795e+00
1.179000000000000048e+00,5.150000000000000000e+02,6.117780677061169570e+00
1.179999999999999938e+00,5.150000000000000000e+02,6.004116664472006981e+00
1.181000000000000050e+00,5.150000000000000000e+02,5.777692517060666333e+00
1.181999999999999940e+00,5.150000000000000000e+02,5.439637047186843155e+00
1.183000000000000052e+00,5.160000000000000000e+02,4.993133585508336303e+00
1.183999999999999941e+00,5.140000000000000000e+02,4.443436910447001509e+00
1.185000000000000053e+00,5.110000000000000000e+02,3.797844998592231125e+00
1.185999999999999943e+00,5.100000000000000000e+02,3.065622833777785772e+00
1.187000000000000055e+00,5.090000000000000000e+02,2.257875927742015065e+00
1.187999999999999945e+00,5.090000000000000000e+02,1.387371942833286687e+00
1.189000000000000057e+00,5.100000000000000000e+02,4.683099233874198908e-01
1.189999999999999947e+00,5.110000000000000000e+02,-4.839618408870002830e-01
1.191000000000000059e+00,5.100000000000000000e+02,-1.453276396499135981e+00
1.191999999999999948e+00,5.080000000000000000e+02,-2.423022006715133791e+00
1.193000000000000060e+00,5.060000000000000000e+02,-3.376551739886948234e+00
1.193999999999999950e+00,5.050000000000000000e+02,-4.297618646068631421e+00
1.195000000000000062e+00,5.050000000000000000e+02,-5.170823960189657953e+00
1.195999999999999952e+00,5.050000000000000000e+02,-5.982063603250832529e+00
1.197000000000000064e+00,5.040000000000000000e+02,-6.718956557917796779e+00
1.197999999999999954e+00,5.040000000000000000e+02,-7.371237659987630586e+00
1.199000000000000066e+00,5.020000000000000000e+02,-7.931097137487904014e+00
1.199999999999999956e+00,5.010000000000000000e+02,-8.393449970564574869e+00
1.201000000000000068e+00,4.990000000000000000e+02,-8.756119910275351970e+00
1.201999999999999957e+00,4.970000000000000000e+02,-9.019925789815731676e+00
1.203000000000000069e+00,4.970000000000000000e+02,-9.188661520418268225e+00
1.203999999999999959e+00,4.990000000000000000e+02,-9.268965741415490456e+00
1.205000000000000071e+00,4.990000000000000000e+02,-9.270082269773883610e+00
1.205999999999999961e+00,4.970000000000000000e+02,-9.203517982757972504e+00
1.207000000000000073e+00,4.950000000000000000e+02,-9.082610232186508981e+00
1.207999999999999963e+00,4.950000000000000000e+02,-8.922020966190782332e+00
1.209000000000000075e+00,4.980000000000000000e+02,-8.737179060284965715e+00
1.209999999999999964e+00,5.020000000000000000e+02,-8.543695599655420025e+00
1.211000000000000076e+00,5.040000000000000000e+02,-8.356778735220586896e+00
1.211999999999999966e+00,5.060000000000000000e+02,-8.190675072059013573e+00
1.213000000000000078e+00,5.080000000000000000e+02,-8.058163265442344070e+00
1.213999999999999968e+00,5.080000000000000000e+02,-7.970122645194021693e+00
1.215000000000000080e+00,5.040000000000000000e+02,-7.935195436058343432e+00
1.215999999999999970e+00,5.030000000000000000e+02,-7.959555776162027918e+00
1.217000000000000082e+00,5.010000000000000000e+02,-8.046792633912950521e+00
1.217999999999999972e+00,4.990000000000000000e+02,-8.197907320360251049e+00
1.219000000000000083e+00,4.970000000000000000e+02,-8.411420043527124690e+00
1.219999999999999973e+00,4.970000000000000000e+02,-8.683574287883406129e+00
1.221000000000000085e+00,4.990000000000000000e+02,-9.008623103224476125e+00
1.221999999999999975e+00,4.980000000000000000e+02,-9.379177942490494857e+00
1.223000000000000087e+00,4.980000000000000000e+02,-9.786598678499689896e+00
1.223999999999999977e+00,4.970000000000000000e+02,-1.022140291698743120e+01
1.225000000000000089e+00,4.970000000000000000e+02,-1.067367365070085405e+01
1.225999999999999979e+00,4.960000000000000000e+02,-1.113344650100360234e+01
1.227000000000000091e+00,4.950000000000000000e+02,-1.159106101395644473e+01
1.227999999999999980e+00,4.960000000000000000e+02,-1.203746439654392475e+01
1.229000000000000092e+00,4.970000000000000000e+02,-1.246446033880651072e+01
1.229999999999999982e+00,4.980000000000000000e+02,-1.286489980663205657e+01
1.231000000000000094e+00,4.990000000000000000e+02,-1.323281456953307256e+01
1.231999999999999984e+00,4.980000000000000000e+02,-1.356349746058701555e+01
1.233000000000000096e+00,4.960000000000000000e+02,-1.385353573748373890e+01
1.233999999999999986e+00,4.950000000000000000e+02,-1.410080529823140871e+01
1.235000000000000098e+00,4.940000000000000000e+02,-1.430443387248134890e+01
1.235999999999999988e+00,4.930000000000000000e+02,-1.446474072544046052e+01
1.237000000000000099e+00,4.930000000000000000e+02,-1.458315902971772182e+01
1.237999999999999989e+00,4.940000000000000000e+02,-1.466214510825292727e+01
1.239000000000000101e+00,4.940000000000000000e+02,-1.470507650870593075e+01
1.239999999999999991e+00,4.940000000000000000e+02,-1.471613864469942534e+01
1.241000000000000103e+00,4.960000000000000000e+02,-1.470019784143431707e+01
1.241999999999999993e+00,4.960000000000000000e+02,-1.466265733416879868e+01
1.243000000000000105e+00,4.940000000000000000e+02,-1.460929231405453343e+01
1.243999999999999995e+00,4.940000000000000000e+02,-1.454606064218174311e+01
1.245000000000000107e+00,4.950000000000000000e+02,-1.447888740351455361e+01
1.245999999999999996e+00,4.930000000000000000e+02,-1.441342397765573402e+01
1.247000000000000108e+00,4.890000000000000000e+02,-1.435478557565307156e+01
1.247999999999999998e+00,4.870000000000000000e+02,-1.430727493491979629e+01
1.249000000000000110e+00,4.880000000000000000e+02,-1.427410369315910543e+01
1.250000000000000000e+00,4.930000000000000000e+02,-1.425712643693178450e+01
1.250999999999999890e+00,4.970000000000000000e+02,-1.425660508844557661e+01
1.252000000000000002e+00,5.000000000000000000e+02,-1.427102273855530967e+01
1.252999999999999892e+00,4.990000000000000000e+02,-1.429696592365570851e+01
1.254000000000000004e+00,4.980000000000000000e+02,-1.432909247764808391e+01
1.254999999999999893e+00,5.010000000000000000e+02,-1.436019842852540229e+01
1.256000000000000005e+00,4.990000000000000000e+02,-1.438139209250512529e+01
1.256999999999999895e+00,4.950000000000000000e+02,-1.438237686372590751e+01
1.258000000000000007e+00,4.910000000000000000e+02,-1.435183667544990094e+01
1.258999999999999897e+00,4.910000000000000000e+02,-1.427791030573932929e+01
1.260000000000000009e+00,4.920000000000000000e+02,-1.414873326586565661e+01
1.260999999999999899e+00,4.930000000000000000e+02,-1.395301959598011443e+01
1.262000000000000011e+00,4.950000000000000000e+02,-1.368065109592914830e+01
1.262999999999999901e+00,4.950000000000000000e+02,-1.332323882397221659e+01
1.264000000000000012e+00,4.960000000000000000e+02,-1.287462143032449546e+01
1.264999999999999902e+00,4.950000000000000000e+02,-1.233126719565908935e+01
1.266000000000000014e+00,4.940000000000000000e+02,-1.169255145313270638e+01
1.266999999999999904e+00,4.950000000000000000e+02,-1.096088811976939859e+01
1.268000000000000016e+00,4.960000000000000000e+02,-1.014170289755034737e+01
1.268999999999999906e+00,4.980000000000000000e+02,-9.243245721758906797e+00
1.270000000000000018e+00,4.990000000000000000e+02,-8.276250521418603512e+00
1.270999999999999908e+00,4.990000000000000000e+02,-7.253460547740767872e+00
1.272000000000000020e+00,5.000000000000000000e+02,-6.189046661145913397e+00
1.272999999999999909e+00,5.020000000000000000e+02,-5.097953352060808463e+00
1.274000000000000021e+00,5.050000000000000000e+02,-3.995212334845370084e+00
1.274999999999999911e+00,5.080000000000000000e+02,-2.895265898038745345e+00
1.276000000000000023e+00,5.100000000000000000e+02,-1.811341622799838014e+00
1.276999999999999913e+00,5.110000000000000000e+02,-7.549166229445120058e-01
1.278000000000000025e+00,5.120000000000000000e+02,2.646966355757319200e-01
1.278999999999999915e+00,5.130000000000000000e+02,1.240619158121014642e+00
1.280000000000000027e+00,5.150000000000000000e+02,2.168514957538532517e+00
1.280999999999999917e+00,5.150000000000000000e+02,3.046538056904781300e+00
1.282000000000000028e+00,5.130000000000000000e+02,3.875124451035359296e+00
1.282999999999999918e+00,5.110000000000000000e+02,4.656646543104903557e+00
1.284000000000000030e+00,5.080000000000000000e+02,5.394956190668775520e+00
1.284999999999999920e+00,5.100000000000000000e+02,6.094849145861978457e+00
1.286000000000000032e+00,5.120000000000000000e+02,6.761487967166686097e+00
1.286999999999999922e+00,5.130000000000000000e+02,7.399822217950290160e+00
1.288000000000000034e+00,5.140000000000000000e+02,8.014043950026472629e+00
1.288999999999999924e+00,5.160000000000000000e+02,8.607113281070278177e+00
1.290000000000000036e+00,5.180000000000000000e+02,9.180383647350167209e+00
1.290999999999999925e+00,5.190000000000000000e+02,9.733349494065528518e+00
1.292000000000000037e+00,5.200000000000000000e+02,1.026353126663434523e+01
1.292999999999999927e+00,5.190000000000000000e+02,1.076650412021577630e+01
1.294000000000000039e+00,5.180000000000000000e+02,1.123606828475266894e+01
1.294999999999999929e+00,5.200000000000000000e+02,1.166455097106595140e+01
1.296000000000000041e+00,5.200000000000000000e+02,1.204322247002860991e+01
1.296999999999999931e+00,5.200000000000000000e+02,1.236280298862185845e+01
1.298000000000000043e+00,5.190000000000000000e+02,1.261403200609632869e+01
1.298999999999999932e+00,5.200000000000000000e+02,1.278826866336374657e+01
1.300000000000000044e+00,5.210000000000000000e+02,1.287808999167184609e+01
1.300999999999999934e+00,5.200000000000000000e+02,1.287785365545245675e+01
1.302000000000000046e+00,5.210000000000000000e+02,1.278419329198646537e+01
1.302999999999999936e+00,5.220000000000000000e+02,1.259641739771051760e+01
1.304000000000000048e+00,5.230000000000000000e+02,1.231678691993028529e+01
1.304999999999999938e+00,5.230000000000000000e+02,1.195065210901144148e+01
1.306000000000000050e+00,5.230000000000000000e+02,1.150643557819716634e+01
1.306999999999999940e+00,5.200000000000000000e+02,1.099545567624277176e+01
1.308000000000000052e+00,5.170000000000000000e+02,1.043159193405881702e+01
1.308999999999999941e+00,5.160000000000000000e+02,9.830802196750546784e+00
1.310000000000000053e+00,5.170000000000000000e+02,9.210508763182405190e+00
1.310999999999999943e+00,5.180000000000000000e+02,8.588878072727974100e+00
1.312000000000000055e+00,5.180000000000000000e+02,7.984024842993306059e+00
1.312999999999999945e+00,5.150000000000000000e+02,7.413176723434555804e+00
1.314000000000000057e+00,5.130000000000000000e+02,6.891839168497635448e+00
1.314999999999999947e+00,5.120000000000000000e+02,6.433002081768266045e+00
1.316000000000000059e+00,5.120000000000000000e+02,6.046429642836121943e+00
1.316999999999999948e+00,5.110000000000000000e+02,5.738072494526343270e+00
1.318000000000000060e+00,5.110000000000000000e+02,5.509637137979648713e+00
1.318999999999999950e+00,5.120000000000000000e+02,5.358341068521693451e+00
1.320000000000000062e+00,5.120000000000000000e+02,5.276874113489690821e+00
1.320999999999999952e+00,5.130000000000000000e+02,5.253576940750971147e+00
1.322000000000000064e+00,5.140000000000000000e+02,5.272837226009198019e+00
1.322999999999999954e+00,5.150000000000000000e+02,5.315693006179742497e+00
1.324000000000000066e+00,5.150000000000000000e+02,5.360621863070464066e+00
1.324999999999999956e+00,5.130000000000000000e+02,5.384484354896033942e+00
1.326000000000000068e+00,5.110000000000000000e+02,5.363581110862162049e+00
1.326999999999999957e+00,5.100000000000000000e+02,5.274775752522264938e+00
1.328000000000000069e+00,5.100000000000000000e+02,5.096630759523347542e+00
1.328999999999999959e+00,5.100000000000000000e+02,4.810500912441021626e+00
1.330000000000000071e+00,5.120000000000000000e+02,4.401529254844851913e+00
1.330999999999999961e+00,5.140000000000000000e+02,3.859493712574268098e+00
1.332000000000000073e+00,5.150000000000000000e+02,3.179458528957651353e+00
1.332999999999999963e+00,5.140000000000000000e+02,2.362193300582255961e+00
1.334000000000000075e+00,5.120000000000000000e+02,1.414333255130743261e+00
1.334999999999999964e+00,5.090000000000000000e+02,3.482669858875148128e-01
1.336000000000000076e+00,5.060000000000000000e+02,-8.182484857812493129e-01
1.336999999999999966e+00,5.050000000000000000e+02,-2.062731426980727090e+00
1.338000000000000078e+00,5.040000000000000000e+02,-3.358850375406678967e+00
1.338999999999999968e+00,5.050000000000000000e+02,-4.677490425156989318e+00
1.340000000000000080e+00,5.050000000000000000e+02,-5.987960308756188788e+00
1.340999999999999970e+00,5.050000000000000000e+02,-7.259281771638592673e+00
1.342000000000000082e+00,5.030000000000000000e+02,-8.461497809545669213e+00
1.342999999999999972e+00,4.990000000000000000e+02,-9.566934843491036844e+00
1.344000000000000083e+00,4.960000000000000000e+02,-1.055135600950221786e+01
1.344999999999999973e+00,4.940000000000000000e+02,-1.139494839784654800e+01
1.346000000000000085e+00,4.910000000000000000e+02,-1.208309602411554629e+01
1.346999999999999975e+00,4.870000000000000000e+02,-1.260690207007604968e+01
1.348000000000000087e+00,4.830000000000000000e+02,-1.296343781500883097e+01
1.348999999999999977e+00,4.830000000000000000e+02,-1.315571084523769052e+01
1.350000000000000089e+00,4.850000000000000000e+02,-1.319236062700894685e+01
1.350999999999999979e+00,4.920000000000000000e+02,-1.308710435730936794e+01
1.352000000000000091e+00,4.970000000000000000e+02,-1.285796920044849045e+01
1.352999999999999980e+00,4.980000000000000000e+02,-1.252635771550809629e+01
1.354000000000000092e+00,5.000000000000000000e+02,-1.211600080277450076e+01
1.354999999999999982e+00,5.060000000000000000e+02,-1.165185640900848618e+01
1.356000000000000094e+00,5.070000000000000000e+02,-1.115901237527289602e+01
1.356999999999999984e+00,5.070000000000000000e+02,-1.066164832385900141e+01
1.358000000000000096e+00,5.030000000000000000e+02,-1.018210477745288500e+01
1.358999999999999986e+00,5.010000000000000000e+02,-9.740098434140708861e+00
1.360000000000000098e+00,4.990000000000000000e+02,-9.352111506065668323e+00
1.360999999999999988e+00,4.970000000000000000e+02,-9.030971176561141789e+00
1.362000000000000099e+00,4.950000000000000000e+02,-8.785623451943168405e+00
1.362999999999999989e+00,4.920000000000000000e+02,-8.621094811147070658e+00
1.364000000000000101e+00,4.920000000000000000e+02,-8.538625770229499423e+00
1.364999999999999991e+00,4.920000000000000000e+02,-8.535953260633808881e+00
1.366000000000000103e+00,4.940000000000000000e+02,-8.607713825592707479e+00
1.366999999999999993e+00,4.970000000000000000e+02,-8.745937097660545945e+00
1.368000000000000105e+00,4.980000000000000000e+02,-8.940598658537329158e+00
1.368999999999999995e+00,4.990000000000000000e+02,-9.180202864842460286e+00
1.370000000000000107e+00,4.990000000000000000e+02,-9.452369107160370376e+00
1.370999999999999996e+00,4.980000000000000000e+02,-9.744398762126932567e+00
1.372000000000000108e+00,4.970000000000000000e+02,-1.004380431367729543e+01
1.372999999999999998e+00,4.990000000000000000e+02,-1.033878633131988600e+01
1.374000000000000110e+00,5.020000000000000000e+02,-1.061864786498301605e+01
1.375000000000000000e+00,5.010000000000000000e+02,-1.087413912729289933e+01
1.375999999999999890e+00,4.970000000000000000e+02,-1.109772798678492656e+01
1.377000000000000002e+00,4.950000000000000000e+02,-1.128379380580784641e+01
1.377999999999999892e+00,4.960000000000000000e+02,-1.142874363614441968e+01
1.379000000000000004e+00,4.970000000000000000e+02,-1.153105091178072783e+01
1.379999999999999893e+00,4.960000000000000000e+02,-1.159121776320014874e+01
1.381000000000000005e+00,4.940000000000000000e+02,-1.161166313099790770e+01
1.381999999999999895e+00,4.920000000000000000e+02,-1.159654015481176970e+01
1.383000000000000007e+00,4.920000000000000000e+02,-1.155148797271088590e+01
1.383999999999999897e+00,4.940000000000000000e+02,-1.148332512391821858e+01
1.385000000000000009e+00,4.940000000000000000e+02,-1.139969415444207534e+01
1.385999999999999899e+00,4.940000000000000000e+02,-1.130866964554751597e+01
1.387000000000000011e+00,4.950000000000000000e+02,-1.121834450960846929e+01
1.387999999999999901e+00,4.920000000000000000e+02,-1.113641176375463893e+01
1.389000000000000012e+00,4.910000000000000000e+02,-1.106976080976023269e+01
1.389999999999999902e+00,4.930000000000000000e+02,-1.102410823551732300e+01
1.391000000000000014e+00,5.000000000000000000e+02,-1.100368306506083904e+01
1.391999999999999904e+00,5.040000000000000000e+02,-1.101098504699889347e+01
1.393000000000000016e+00,5.030000000000000000e+02,-1.104663190883042390e+01
1.393999999999999906e+00,5.010000000000000000e+02,-1.110930755528551650e+01
1.395000000000000018e+00,4.980000000000000000e+02,-1.119581811242362512e+01
1.395999999999999908e+00,4.970000000000000000e+02,-1.130125679158005880e+01
1.397000000000000020e+00,4.970000000000000000e+02,-1.141927214162274851e+01
1.397999999999999909e+00,4.960000000000000000e+02,-1.154242781548954966e+01
1.399000000000000021e+00,4.950000000000000000e+02,-1.166263596883587894e+01
1.399999999999999911e+00,4.930000000000000000e+02,-1.177164129420053484e+01
1.401000000000000023e+00,4.930000000000000000e+02,-1.186152887918212784e+01
1.401999999999999913e+00,4.930000000000000000e+02,-1.192522687662638958e+01
1.403000000000000025e+00,4.930000000000000000e+02,-1.195697458358144694e+01
1.403999999999999915e+00,4.920000000000000000e+02,-1.195272800013425218e+01
1.405000000000000027e+00,4.910000000000000000e+02,-1.191047819126036345e+01
1.405999999999999917e+00,4.900000000000000000e+02,-1.183046257965441228e+01
1.407000000000000028e+00,4.900000000000000000e+02,-1.171525531343644921e+01
1.407999999999999918e+00,4.890000000000000000e+02,-1.156972965205897452e+01
1.409000000000000030e+00,4.910000000000000000e+02,-1.140089242241132794e+01
1.409999999999999920e+00,4.980000000000000000e+02,-1.121759753770633772e+01
1.411000000000000032e+00,5.020000000000000000e+02,-1.103015190727482242e+01
1.411999999999999922e+00,5.050000000000000000e+02,-1.084983243754438575e+01
1.413000000000000034e+00,5.060000000000000000e+02,-1.068833698177753888e+01
1.413999999999999924e+00,5.070000000000000000e+02,-1.055719490834707486e+01
1.415000000000000036e+00,5.030000000000000000e+02,-1.046716441363807704e+01
1.415999999999999925e+00,4.970000000000000000e+02,-1.042764389707463835e+01
1.417000000000000037e+00,4.920000000000000000e+02,-1.044612380441411581e+01
1.417999999999999927e+00,4.890000000000000000e+02,-1.052770352640740370e+01
1.419000000000000039e+00,4.860000000000000000e+02,-1.067469540242906412e+01
1.419999999999999929e+00,4.870000000000000000e+02,-1.088633477417819329e+01
1.421000000000000041e+00,4.880000000000000000e+02,-1.115861145776695729e+01
1.421999999999999931e+00,4.890000000000000000e+02,-1.148423398935724649e+01
1.423000000000000043e+00,4.920000000000000000e+02,-1.185273354221459741e+01
1.423999999999999932e+00,4.970000000000000000e+02,-1.225070948952065919e+01
1.425000000000000044e+00,5.000000000000000000e+02,-1.266221319853501726e+01
1.425999999999999934e+00,5.010000000000000000e+02,-1.306926084951704858e+01
1.427000000000000046e+00,5.030000000000000000e+02,-1.345246002934703711e+01
1.427999999999999936e+00,5.060000000000000000e+02,-1.379172881184610766e+01
1.429000000000000048e+00,5.040000000000000000e+02,-1.406708036039628418e+01
1.429999999999999938e+00,4.980000000000000000e+02,-1.425944120231463152e+01
1.431000000000000050e+00,4.900000000000000000e+02,-1.435146768512257331e+01
1.431999999999999940e+00,4.850000000000000000e+02,-1.432832315980754778e+01
1.433000000000000052e+00,4.800000000000000000e+02,-1.417837848316322358e+01
1.433999999999999941e+00,4.810000000000000000e+02,-1.389380068418885550e+01
1.435000000000000053e+00,4.840000000000000000e+02,-1.347099910955670765e+01
1.435999999999999943e+00,4.880000000000000000e+02,-1.291090486244637781e+01
1.437000000000000055e+00,4.920000000000000000e+02,-1.221906749963864769e+01
1.437999999999999945e+00,4.960000000000000000e+02,-1.140556221904916256e+01
1.439000000000000057e+00,4.990000000000000000e+02,-1.048471051544771093e+01
1.439999999999999947e+00,5.000000000000000000e+02,-9.474626828118276833e+00
1.441000000000000059e+00,5.000000000000000000e+02,-8.396612400182062785e+00
1.441999999999999948e+00,5.000000000000000000e+02,-7.274424852445566358e+00
1.443000000000000060e+00,5.030000000000000000e+02,-6.133457416787490679e+00
1.443999999999999950e+00,5.060000000000000000e+02,-4.999865110828381809e+00
1.445000000000000062e+00,5.070000000000000000e+02,-3.899676276035797695e+00
1.445999999999999952e+00,5.060000000000000000e+02,-2.857926919823952971e+00
1.447000000000000064e+00,5.060000000000000000e+02,-1.897852414955896405e+00
1.447999999999999954e+00,5.040000000000000000e+02,-1.040166641525044122e+00
1.449000000000000066e+00,5.040000000000000000e+02,-3.024530027279691002e-01
1.449999999999999956e+00,5.030000000000000000e+02,3.013146686591906542e-01
1.451000000000000068e+00,5.040000000000000000e+02,7.611100485877354549e-01
1.451999999999999957e+00,5.070000000000000000e+02,1.071046539954247478e+00
1.453000000000000069e+00,5.090000000000000000e+02,1.229425512230608364e+00
1.453999999999999959e+00,5.110000000000000000e+02,1.238647937694154599e+00
1.455000000000000071e+00,5.110000000000000000e+02,1.105001546078345775e+00
1.455999999999999961e+00,5.100000000000000000e+02,8.383393293409968638e-01
1.457000000000000073e+00,5.070000000000000000e+02,4.516678141366501364e-01
1.457999999999999963e+00,5.050000000000000000e+02,-3.933504530034952901e-02
1.459000000000000075e+00,5.040000000000000000e+02,-6.168521840862410954e-01
1.459999999999999964e+00,5.030000000000000000e+02,-1.261490492658670748e+00
1.461000000000000076e+00,5.010000000000000000e+02,-1.952856755832057978e+00
1.461999999999999966e+00,5.020000000000000000e+02,-2.670130844829672778e+00
1.463000000000000078e+00,5.000000000000000000e+02,-3.392623218264220419e+00
1.463999999999999968e+00,5.000000000000000000e+02,-4.100306602122864241e+00
1.465000000000000080e+00,5.010000000000000000e+02,-4.774314378134532966e+00
1.465999999999999970e+00,5.010000000000000000e+02,-5.397400437261841155e+00
1.467000000000000082e+00,5.030000000000000000e+02,-5.954356817859842721e+00
1.467999999999999972e+00,5.040000000000000000e+02,-6.432386186903569225e+00
1.469000000000000083e+00,5.030000000000000000e+02,-6.821426075940967060e+00
1.469999999999999973e+00,4.990000000000000000e+02,-7.114420803684583738e+00
1.471000000000000085e+00,4.990000000000000000e+02,-7.307535376797546611e+00
1.471999999999999975e+00,5.000000000000000000e+02,-7.400303644037571793e+00
1.473000000000000087e+00,5.000000000000000000e+02,-7.395700962047389915e+00
1.473999999999999977e+00,5.010000000000000000e+02,-7.300130046386505533e+00
1.475000000000000089e+00,5.010000000000000000e+02,-7.123307974703974033e+00
1.475999999999999979e+00,4.990000000000000000e+02,-6.878042888925854470e+00
1.477000000000000091e+00,4.980000000000000000e+02,-6.579891129576056485e+00
1.477999999999999980e+00,4.970000000000000000e+02,-6.246689510126428146e+00
1.479000000000000092e+00,4.970000000000000000e+02,-5.897963208325598394e+00
1.479999999999999982e+00,4.970000000000000000e+02,-5.554217119063581620e+00
1.481000000000000094e+00,4.960000000000000000e+02,-5.236127075829261734e+00
1.481999999999999984e+00,4.960000000000000000e+02,-4.963656508400990930e+00
1.483000000000000096e+00,4.980000000000000000e+02,-4.755133109965927751e+00
1.483999999999999986e+00,5.000000000000000000e+02,-4.626328085342886531e+00
1.485000000000000098e+00,5.020000000000000000e+02,-4.589586666323828723e+00
1.485999999999999988e+00,5.020000000000000000e+02,-4.653061992590485474e+00
1.487000000000000099e+00,5.020000000000000000e+02,-4.820104495582725690e+00
1.487999999999999989e+00,5.050000000000000000e+02,-5.088855143127500646e+00
1.489000000000000101e+00,5.070000000000000000e+02,-5.452083151588966281e+00
1.489999999999999991e+00,5.080000000000000000e+02,-5.897297230932613488e+00
1.491000000000000103e+00,5.110000000000000000e+02,-6.407144624691203383e+00
1.491999999999999993e+00,5.080000000000000000e+02,-6.960094997118475568e+00
1.493000000000000105e+00,5.030000000000000000e+02,-7.531387734509460863e+00
1.493999999999999995e+00,4.990000000000000000e+02,-8.094202790301157080e+00
1.495000000000000107e+00,4.960000000000000000e+02,-8.620998225492188638e+00
1.495999999999999996e+00,4.920000000000000000e+02,-9.084943457733100303e+00
1.497000000000000108e+00,4.900000000000000000e+02,-9.461367163285936854e+00
1.497999999999999998e+00,4.900000000000000000e+02,-9.729133742674953567e+00
1.499000000000000110e+00,4.880000000000000000e+02,-9.871862877398575264e+00
1.500000000000000000e+00,4.890000000000000000e+02,-9.878913172447459701e+00
1.500999999999999890e+00,4.920000000000000000e+02,-9.746062959647900925e+00
1.502000000000000002e+00,4.940000000000000000e+02,-9.475838364574254769e+00
1.502999999999999892e+00,4.960000000000000000e+02,-9.077459668282608973e+00
1.504000000000000004e+00,4.990000000000000000e+02,-8.566400472753050721e+00
1.504999999999999893e+00,5.000000000000000000e+02,-7.963578647749122830e+00
1.506000000000000005e+00,4.980000000000000000e+02,-7.294221845006185312e+00
1.506999999999999895e+00,4.990000000000000000e+02,-6.586471884627185247e+00
1.508000000000000007e+00,4.980000000000000000e+02,-5.869810056042014779e+00
1.508999999999999897e+00,4.990000000000000000e+02,-5.173398077971576470e+00
1.510000000000000009e+00,5.020000000000000000e+02,-4.524436197920752356e+00
1.510999999999999899e+00,5.040000000000000000e+02,-3.946640138038628898e+00
1.512000000000000011e+00,5.040000000000000000e+02,-3.458932192920150861e+00
1.512999999999999901e+00,5.050000000000000000e+02,-3.074429077015389034e+00
1.514000000000000012e+00,5.090000000000000000e+02,-2.799790850032369161e+00
1.514999999999999902e+00,5.120000000000000000e+02,-2.634972546292620343e+00
1.516000000000000014e+00,5.120000000000000000e+02,-2.573394442707335195e+00
1.516999999999999904e+00,5.100000000000000000e+02,-2.602519890726545437e+00
1.518000000000000016e+00,5.080000000000000000e+02,-2.704803100101856650e+00
1.518999999999999906e+00,5.060000000000000000e+02,-2.858944985947879491e+00
1.520000000000000018e+00,5.020000000000000000e+02,-3.041374840584500028e+00
1.520999999999999908e+00,4.990000000000000000e+02,-3.227860589885725329e+00
1.522000000000000020e+00,4.970000000000000000e+02,-3.395141813504799710e+00
1.522999999999999909e+00,4.980000000000000000e+02,-3.522478190780118812e+00
1.524000000000000021e+00,4.970000000000000000e+02,-3.593011735682672292e+00
1.524999999999999911e+00,4.960000000000000000e+02,-3.594853757620366075e+00
1.526000000000000023e+00,4.950000000000000000e+02,-3.521826098059116283e+00
1.526999999999999913e+00,4.940000000000000000e+02,-3.373809583386307764e+00
1.528000000000000025e+00,4.970000000000000000e+02,-3.156679197014498506e+00
1.528999999999999915e+00,4.980000000000000000e+02,-2.881833373793648345e+00
1.530000000000000027e+00,4.980000000000000000e+02,-2.565352124584955540e+00
1.530999999999999917e+00,5.000000000000000000e+02,-2.226843516641825005e+00
1.532000000000000028e+00,5.050000000000000000e+02,-1.888058652508580293e+00
1.532999999999999918e+00,5.090000000000000000e+02,-1.571370294942326273e+00
1.534000000000000030e+00,5.120000000000000000e+02,-1.298218670584176504e+00
1.534999999999999920e+00,5.160000000000000000e+02,-1.087629219617476606e+00
1.536000000000000032e+00,5.140000000000000000e+02,-9.549011235804447661e-01
1.536999999999999922e+00,5.110000000000000000e+02,-9.105528295806034622e-01
1.538000000000000034e+00,5.100000000000000000e+02,-9.595924555596399008e-01
1.538999999999999924e+00,5.100000000000000000e+02,-1.101158259429023012e+00
1.540000000000000036e+00,5.100000000000000000e+02,-1.328548923905748413e+00
1.540999999999999925e+00,5.070000000000000000e+02,-1.629637051097050815e+00
1.542000000000000037e+00,5.040000000000000000e+02,-1.987633808305649952e+00
1.542999999999999927e+00,5.000000000000000000e+02,-2.382149848376151624e+00
1.544000000000000039e+00,4.980000000000000000e+02,-2.790478949631325811e+00
1.544999999999999929e+00,4.980000000000000000e+02,-3.189017462836215788e+00
1.546000000000000041e+00,4.970000000000000000e+02,-3.554725397728340841e+00
1.546999999999999931e+00,4.960000000000000000e+02,-3.866534169925838427e+00
1.548000000000000043e+00,4.970000000000000000e+02,-4.106611549491556268e+00
1.548999999999999932e+00,4.960000000000000000e+02,-4.261405665039332824e+00
1.550000000000000044e+00,4.970000000000000000e+02,-4.322406104392483073e+00
1.550999999999999934e+00,4.980000000000000000e+02,-4.286579994836080765e+00
1.552000000000000046e+00,4.990000000000000000e+02,-4.156463014661375688e+00
1.552999999999999936e+00,5.000000000000000000e+02,-3.939908049861485573e+00
1.554000000000000048e+00,5.020000000000000000e+02,-3.649516134474877660e+00
1.554999999999999938e+00,5.040000000000000000e+02,-3.301793974070587279e+00
1.556000000000000050e+00,5.050000000000000000e+02,-2.916098520132346383e+00
1.556999999999999940e+00,5.070000000000000000e+02,-2.513440782327637901e+00
1.558000000000000052e+00,5.080000000000000000e+02,-2.115227707359883080e+00
1.558999999999999941e+00,5.100000000000000000e+02,-1.742022247946439117e+00
1.560000000000000053e+00,5.090000000000000000e+02,-1.412397789455053898e+00
1.560999999999999943e+00,5.080000000000000000e+02,-1.141954337698663613e+00
1.562000000000000055e+00,5.060000000000000000e+02,-9.425510476081354616e-01
1.562999999999999945e+00,5.060000000000000000e+02,-8.217937819560143797e-01
1.564000000000000057e+00,5.070000000000000000e+02,-7.827985943102626631e-01
1.564999999999999947e+00,5.070000000000000000e+02,-8.242335782421594814e-01
1.566000000000000059e+00,5.040000000000000000e+02,-9.406236604659873324e-01
1.566999999999999948e+00,5.020000000000000000e+02,-1.122886797572268724e+00
1.568000000000000060e+00,5.020000000000000000e+02,-1.359056661072020056e+00
1.568999999999999950e+00,5.020000000000000000e+02,-1.635137036871887162e+00
1.570000000000000062e+00,5.020000000000000000e+02,-1.936027328634509992e+00
1.570999999999999952e+00,5.010000000000000000e+02,-2.246456953432818260e+00
1.572000000000000064e+00,4.990000000000000000e+02,-2.551868971422306842e+00
1.572999999999999954e+00,4.980000000000000000e+02,-2.839199640477610753e+00
1.574000000000000066e+00,4.970000000000000000e+02,-3.097510132921100112e+00
1.574999999999999956e+00,5.000000000000000000e+02,-3.318438607596498890e+00
1.576000000000000068e+00,5.040000000000000000e+02,-3.496454285292732500e+00
1.576999999999999957e+00,5.060000000000000000e+02,-3.628909163141686989e+00
1.578000000000000069e+00,5.050000000000000000e+02,-3.715896574131583474e+00
1.578999999999999959e+00,5.040000000000000000e+02,-3.759938082065438003e+00
1.580000000000000071e+00,5.030000000000000000e+02,-3.765530466266343801e+00
1.580999999999999961e+00,5.040000000000000000e+02,-3.738592236008922765e+00
1.582000000000000073e+00,5.030000000000000000e+02,-3.685853863953000076e+00
1.582999999999999963e+00,5.020000000000000000e+02,-3.614237590326110361e+00
1.584000000000000075e+00,5.000000000000000000e+02,-3.530271275003054043e+00
1.584999999999999964e+00,4.990000000000000000e+02,-3.439576593149934247e+00
1.586000000000000076e+00,5.020000000000000000e+02,-3.346465263729893724e+00
