time_s,ecg_integrated
0.0,5133242.154870605
0.001,5151789.122606822
0.002,5167283.40234504
0.003,5179963.971418963
0.004,5190099.215644306
0.005,5197977.829893911
0.006,5203899.929963061
0.007,5208168.610943767
0.008,5211082.1567043215
0.008999999999999998,5212927.07047119
0.01,5213972.059268844
0.011,5214463.0664184475
0.012,5214619.407710742
0.013,5214631.029449292
0.014,5214656.8713870235
0.015,5214824.285586744
0.016,5215229.43419508
0.017,5215938.565619814
0.018,5216990.050048181
0.019,5218397.041856623
0.02,5220150.628278594
0.021,5222223.320584178
0.022,5224572.745698224
0.023,5227145.402223467
0.024,5229880.354712615
0.025,5232712.753134575
0.026,5235577.080131863
0.027,5238410.046163615
0.028,5241153.07125923
0.029,5243754.311176613
0.03,5246170.204609682
0.031,5248366.536123535
0.032,5250319.026186044
0.033,5252013.474570394
0.034,5253445.496175431
0.035,5254619.898698371
0.036,5255549.759444125
0.037,5256255.263809972
0.038,5256762.370676439
0.039,5257101.370180509
0.04,5257305.397333592
0.041,5257408.96092252
0.042,5257446.541393784
0.043,5257451.304300237
0.044,5257453.967737549
0.045,5257481.853374469
0.046,5257558.141541299
0.047,5257701.341723432
0.048,5257924.981023621
0.049,5258237.50498516
0.05,5258642.377844037
0.051,5259138.3629907435
0.052,5259719.9593115365
0.053,5260377.965233695
0.054,5261100.139759047
0.055,5261871.928526147
0.056,5262677.222941471
0.057,5263499.121572255
0.058,5264320.665173116
0.059,5265125.519773865
0.06,5265898.58601562
0.061,5266626.517202815
0.062,5267298.133150969
0.063,5267904.721666529
0.064,5268440.224216277
0.065,5268901.306863298
0.066,5269287.321716664
0.067,5269600.167837035
0.068,5269844.063659732
0.069,5270025.245466938
0.07,5270151.608215546
0.071,5270232.306088632
0.072,5270277.33049474
0.07299999999999998,5270297.082922885
0.07399999999999998,5270301.959126997
0.07499999999999998,5270301.959634663
0.076,5270306.3396394495
0.077,5270323.309042674
0.078,5270359.790864752
0.079,5270421.243556269
0.08,5270511.550011131
0.081,5270632.973420096
0.082,5270786.177595529
0.083,5270970.307129009
0.084,5271183.12078074
0.085,5271421.169896588
0.08599999999999998,5271680.012442015
0.08699999999999998,5271954.452452801
0.08799999999999998,5272238.794334523
0.08899999999999998,5272527.101485357
0.08999999999999998,5272813.449144681
0.091,5273092.162145802
0.092,5273358.029327016
0.09300000000000001,5273606.487675547
0.094,5273833.770782243
0.095,5274037.017807065
0.096,5274214.340831391
0.097,5274364.850140048
0.098,5274488.638574362
0.099,5274586.727574176
0.1,5274660.978835535
0.101,5213183.004555467
0.102,5151686.942455044
0.103,5090176.381512898
0.104,5030878.903415336
0.105,4974258.818254309
0.106,4920755.811907066
0.107,4870774.4479288105
0.108,4824673.433836806
0.109,4782754.88704329
0.11,4745253.861224298
0.111,4712328.414544161
0.112,4684050.515638326
0.113,4660398.090407285
0.114,4641248.511432681
0.115,4626373.821315434
0.116,4615437.9608137235
0.117,4607996.241974692
0.118,4603497.265492483
0.119,4601287.430645609
0.12,4600618.126126911
0.121,4600655.6220495
0.122,4600493.608967833
0.123,4599168.250853612
0.124,4595675.537911701
0.125,4588990.644491513
0.126,4578088.919925357
0.127,4561968.068793398
0.128,4539671.014759333
0.129,4510308.891506248
0.13,4473083.567952203
0.131,4427309.095003152
0.132,4372431.459296693
0.133,4308046.046820554
0.134,4233912.256418219
0.135,4149964.7597730923
0.136,4056320.979506158
0.137,3953284.448807398
0.138,3841343.822124101
0.139,3721167.423791537
0.14,3593593.346519185
0.141,3459615.2403337066
0.142,3320364.060659181
0.143,3177086.1673156046
0.144,3031118.280037976
0.145,2883859.896601889
0.146,2736743.863134918
0.147,2591205.849599348
0.148,2448653.5243374337
0.149,2310436.2383449953
0.15,2177816.021803564
0.151,2051940.6624601397
0.152,1933819.5786822606
0.153,1824303.121261376
0.154,1724065.839885805
0.155,1633594.1359189725
0.156,1553178.5965023648
0.157,1482911.1702525083
0.158,1422687.2063687176
0.159,1372212.2413150088
0.16,1331013.2847933276
0.161,1298454.2336440578
0.162,1273754.932358931
0.163,1256013.3053190447
0.164,1244229.9113062217
0.165,1237334.2172143788
0.166,1234211.856401347
0.167,1233732.128201044
0.168,1234775.0084376996
0.169,1236256.975306318
0.17,1237155.009005895
0.171,1236528.1947549428
0.172,1233536.4445224516
0.173,1227455.9498414337
0.174,1217691.0830552028
0.175,1203782.573768768
0.176,1185411.8976226915
0.177,1162401.922368213
0.178,1134713.958411849
0.179,1102441.4546398397
0.18,1065800.6629459641
0.181,1025118.6644454832
0.182,980819.2053398814
0.183,933406.829805804
0.184,883449.8206555056
0.185,831562.4659169737
0.186,778387.161466658
0.187,724576.837426013
0.188,670778.160611484
0.189,617615.9186444081
0.19,565678.9353795812
0.191,515507.8042774165
0.192,467584.6585056567
0.193,422325.1262179184
0.194,380072.54887357005
0.195,341094.471773661
0.196,305581.351148595
0.197,273647.362871723
0.198,245333.14564351033
0.199,220610.2674455233
0.2,199387.16903320307
0.201,181516.31272389984
0.202,166802.24891978
0.203,155010.30655087036
0.204,145875.61651043658
0.205,139112.18850452118
0.206,134421.78065096092
0.207,131502.32656340607
0.208,130055.71533238748
0.209,129794.75447133183
0.21,130449.18319357505
0.211,131770.64199480816
0.212,133536.54314899573
0.213,135552.8241846405
0.214,137655.60161022996
0.215,139711.77416557094
0.216,141618.65291775193
0.217,143302.71900428814
0.218,144717.62834572452
0.219,145841.5959867865
0.22,146674.30084171434
0.221,147233.4546485359
0.222,147551.17716566924
0.223,147670.31349330576
0.224,147640.81940317302
0.225,147516.32733065763
0.226,147350.98989912958
0.227,147196.68021654437
0.228,147100.60942486775
0.229,147103.40279234757
0.23,147237.65667712793
0.231,147526.98056048324
0.232,147985.51157819445
0.233,148617.8740133281
0.234,149419.54340358856
0.235,150377.56451431953
0.236,151471.56458813636
0.237,152674.99806167194
0.238,153956.5563055637
0.239,155281.67577909146
0.24,156614.08010632693
0.241,157917.29572559203
0.242,159156.0866394253
0.243,160297.7610642684
0.244,161313.31109267834
0.245,162178.35547317716
0.246,162873.86492579113
0.247,163386.65870318495
0.248,163709.67006283838
0.249,163841.98665483244
0.25,163788.67931426805
0.251,163560.43918569243
0.252,163173.04835754342
0.253,162646.71315688378
0.254,162005.29190825296
0.255,161275.45030303896
0.256,160485.77760942356
0.257,159665.89586912456
0.258,158845.59210076742
0.259,158054.00051251298
0.26,157318.857990077
0.261,156665.8518545284
0.262,156118.0742666331
0.263,155695.59287888024
0.264,155415.14258267966
0.265,155289.93863302848
0.266,155329.60720433373
0.267,155540.22566495012
0.268,155924.4616551378
0.269,156481.79748743525
0.27,157208.82450601074
0.271,158099.59086103333
0.272,159145.98566775135
0.273,160338.1426956763
0.274,161664.84751728288
0.275,163113.93336584765
0.276,164672.6527217636
0.277,166328.01376862684
0.278,168067.07323094222
0.279,169877.17961850276
0.28,171746.16345412718
0.281,173662.47355257347
0.282,175615.26075875072
0.283,177594.41266376752
0.284,179590.5446322917
0.285,181594.9539435348
0.286,183599.54493620238
0.287,185596.73373644697
0.288,187579.34143457835
0.289,189540.48447342694
0.29,191473.47054491861
0.291,193371.70749968028
0.292,195228.63170534582
0.293,197037.66099830696
0.294,198792.17592180418
0.295,200485.5313941007
0.296,202111.0993679996
0.297,203662.34148918965
0.298,205132.90929386573
0.299,206516.76815794143
0.3,207808.3400657813
0.301,209002.65934200457
0.302,210095.53481249232
0.303,211083.71144739847
0.304,211965.02439698088
0.305,212738.5384580492
0.306,213404.66639333218
0.307,213965.2601484156
0.308,214423.66984422287
0.309,214784.76643448815
0.31,215054.92506987092
0.311,215241.9674626503
0.312,215355.062855917
0.313,215404.58852606776
0.314,215401.95204537202
0.315,215359.37876272897
0.316,215289.66908901322
0.317,215205.93116627718
0.318,215121.29533007627
0.319,215048.6174192549
0.32,215000.17843141966
0.321,214987.38825475855
0.322,215020.50122359788
0.323,215108.35104777443
0.324,215258.1122618636
0.325,215475.09474214262
0.326,215762.57706430653
0.327,216121.683545087
0.328,216551.3087513844
0.329,217048.09209962076
0.33,217606.44393630975
0.331,218218.62322038037
0.332,218874.86565136322
0.333,219563.55983789096
0.334,220271.46790997506
0.335,220983.98587650264
0.336,221685.43804431273
0.337,222359.39897198154
0.338,222989.0357513172
0.339,223557.4629095275
0.34,224048.10191735576
0.341,224445.0371803775
0.342,224733.36048399637
0.343,224899.496153966
0.344,224931.49967465957
0.345,224819.32316288628
0.346,224555.0419071859
0.347,224133.03712844918
0.348,223550.13117117502
0.349,222805.67246679866
0.35,221901.56879067147
0.351,220842.2685310035
0.352,219634.69087014452
0.353,218288.1069158646
0.354,216813.97488473414
0.355,215225.7334060852
0.356,213538.55786168622
0.357,211769.08538558937
0.358,209935.11470746843
0.359,208055.28742265474
0.36,206148.75750916553
0.361,204234.85598698875
0.362,202332.75753266053
0.363,200461.15563146307
0.364,198637.95248240296
0.365,196879.96938221547
0.366,195202.68272078226
0.367,193619.99003979887
0.368,192144.0098583716
0.369,190784.91817283083
0.37,189550.8237125357
0.371,188447.68319727143
0.372,187479.25701242496
0.373,186647.10491157437
0.374,185950.62058705452
0.375,185387.10323042952
0.376,184951.86354787732
0.377,184638.36110981985
0.378,184438.3694075571
0.379,184342.16456838997
0.38,184338.73334934845
0.381,184415.99579128448
0.382,184561.03777138537
0.383,184760.34864337338
0.384,185000.05919970034
0.385,185266.1753265218
0.386,185544.80294647094
0.387,185822.36015128074
0.388,186085.77280990788
0.389,186322.65039049624
0.39,186521.43924756307
0.391,186671.5511892605
0.392,186763.46574238432
0.393,186788.80516285045
0.394,186740.38188360486
0.395,186612.21873661314
0.396,186399.54291643153
0.397,186098.75525541304
0.398,185707.3769404698
0.399,185223.97630458817
0.4,184648.0787599208
0.401,183980.06329147748
0.402,183221.04919108987
0.403,182372.77687241184
0.404,181437.48666362025
0.405,180417.79942235313
0.406,179316.6026573684
0.407,178136.9455766685
0.408,176881.94611882506
0.409,175554.71257246766
0.41,174158.281860822
0.411,172695.57597886765
0.412,171169.37743744196
0.413,169582.32391045964
0.414,167936.92161849848
0.415,166235.57633493072
0.416,164480.6402899531
0.417,162674.4726927492
0.418,160819.51111044872
0.419,158918.3505501218
0.42,156973.82679952108
0.421,154989.10040313427
0.422,152967.73758816515
0.423,150913.7845122985
0.424,148831.83137958226
0.425,146727.06325668882
0.426,144605.29480978672
0.427,142472.98665958192
0.428,140337.24160329113
0.429,138205.7795596703
0.43,136086.89073742222
0.431,133989.36718811063
0.432,131922.41356166027
0.433,129895.53851563156
0.434,127918.42881985614
0.435,126000.8087285438
0.436,124152.28764768672
0.437,122382.19949419962
0.438,120699.43741540934
0.439,119112.287707073
0.44,117628.26683213474
0.441,116253.96540124134
0.442,114994.90283304112
0.443,113855.39617379154
0.444,112838.44623068326
0.445,111945.64377264077
0.446,111177.09808905087
0.447,110531.38968507807
0.448,110005.54834695107
0.449,109595.05724717941
0.45,109293.88319326994
0.451,109094.53256874284
0.452,108988.1319856813
0.453,108964.53217589864
0.454,109012.43320364507
0.455,109119.52869528465
0.456,109272.6664572248
0.457,109458.02259713996
0.458,109661.28607767572
0.459,109867.85051678964
0.46,110063.0100032285
0.461,110232.1557161904
0.462,110360.97022031496
0.463,110435.61644490746
0.464,110442.9185429023
0.465,110370.53205302416
0.466,110207.10105006238
0.467,109942.40025519527
0.468,109567.4603831034
0.469,109074.67531780232
0.47,108457.89002787415
0.471,107712.46844796895
0.472,106835.34086176672
0.473,105825.0306175959
0.474,104681.66028801518
0.475,103406.93764616063
0.476,102004.12207260166
0.477,100477.97222560935
0.478,98834.67600450592
0.479,97081.7640100127
0.48,95228.00785752716
0.481,93283.30482959263
0.482,91258.55046323677
0.483,89165.50075720453
0.484,87016.62575431095
0.485,84824.95630609036
0.486,82603.9258614886
0.487,80367.2091393457
0.488,78128.55954658688
0.489,75901.64719105854
0.49,73699.89931041271
0.491,71536.34489690473
0.492,69423.46524289878
0.493,67373.05206369696
0.494,65396.074773375374
0.495,63502.558395929176
0.496,61701.473488438605
0.497,60000.63933536483
0.498,58406.64154362264
0.499,56924.76502689063
0.5,55558.94321485425
0.501,54311.72415892054
0.502,53184.254030676784
0.503,52176.27832341425
0.504,51286.160871028114
0.505,50510.92059342612
0.506,49846.285664438714
0.507,49286.764578702554
0.508,48825.733370077905
0.509,48455.538008291136
0.51,48167.610775544694
0.511,47952.59920412937
0.512,47800.5059433328
0.513,47700.83772324184
0.514,47642.76139874104
0.515,47615.26489364772
0.516,47607.320727096536
0.517,47608.049696525675
0.518,47606.88221825139
0.519,47593.71479161755
0.52,47559.059059537794
0.521,47494.18098971474
0.522,47391.22779892648
0.523,47243.34038858321
0.524,47044.749253290065
0.525,46790.85206427189
0.526,46478.27141387153
0.527,46104.89153231921
0.528,45669.87314872597
0.529,45173.64605869894
0.53,44617.87937389368
0.531,44005.429855975286
0.532,43340.26916977265
0.533,42627.39131815143
0.534,41872.701934170305
0.535,41082.891494159376
0.536,40265.29486836985
0.537,39427.739934160585
0.538,38578.38823145881
0.539,37725.570833692276
0.54,36877.62273313274
0.541,36042.719092827436
0.542,35228.716695060146
0.543,34443.003817590674
0.544,33692.361594861635
0.545,32982.83967512866
0.546,32319.648671323055
0.547,31707.071530598438
0.548,31148.39552391183
0.549,30645.86609312127
0.55,30200.663300621225
0.551,29812.901118001737
0.552,29481.649278574598
0.553,29204.97691686824
0.554,28980.016738988674
0.555,28803.048022945557
0.556,28669.596348387564
0.557,28574.547609967136
0.558,28512.273585345843
0.559,28476.766113351187
0.56,28461.776793697012
0.561,28460.95904864797
0.562,28468.009388722734
0.563,28476.804796804856
0.564,28481.533283985842
0.565,28476.814870760958
0.566,28457.81050228711
0.567,28420.316708819555
0.568,28360.844164053564
0.569,28276.67866641792
0.57,28165.923462790513
0.571,28027.522242119347
0.572,27861.2625398043
0.573,27667.759704612803
0.574,27448.421981072137
0.575,27205.39764498279
0.576,26941.505491813008
0.577,26660.150311738853
0.578,26365.225286033463
0.579,26061.00350296235
0.58,25752.0210133835
0.581,25442.95402341636
0.582,25138.49295081092
0.583,24843.21615043429
0.584,24561.466140480596
0.585,24297.231132994682
0.586,24054.034589062812
0.587,23834.835380228935
0.588,23641.94094380598
0.589,23476.935572154503
0.59,23340.62567713302
0.591,23233.003524391403
0.592,23153.230542853496
0.593,23099.6408888229
0.594,23069.76548920786
0.595,23060.37631328183
0.596,23067.550137295217
0.597,23086.750582323544
0.598,23112.926735020465
0.599,23140.626216039804
0.6,23164.120154602562
0.601,23177.537172619017
0.602,23175.003189903866
0.603,23150.783644221436
0.604,23099.42458549626
0.605,23015.889059862384
0.606,22895.68525126215
0.607,22734.98299828882
0.608,22530.715551181816
0.609,22280.66377450264
0.61,21983.520428065847
0.611,21638.932662129704
0.612,21247.52142975828
0.613,20810.87713421388
0.614,20331.531474695483
0.615,19812.906110629658
0.616,19259.239413045794
0.617,18675.493191088113
0.618,18067.24185267035
0.619,17440.54696209532
0.62,16801.820577456183
0.621,16157.681072642925
0.622,15514.805361699093
0.623,14879.78153952519
0.624,14258.965928745632
0.625,13658.348378185055
0.626,13083.429398094704
0.627,12539.112349180543
0.628,12029.613438373146
0.629,11558.391729108567
0.63,11128.100765288642
0.631,10740.56275572648
0.632,10396.765590761659
0.633,10096.88228644452
0.634,9840.311795667465
0.635,9625.739510381516
0.636,9451.215223491105
0.637,9314.24583984984
0.638,9211.899736900465
0.639,9140.91938764294
0.64,9097.838679020731
0.641,9079.101291082638
0.642,9081.1765463208
0.643,9100.669290737753
0.644,9134.420621431864
0.645,9179.596619760965
0.646,9233.762671802691
0.647,9294.941444136917
0.648,9361.653116654514
0.649,9432.937037918822
0.65,9508.354544985088
0.651,9587.973261148461
0.652,9672.333735229106
0.653,9762.399799339177
0.654,9859.49448489012
0.655,9965.223737157115
0.656,10081.390497522501
0.657,10209.90197246848
0.658,10352.673074844297
0.659,10511.529103717838
0.66,10688.110724435704
0.661,10883.784222794344
0.662,11099.559840940821
0.663,11336.020764051773
0.664,11593.265023800752
0.665,11870.862226194546
0.666,12167.826607588575
0.667,12482.6074843163
0.668,12813.097699532775
0.669,13156.660196868434
0.67,13510.172375506942
0.671,13870.08741620952
0.672,14232.511322956296
0.673,14593.294009917841
0.674,14948.132387220054
0.675,15292.683069271417
0.676,15622.68205306853
0.677,15934.068496529406
0.678,16223.109572976588
0.679,16486.523290626217
0.68,16721.596147310356
0.681,16926.29254139252
0.682,17099.35297941472
0.683,17240.378307702133
0.684,17349.897446023453
0.685,17429.41641238579
0.686,17481.44679395201
0.687,17509.512233676403
0.688,17518.131958341583
0.689,17512.78086310822
0.69,17499.826181482178
0.691,17486.441298037123
0.692,17480.497793939103
0.693,17490.437341419794
0.694,17525.125571575612
0.695,17593.690518757292
0.696,17705.348682858956
0.697,17869.222136703873
0.698,18094.15042856924
0.699,18388.501279497243
0.7,18759.98424218313
0.701,19215.471564971875
0.702,19760.830484486934
0.703,20400.771049218976
0.704,21138.71335179374
0.705,21976.677719877924
0.706,22915.200987754244
0.707,23953.281448380316
0.708,25088.3544781109
0.709,26316.300145073266
0.71,27631.483372191247
0.711,29026.82644446961
0.712,30493.912847105115
0.713,32023.12061785703
0.714,33603.782616715485
0.715,35224.37038164506
0.716,36872.69757424338
0.717,38536.13844570275
0.718,40201.85629179064
0.719,41857.03653326873
0.72,43489.11886938167
0.7209999999999999,45086.02291675234
0.7219999999999999,46636.36186951388
0.7229999999999999,48129.63899900214
0.7239999999999999,49556.42224774798
0.7249999999999999,50908.49275247416
0.7259999999999999,52178.96383884892
0.7269999999999999,53362.36784671507
0.728,54454.709044141724
0.729,55453.48184434497
0.73,56357.65452128079
0.731,57167.61959611089
0.732,57885.113006044194
0.733,58513.10503832677
0.734,59055.66678635765
0.735,59517.81653596953
0.736,59905.3509956713
0.737,60224.666627702325
0.738,60482.57650514166
0.739,60686.128108060526
0.74,60842.42727909637
0.741,60958.47319257128
0.742,61041.00866439683
0.743,61096.389461543
0.744,61130.47548434988
0.745,61148.545821768945
0.746,61155.238751978766
0.747,61154.51681479724
0.748,61149.65615559552
0.749,61143.25847097541
0.75,61137.283111144054
0.751,61133.09624696257
0.752,61131.53352128907
0.753,61132.972299287554
0.754,61137.40952894472
0.755,61144.54133143211
0.756,61153.84076278425
0.757,61164.63071595219
0.758,61176.149648369115
0.759,61187.60869796323
0.76,61198.239754267976
0.761,61207.335136940266
0.762,61214.28065073184
0.763,61218.5848776365
0.764,61219.90857415002
0.765,61218.09890390574
0.766,61213.23389442229
0.767,61205.6829064033
0.768,61196.18899672102
0.769,61185.978802869126
0.77,61176.9049498384
0.771,61171.62496626059
0.772,61173.81929683751
0.773,61188.44923065375
0.774,61222.053465350255
0.775,61283.07964804163
0.776,61382.24464482963
0.777,61532.91457694291
0.778,61751.492921848585
0.779,62057.802322395306
0.78,62475.44329473288
0.781,63032.1108997638
0.782,63759.84876738377
0.783,64695.21875844611
0.784,65879.36412889783
0.785,67357.94442388612
0.786,69180.92155953086
0.787,71402.17870745777
0.788,74078.95671712399
0.789,77271.09689884797
0.79,81040.08401895403
0.791,85447.8892651485
0.792,90555.61962621941
0.793,96421.98745950033
0.794,103101.62182014147
0.795,110643.25119170084
0.796,119087.79535051496
0.797,128466.41195293625
0.798,138798.55077052722
0.799,150090.0750160538
0.8,162331.51459998172
0.801,175496.52013483943
0.802,189540.58877940918
0.803,204400.1333274935
0.804,219991.96407426178
0.805,236213.24876103748
0.806,252942.0091881661
0.807,270038.2038433471
0.808,287345.43414253293
0.809,304693.2977267959
0.81,321900.3958922578
0.811,338777.98393051594
0.812,355134.23329130746
0.8129999999999998,370779.0534995091
0.8139999999999998,385529.4001955151
0.8149999999999998,399214.9741211216
0.8159999999999998,411684.19499833323
0.8169999999999998,422810.3147430591
0.8179999999999998,432497.5170394172
0.8189999999999998,440686.8356955058
0.8199999999999998,447361.71311006474
0.8209999999999998,452553.01325948234
0.8219999999999998,456343.3014556255
0.8229999999999998,458870.20622350584
0.8239999999999998,460328.6873836351
0.8249999999999998,460972.04903811
0.8259999999999998,461111.55673466355
0.8269999999999998,461114.544527149
0.8279999999999998,461400.9296854314
0.8289999999999998,462438.08995956153
0.8299999999999998,464734.0999036267
0.8309999999999998,468829.3679533201
0.8319999999999999,475286.7636864627
0.8329999999999999,484680.37377199135
0.8339999999999999,497583.0741847675
0.8349999999999999,514553.15387561376
0.8359999999999999,536120.2697092615
0.8369999999999999,562771.0525563676
0.8379999999999999,594934.7184023152
0.8389999999999999,632969.0647313874
0.8399999999999999,677147.2498910574
0.8409999999999999,727645.7604353226
0.8419999999999999,784533.9676037864
0.8429999999999999,847765.658396158
0.8439999999999999,917172.8987413826
0.8449999999999999,992462.5459752078
0.8459999999999999,1073215.6755445276
0.8469999999999999,1158890.123262053
0.8479999999999999,1248826.270655598
0.8489999999999999,1342256.1185072998
0.8499999999999999,1438315.6044563157
0.8509999999999999,1536060.0267913807
0.8519999999999999,1634482.3408389085
0.853,1732533.9994546287
0.854,1829147.9180202023
0.855,1923263.0600857325
0.856,2013850.0654316433
0.857,2099937.280785697
0.858,2180636.5074427323
0.859,2255167.7519907025
0.86,2322882.258211157
0.861,2383283.1114311176
0.862,2436042.741975855
0.863,2481016.71203993
0.864,2518253.2496483317
0.865,2547998.0930429
0.866,2570694.326652525
0.867,2586977.022895767
0.868,2597662.648841558
0.869,2603733.3490389925
0.87,2606316.3709612964
0.871,2606659.0524960193
0.872,2606099.936588412
0.873,2606036.7113588103
0.874,2607891.7898296206
0.875,2613076.4372841534
0.876,2622954.422309965
0.877,2638806.206603676
0.878,2661794.6964142225
0.879,2692933.5539126503
0.88,2733059.009771094
0.881,2782806.0299589243
0.882,2842589.5725339144
0.883,2912591.5274418304
0.884,2992753.768461054
0.885,3082777.566710849
0.886,3182129.425512392
0.887,3290053.203217445
0.888,3405588.2004609397
0.889,3527592.707651296
0.89,3654772.3435728233
0.891,3785712.3723707544
0.892,3918913.0687808986
0.893,4052827.114153925
0.894,4185897.95140654
0.895,4316598.007103849
0.896,4443465.703784313
0.897,4565140.234478895
0.898,4680393.152053851
0.899,4788155.935333381
0.9,4887542.827794004
0.901,4977868.3980513085
0.902,5058659.438892119
0.903,5129660.9973954605
0.904,5190836.506757172
0.905,5242362.164899548
0.906,5284615.870224404
0.907,5318161.175862692
0.908,5343726.856050117
0.909,5362182.788169554
0.91,5374512.938787276
0.911,5381786.299858375
0.912,5385126.651344079
0.913,5385682.028882333
0.914,5384594.750903811
0.915,5382972.810539045
0.916,5381863.366396642
0.917,5382228.975989226
0.918,5384927.109890776
0.919,5390693.367594814
0.92,5400128.691647737
0.921,5413690.749121658
0.922,5431689.522921087
0.923,5454287.033604264
0.924,5481500.998811581
0.925,5513212.135058742
0.926,5549174.718087295
0.927,5589029.94512356
0.928,5632321.5866400115
0.929,5678513.377301566
0.93,5727007.575884719
0.931,5777164.121691625
0.932,5828319.829441137
0.933,5879807.094445501
0.934,5930971.623328641
0.935,5981188.760553471
0.936,6029878.045316404
0.937,6076515.704506701
0.938,6120644.862923852
0.939,6161883.329321593
0.94,6199928.893717244
0.941,6234562.1455418635
0.942,6265646.891597136
0.943,6293128.315678327
0.944,6317029.076667286
0.945,6337443.587767865
0.946,6354530.7555588605
0.947,6368505.483228241
0.948,6379629.257611687
0.949,6388200.14468965
0.95,6394542.513491418
0.951,6398996.794661715
0.952,6401909.558233605
0.953,6403624.166566806
0.954,6404472.2242299495
0.955,6404766.008191559
0.956,6404792.020439935
0.957,6404805.762474269
0.958,6405027.788350398
0.959,6405641.051393848
0.96,6406789.520464728
0.961,6408578.005786005
0.962,6411073.102678936
0.963,6414305.134759672
0.964,6418270.956726542
0.965,6422937.461107121
0.966,6428245.623351926
0.967,6434114.915394705
0.968,6440447.9190210905
0.969,6447134.976724339
0.97,6454058.728677958
0.971,6461098.399414047
0.972,6468133.716075757
0.973,6475048.360967639
0.974,6481732.883781366
0.975,6488087.022540164
0.976,6494021.406210158
0.977,6499458.635331817
0.978,6504333.759243248
0.979,6508594.188880904
0.98,6512199.102215237
0.981,6515118.4146633
0.982,6517331.398969969
0.983,6518825.047819851
0.984,6519592.277692539
0.985,6519630.074167088
0.986,6518937.677078945
0.987,6517514.898789175
0.988,6515360.660582419
0.9890000000000002,6512471.82118441
0.9900000000000002,6508842.357966008
0.9910000000000002,6504462.946017964
0.9920000000000002,6499320.963421886
0.9930000000000001,6493400.93322199
0.9940000000000001,6486685.394352446
0.9950000000000001,6479156.1756361285
0.9960000000000001,6470796.029477146
0.9970000000000001,6461590.565539605
0.9980000000000001,6451530.410028828
0.9990000000000001,6440613.503621189
1.0,6428847.441028617
1.001,6416251.747981892
1.002,6402859.987355322
1.003,6388721.585445407
1.004,6373903.272190252
1.005,6358490.0354243945
1.006,6342585.499068254
1.007,6326311.648326028
1.008,6309807.841293914
1.009,6293229.065555913
1.01,6276743.41997409
1.011,6260528.825488343
1.012,6244768.993775794
1.013,6229648.70846243
1.014,6215348.499553494
1.015,6202038.817133959
1.016,6189873.834436841
1.017,6178985.032323346
1.018,6169474.736309275
1.019,6161409.792777362
1.02,6154815.582252808
1.021,6149670.57397566
1.022,6145901.626955196
1.023,6143380.237825926
1.024,6141919.924860958
1.025,6141274.920303967
1.026,6141140.319787988
1.027,6141153.808225937
1.028,6140899.046577147
1.029,6139910.763897061
1.03,6137681.554830746
1.031,6133670.335161762
1.032,6127312.358289073
1.033,6118030.64483633
1.034,6105248.627383159
1.035,6088403.764021389
1.036,6066961.829611152
1.037,6040431.553787778
1.038,6008379.241466166
1.039,5970442.986243218
1.04,5926346.071022991
1.041,5875909.144519192
1.042,5819060.767937207
1.043,5755845.943744826
1.044,5686432.268338433
1.045,5611113.392585869
1.046,5530309.528292924
1.047,5444564.803822674
1.048,5354541.347226403
1.049,5261010.05876247
1.05,5164838.124656151
1.051,5066973.418122289
1.052,4968426.029475004
1.053,4870247.261794293
1.054,4773506.51915857
1.055,4679266.59785951
1.056,4588557.96428359
1.057,4502352.663384101
1.058,4421538.54621246
1.059,4346894.531491434
1.06,4279067.622791156
1.061,4218552.388135432
1.062,4165673.572058765
1.063,4120572.4511751137
1.064,4083197.463863036
1.065,4053299.544135322
1.066,4030432.471323268
1.067,4013958.413779507
1.068,4003058.699978193
1.069,3996749.698344741
1.07,3993903.5325271236
1.071,3993273.2066014432
1.072,3993521.57002062
1.073,3993253.420077642
1.074,3991049.925157863
1.075,3985504.459578776
1.076,3975258.874237542
1.077,3959039.1897043507
1.078,3935689.6919808937
1.079,3904204.437004625
1.08,3863755.2281056615
1.081,3813715.219829456
1.082,3753677.419481069
1.083,3683467.5009828303
1.084,3603150.5097310813
1.085,3513031.21681401
1.086,3413648.070285908
1.087,3305760.8838295657
1.088,3190332.5925380965
1.089,3068505.5852371785
1.09,2941573.286594719
1.091,2810947.804632242
1.092,2678124.575341978
1.093,2544645.022066728
1.094,2412058.3003610885
1.095,2281883.217668619
1.096,2155571.401013992
1.097,2034472.7359598284
1.098,1919804.0184417125
1.099,1812621.6509866398
1.1,1713799.080400357
1.101,1624009.5202076286
1.102,1543714.3334437162
1.103,1473157.2756723894
1.104,1412364.6203174402
1.105,1361151.0144162017
1.106,1319130.748303287
1.107,1285733.972582023
1.108,1260227.2644504055
1.109,1241737.8366354664
1.11,1229280.5985828515
1.111,1221787.2229262283
1.112,1218136.3414324925
1.113,1217183.9934361961
1.114,1217793.4751857282
1.115,1218863.7886413778
1.116,1219355.9604839357
1.117,1218316.5932038932
1.118,1214898.116475264
1.119,1208375.3245886634
1.12,1198157.9103729778
1.121,1183798.8336007686
1.122,1164998.4882941649
1.123,1141604.754813969
1.124,1113609.1356674505
1.125,1081139.2755982433
1.126,1044448.2542303668
1.127,1003901.1114007067
1.128,959959.119999095
1.129,913162.3579147551
1.13,864111.1494255626
1.131,813446.9474862352
1.132,761833.2128113699
1.133,709936.8148019268
1.134,658410.4350065333
1.135,607876.3980256742
1.136,558912.2898654907
1.137,512038.65217654186
1.138,467708.9650762195
1.139,426302.05383314675
1.14,388116.9779721781
1.141,353370.3875601246
1.142,322196.2625544078
1.143,294647.8888706089
1.144,270701.87067714223
1.145,250263.93345414058
1.146,233176.23731543717
1.147,219225.89540014754
1.148,208154.377871955
1.149,199667.47798170854
1.15,193445.52222492083
1.151,189153.52107749393
1.152,186450.9791222162
1.153,185001.11241519355
1.154,184479.25538986622
1.155,184580.2780827775
1.156,185024.87558430308
1.157,185564.63397652833
1.158,185985.81928107652
1.159,186111.87685492515
1.16,185804.66711823305
1.161,184964.4985001438
1.162,183529.04924045733
1.163,181471.29556298582
1.164,178796.58430511857
1.165,175539.00310166163
1.166,171757.210617377
1.167,167529.89321314488
1.168,162951.01308476605
1.169,158125.00673971948
1.17,153162.08220149277
1.171,148173.74917240592
1.172,143268.6992311353
1.173,138549.13371985775
1.174,134107.61603492254
1.175,130024.50331462894
1.176,126365.9907299932
1.177,123182.78039323473
1.178,120509.36690313688
1.179,118363.91326696106
1.18,116748.67480686725
1.181,115650.91501067879
1.182,115044.24635885116
1.183,114890.32108857718
1.184,115140.79168215163
1.185,115739.45853877837
1.186,116624.52267229366
1.187,117730.86416369659
1.188,118992.27221685374
1.189,120343.55969883432
1.19,121722.50363747403
1.191,123071.56291972565
1.192,124339.3349974587
1.193,125481.72437811742
1.194,126462.806686361
1.195,127255.38278504208
1.196,127841.22752930652
1.197,128211.04692726661
1.198,128364.16557247749
1.199,128307.97302564417
1.2,128057.16323616874
1.201,127632.80504117373
1.202,127061.2842440841
1.203,126373.15878794632
1.204,125601.96817495377
1.205,124783.03665560234
1.206,123952.3069627104
1.207,123145.23766635169
1.208,122395.7927625882
1.209,121735.54707951336
1.21,121192.9256900162
1.211,120792.58996046834
1.212,120554.97732786357
1.213,120495.99656009812
1.214,120626.8752714396
1.215,120954.15197157463
1.216,121479.80103042544
1.217,122201.47572361863
1.218,123112.85203870502
1.219,124204.05419594911
1.22,125462.14186909486
1.221,126871.63885553624
1.222,128415.08339401644
1.223,130073.5813943294
1.224,131827.34544468057
1.225,133656.20450355194
1.226,135540.07156118215
1.227,137459.3591640649
1.228,139395.33542684582
1.229,141330.4159056666
1.23,143248.38937800704
1.231,145134.57807858675
1.232,146975.93520298743
1.233,148761.08444820304
1.234,150480.30796521256
1.235,152125.49032153812
1.236,153690.0268960864
1.237,155168.70555428416
1.238,156557.57049299064
1.239,157853.77682937626
1.24,159055.4438746893
1.241,160161.5141306455
1.242,161171.62392810645
1.243,162085.9903543902
1.244,162905.3177487751
1.245,163630.7256470946
1.246,164263.69868490985
1.247,164806.05767921865
1.248,165259.9499493924
1.249,165627.85594966402
1.25,165912.60849981787
1.251,166117.42033996285
1.252,166245.91541164258
1.253,166302.15918333872
1.254,166290.68348633015
1.255,166216.50169066215
1.256,166085.11060647646
1.257,165902.47621229605
1.258,165675.0011528862
1.259,165409.47287516456
1.26,165112.9922393781
1.261,164792.88341209202
1.262,164456.58677639588
1.263,164111.53744487764
1.264,163765.03269832148
1.265,163424.09226914652
1.266,163095.31582111775
1.267,162784.74223073153
1.268,162497.7153433356
1.269,162238.76075855523
1.27,162011.47790247464
1.271,161818.45118276455
1.272,161661.1834182658
1.273,161540.05401241357
1.274,161454.3035303824
1.275,161402.04547579645
1.276,161380.3051785343
1.277,161385.08483479716
1.278,161411.45291704367
1.279,161453.65542477983
1.28,161505.24580384706
1.281,161559.229843294
1.282,161608.221481119
1.283,161644.6052230699
1.284,161660.70080594372
1.285,161648.92581588338
1.286,161601.9521945105
1.287,161512.85291747015
1.288,161375.2355925531
1.289,161183.36027573457
1.29,160932.23941830877
1.291,160617.7185103412
1.292,160236.5366480957
1.293,159786.3668998757
1.294,159265.83695165726
1.295,158674.5310595892
1.296,158012.9748030869
1.297,157282.6045062512
1.298,156485.72346770414
1.299,155625.4473054402
1.3,154705.64078449682
1.301,153730.84845622597
1.302,152706.2213078597
1.303,151637.4414125797
1.304,150530.64629887434
1.305,149392.35444103085
1.306,148229.39292870022
1.307,147048.82802137465
1.308,145857.8989514944
1.309,144663.9550245274
1.31,143474.39579041937
1.311,142296.6138403082
1.312,141137.93962424606
1.313,140005.58759539845
1.314,138906.6029657909
1.315,137847.8084066607
1.316,136835.75013802445
1.317,135876.643019363
1.318,134976.31446593627
1.319,134140.1472606895
1.32,133373.02159605498
1.321,132679.2569484246
1.322,132062.55464575024
1.323,131525.94222121712
1.324,131071.72083996452
1.325,130701.41722985652
1.326,130415.74163200938
1.327,130214.55330547215
1.328,130096.83506937037
1.329,130060.6782443115
1.33,130103.27916542884
1.331,130220.9481877238
1.332,130409.13179885353
1.333,130662.44810628565
1.334,130974.73558802111
1.335,131339.11460370864
1.336,131748.06077178783
1.337,132193.48894450098
1.338,132666.84617206707
1.339,133159.21175484234
1.34,133661.40225103303
1.341,134164.07914830174
1.342,134657.85682841536
1.343,135133.40845967957
1.344,135581.56754352633
1.345,135993.42301686248
1.346,136360.40606462376
1.347,136674.3671179659
1.348,136927.64189014712
1.349,137113.105719324
1.35,137224.2159281493
1.351,137255.0423559378
1.352,137200.286651515
1.353,137055.2913152994
1.354,136816.0398304751
1.355,136479.14951000418
1.356,136041.85889604205
1.357,135502.01167158503
1.358,134858.03907505109
1.359,134108.94274505757
1.36,133254.2797669955
1.361,132294.15145116346
1.362,131229.19705397604
1.363,130060.59327217597
1.364,128790.0599109106
1.365,127419.87166794416
1.366,125952.87550752024
1.367,124392.51263838366
1.368,122742.84368093002
1.369,121008.57522705759
1.37,119195.0856799881
1.371,117308.4480246255
1.372,115355.44703349545
1.373,113343.58836712975
1.374,111281.09708542477
1.375,109176.9032486909
1.376,107040.61255067718
1.377,104882.46028398626
1.378,102713.24738076176
1.379,100544.2577850804
1.38,98387.15698231747
1.381,96253.87211707773
1.382,94156.45475590376
1.383,92106.92797393833
1.384,90117.12004594982
1.385,88198.48758205869
1.386,86361.93144865998
1.387,84617.60923860004
1.388,82974.74838695774
1.389,81441.46425767693
1.39,80024.5876425722
1.391,78729.50611180889
1.392,77560.02353107854
1.393,76518.24181598231
1.394,75604.4686326036
1.395,74817.15428217725
1.396,74152.86043751953
1.397,73606.26274267188
1.398,73170.18856072125
1.399,72835.69037577705
1.4,72592.1545430233
1.401,72427.44425616697
1.402,72328.07478559892
1.403,72279.41825432151
1.404,72265.93448277732
1.405,72271.42376761856
1.406,72279.29688101476
1.407,72272.85710197761
1.408,72235.58873245784
1.409,72151.44631874483
1.41,72005.13869982552
1.411,71782.40204224826
1.412,71470.25619557363
1.413,71057.2390100569
1.414,70533.61369178712
1.415,69891.54481992936
1.416,69125.23930293591
1.417,68231.04929008012
1.418,67207.53486384006
1.419,66055.4851983627
1.42,64777.8977592427
1.421,63379.91601936325
1.422,61868.72705372127
1.423,60253.42123257869
1.424,58544.81703740885
1.425,56755.25475971808
1.426,54898.36349236871
1.427,52988.80637198927
1.428,51042.009467208394
1.429,49073.88002112864
1.43,47100.519940747734
1.431,45137.94047692568
1.432,43201.78395498315
1.433,41307.058200154825
1.434,39467.88895903437
1.435,37697.29515595631
1.436,36006.991252973654
1.437,34407.22031740173
1.438,32906.620657930885
1.439,31512.12808726683
1.44,30228.915026012703
1.441,29060.36680012486
1.442,28008.094624461988
1.443,27071.98392946988
1.444,26250.27589810622
1.445,25539.679355732424
1.446,24935.50951511056
1.447,24431.849537713057
1.448,24021.730444290148
1.449,23697.324601781114
1.45,23450.147836357075
1.451,23271.265176040943
1.452,23151.495309545542
1.453,23081.60905555549
1.454,23052.51745998677
1.455,23055.44556594368
1.456,23082.088417566887
1.457,23124.74644792255
1.458,23176.43804408158
1.459,23230.98776013166
1.46,23283.089341222923
1.461,23328.343409282057
1.462,23363.27032496919
1.463,23385.29936337743
1.464,23392.73590727455
1.465,23384.70885793818
1.466,23361.100878902605
1.467,23322.464413971036
1.468,23269.92665221731
1.469,23205.086746812198
1.47,23129.90863156723
1.471,23046.61272196948
1.472,22957.569641549155
1.473,22865.198887280243
1.474,22771.875048912454
1.475,22679.843837829594
1.476,22591.149773636156
1.477,22507.576934470824
1.478,22430.603713795506
1.479,22361.372055972224
1.48,22300.671178900444
1.481,22248.935347298
1.482,22206.25484686753
1.483,22172.39893835022
1.484,22146.8492505888
1.485,22128.841810763464
1.486,22117.415713635797
1.487,22111.466303688307
1.488,22109.80068622078
1.489,22111.19339548744
1.49,22114.440127595826
1.491,22118.407589037735
1.492,22122.077712560666
1.493,22124.584743254243
1.494,22125.24399054635
1.495,22123.571366548003
1.496,22119.293177352243
1.497,22112.34599050839
1.498,22102.866757833635
1.499,22091.173717029385
1.5,22077.738917758477
1.501,22063.15350820985
1.502,22048.087168080325
1.503,22033.24327598942
1.504,22019.311547763842
1.505,22006.91997259623
1.506,21996.587904377793
1.507,21988.68213492875
1.508,21983.377685627744
1.509,21980.624907061214
1.51,21980.124277429168
1.511,21981.310045717317
1.512,21983.34358256007
1.513,21985.116988850124
1.514,21985.26717892008
1.515,21982.200311524386
1.516,21974.126098179175
1.517,21959.101184980376
1.518,21935.080490863005
1.519,21899.975101900916
1.52,21851.715076410732
1.521,21788.315317034983
1.522,21707.942520133813
1.523,21608.98112480644
1.524,21490.096157234497
1.525,21350.290902662025
1.526,21188.957437327343
1.527,21005.91821437385
1.528,20801.457117736103
1.529,20576.338671018766
1.53,20331.81440759505
1.531,20069.615765153176
1.532,19791.933252973377
1.533,19501.382042462992
1.534,19200.954539206698
1.535,18893.960895768312
1.536,18583.958806300776
1.537,18274.67427448031
1.538,17969.915353790042
1.539,17673.481113160986
1.54,17389.068272270288
1.541,17120.178072007824
1.542,16870.025991459977
1.543,16641.456890279736
1.544,16436.868044101695
1.545,16258.142352918476
1.546,16106.593742860452
1.547,15982.92645789726
1.548,15887.209559154724
1.549,15818.867527315851
1.55,15776.687411007866
1.551,15758.842495324778
1.552,15762.931994442559
1.553,15786.035815456631
1.554,15824.783011441446
1.555,15875.432153648753
1.556,15933.961517625563
1.557,15996.16670589312
1.558,16057.763128554892
1.559,16114.490638251436
1.56,16162.217570157212
1.561,16197.041471531256
1.562,16215.383916466395
1.563,16214.076985319962
1.564,16190.439238082346
1.565,16142.339318015009
1.566,16068.245676117984
1.567,15967.261297089819
1.568,15839.142721414966
1.569,15684.30308373067
1.57,15503.799312438294
1.571,15299.304047828178
1.572,15073.063224753485
1.573,14827.840621148529
1.574,14566.850986765716
1.575,14293.683630195716
1.576,14012.218550920046
1.577,13726.537352856767
1.578,13440.831264295217
1.579,13159.30861560036
1.58,12886.104091483601
1.581,12625.191981319269
1.582,12380.30550259314
1.583,12154.864073942419
1.584,11951.910171255537
1.585,11774.057119688547
1.586,11623.44886368434
1.587,11501.732424174334
1.588,11410.043405533794
1.589,11349.00456324073
1.59,11318.737095346545
1.591,11318.8839855375
1.592,11348.644411257259
1.593,11406.81794517799
1.594,11491.857029768014
1.595,11601.925999544543
1.596,11734.964769581027
1.597,11888.755206551372
1.598,12060.988153282195
1.599,12249.329091188329
1.6,12451.480497197877
1.601,12665.239081235688
1.602,12888.546273701382
1.603,13119.530564626273
1.604,13356.540570703963
1.605,13598.16801511447
1.606,13843.260138753549
1.607,14090.921409973347
1.608,14340.50475248492
1.609,14591.59285668379
1.61,14843.970467494502
1.611,15097.588841558487
1.612,15352.523828743411
1.613,15608.929249243667
1.614,15866.98740113159
1.615,16126.858638931635
1.616,16388.63200825806
1.617,16652.27890330626
1.618,16917.611633449163
1.619,17184.24864464948
1.62,17451.5879448933
1.621,17718.79003601184
1.622,17984.771364119013
1.623,18248.20897566168
1.624,18507.55671489944
1.625,18761.072931320155
1.626,19006.85929229243
1.627,19242.909927552442
1.628,19467.16977822249
1.629,19677.600693930843
1.63,19872.25352665071
1.631,20049.344217724603
1.632,20207.331672833956
1.633,20344.995074898226
1.634,20461.508202207253
1.635,20556.508302213268
1.636,20630.157122475906
1.637,20683.19181975709
1.638,20716.963655002884
1.639,20733.46263301784
1.64,20735.326556446384
1.641,20725.83332801855
1.642,20708.87574517085
1.643,20688.91847801134
1.644,20670.93739484409
1.645,20660.341887768274
1.646,20662.88134209808
1.647,20684.53737484012
1.648,20731.403926261195
1.649,20809.557711719517
1.65,20924.921915738178
1.651,21083.1263246727
1.652,21289.36733705541
1.653,21548.271451779503
1.654,21863.765905224995
1.655,22238.960102570825
1.656,22676.04136136997
1.657,23176.18825491275
1.658,23739.504509599847
1.659,24364.97597805518
1.66,25050.452684700474
1.661,25792.65733285845
1.662,26587.220985225948
1.663,27428.74589893803
1.664,28310.894731472043
1.665,29226.504555866293
1.666,30167.723356695038
1.667,31126.165946851434
1.668,32093.085574926838
1.669,33059.5569090274
1.67,34016.66560917494
1.671,34955.699358677055
1.672,35868.335033439485
1.673,36746.8166613253
1.674,37584.11897044707
1.675,38374.09164900507
1.676,39111.579936909744
1.677,39792.51783126299
1.678,40413.9909974483
1.679,40974.26741228492
1.68,41472.794796717935
1.681,41910.16498903348
1.682,42288.0465277794
1.683,42609.0878159002
1.684,42876.79428230287
1.685,43095.383902793394
1.686,43269.626249768604
1.687,43404.67087365865
1.688,43505.871248669
1.689,43578.610717415504
1.69,43628.13682813157
1.691,43659.41016776357
1.692,43676.97325756021
1.693,43684.84430768188
1.694,43686.43964665056
1.695,43684.52748215281
1.696,43681.21435221586
1.697,43677.964237676286
1.698,43675.648881314046
1.699,43674.626452928875
1.7,43674.844371558225
1.701,43675.96090399501
1.702,43677.47915794817
1.703,43678.88632869107
1.704,43679.79058269032
1.705,43680.04780409109
1.706,43679.87061269645
1.707,43679.912595548914
1.708,43681.321575462396
1.709,43685.75695214725
1.71,43695.36766441729
1.711,43712.72909156468
1.712,43740.73918223662
1.713,43782.47620312244
1.714,43841.02266164011
1.715,43919.262094188714
1.716,44019.6574380421
1.717,44144.02153314106
1.718,44293.29184435781
1.719,44467.32267469208
1.72,44664.70888273417
1.721,44882.65536186313
1.722,45116.90623577918
1.723,45361.74684262118
1.724,45610.09010330836
1.725,45853.65680324287
1.726,46083.25668459245
1.727,46289.17409403117
1.728,46461.65832339016
1.729,46591.51480309757
1.73,46670.78906375987
1.731,46693.530989283405
1.732,46656.622478929225
1.733,46560.64735984107
1.734,46410.778397413924
1.735,46217.65269329047
1.736,45998.203793777786
1.737,45776.416603551785
1.738,45583.96984887091
1.739,45460.73048423906
1.74,45455.06518969865
1.741,45623.93604131644
1.742,46032.75060471089
1.743,46754.94111775259
1.744,47871.25307502951
1.745,49468.730346130695
1.746,51639.39185514632
1.747,54478.603682397545
1.748,58083.16004374398
1.749,62549.09674212382
1.75,67969.27111931823
1.751,74430.75298140463
1.752,82012.08112163702
1.753,90780.44959347507
1.754,100788.8964571396
1.755,112073.57499620033
1.756,124651.19304453747
1.757,138516.7097644737
1.758,153641.38068813813
1.759,169971.24082943823
1.76,187426.11199624575
1.761,205899.21394418087
1.762,225257.44964642017
1.763,245342.4227172521
1.764,265972.23001363006
1.765,286944.05483055825
1.766,308037.56617620954
1.767,329019.10772652103
1.768,349646.6366714323
1.769,369675.3483149005
1.77,388863.897593208
1.771,406981.10431025655
1.772,423813.0055840044
1.773,439170.09751735785
1.774,452894.5892250719
1.775,464867.4768319538
1.776,475015.23364041257
1.777,483315.9060228905
1.778,489804.4033194361
1.779,494576.7745967543
1.78,497793.2759042902
1.781,499680.04884274193
1.782,500529.2548649297
1.783,500697.5395935601
1.784,500602.73720103904
1.785,500718.76598422864
1.786,501568.71190876834
1.787,503716.1461229574
1.788,507754.7740965144
1.789,514296.56680842227
1.79,523958.5768390753
1.791,537348.6927624717
1.792,555050.6322704618
1.793,577608.5163630178
1.794,605511.40210881
1.795,639178.178406172
1.796,678943.2464803965
1.797,725043.4133538876
1.798,777606.4212764987
1.799,836641.5184474958
1.8,902032.4459699881
1.801,973533.172888211
1.802,1050766.6557904696
1.803,1133226.8326411573
1.804,1220283.9834649288
1.805,1311193.5048718676
1.806,1405108.0531845463
1.807,1501092.914443594
1.808,1598144.3614521716
1.809,1695210.661120782
1.81,1791215.3026910033
1.811,1885081.9320138567
1.812,1975760.4019702692
1.813,2062253.287253145
1.814,2143642.1657559453
1.815,2219112.941068051
1.816,2287979.4729623017
1.817,2349704.796644442
1.818,2403919.2476743655
1.819,2450434.867941677
1.82,2489255.5482307705
1.821,2520582.4633363914
1.822,2544814.4742263188
1.823,2562543.3055015206
1.824,2574543.4518107423
1.825,2581756.919783214
1.826,2585273.0678229765
1.827,2586303.95980016
1.828,2586155.7951453985
1.829,2586197.1119782156
1.83,2587824.576752112
1.831,2592427.2689445945
1.832,2601350.438608676
1.833,2615859.754942012
1.834,2637107.0731438203
1.835,2666098.7234799494
1.836,2703667.2705519325
1.837,2750447.6033268273
1.838,2806858.0997606893
1.839,2873087.4671869553
1.84,2949087.695407412
1.841,3034573.3788561267
1.842,3129027.4732315657
1.843,3231713.3570039202
1.844,3341692.8758252184
1.845,3457849.8646932323
1.846,3578918.475055903
1.847,3703515.4876694814
1.848,3830175.6719625406
1.849,3957389.1629800666
1.85,4083639.770651788
1.851,4207443.114897303
1.852,4327383.494425662
1.853,4442148.44620951
1.854,4550560.0344826225
1.855,4651602.019556786
1.856,4744442.193613203
1.857,4828449.327904784
1.858,4903204.347897952
1.859,4968505.533775952
1.86,5024367.727241802
1.861,5071015.705581501
1.862,5108872.054642078
1.863,5138540.028393649
1.864,5160782.019388184
1.865,5176494.377813147
1.866,5186679.403992093
1.867,5192415.398117342
1.868,5194825.68073966
1.869,5195047.498123983
1.87,5194201.699014595
1.871,5193364.015536741
1.872,5193538.703583861
1.873,5195635.200454318
1.874,5200448.343584279
1.875,5208642.568217801
1.876,5220740.368213853
1.877,5237115.1674168985
1.878,5257988.613516952
1.879,5283432.176260237
1.88,5313372.811041769
1.881,5347602.340644409
1.882,5385790.114957749
1.883,5427498.433070163
1.884,5472200.155678557
1.885,5519297.899133164
1.886,5568144.185797154
1.887,5618061.928288323
1.888,5668364.646532337
1.889,5718375.854822451
1.89,5767447.109233309
1.891,5814974.271402614
1.892,5860411.620236476
1.893,5903283.525706334
1.894,5943193.485710977
1.895,5979830.415121369
1.896,6012972.16286385
1.897,6042486.315672279
1.898,6068328.423653455
1.899,6090537.8510788465
1.9,6109231.514215316
1.901,6124595.81530334
1.902,6136877.117155931
1.903,6146371.125867978
1.904,6153411.559777464
1.905,6158358.481470549
1.906,6161586.656982385
1.907,6163474.283432234
1.908,6164392.394420698
1.909,6164695.213089061
1.91,6164711.677424226
1.911,6164738.312904982
1.912,6165033.575675535
1.913,6165813.73682527
1.914,6167250.326698754
1.915,6169469.108984055
1.916,6172550.5089954715
1.917,6176531.380249527
1.918,6181407.959081665
1.919,6187139.829382091
1.92,6193654.6990150055
1.921,6200853.7763552405
1.922,6208617.5296228565
1.923,6216811.613089864
1.924,6225292.75234187
1.925,6233914.394991004
1.926,6242531.952795403
1.927,6251007.485166535
1.928,6259213.701574274
1.929,6267037.190373177
1.93,6274380.813032824
1.931,6281165.234631349
1.932,6287329.592773358
1.933,6292831.336894697
1.934,6297645.297376288
1.935,6301762.068272314
1.936,6305185.808148737
1.937,6307931.580041549
1.938,6310022.3635324305
1.939,6311485.879195322
1.94,6312351.368122451
1.941,6312646.466959946
1.942,6312394.312066363
1.943,6311610.995365607
1.944,6310303.47961807
1.945,6308468.062691382
1.946,6306089.459562202
1.947,6303140.547869873
1.948,6299582.798560592
1.949,6295367.388220738
1.95,6290436.964821023
1.951,6284728.014490118
1.952,6278173.754291818
1.953,6270707.455436705
1.954,6262266.083504755
1.955,6252794.127608268
1.956,6242247.479424602
1.957,6230597.216026349
1.958,6217833.137688023
1.959,6203966.913506661
1.96,6189034.693787235
1.961,6173099.058654067
1.962,6156250.187090695
1.963,6138606.149312224
1.964,6120312.24766355
1.965,6101539.356645183
1.966,6082481.240637774
1.967,6063350.857788113
1.968,6044375.6896248115
1.969,6025792.167524493
1.97,6007839.298338627
1.971,5990751.621478039
1.972,5974751.657686185
1.973,5960042.034769986
1.974,5946797.4968816815
1.975,5935157.020787556
1.976,5925216.2742186645
1.977,5917020.657264691
1.978,5910559.167345281
1.979,5905759.321206157
1.98,5902483.353422434
1.981,5900525.88999823
1.982,5899613.267959406
1.983,5899404.637665073
1.984,5899494.944429313
1.985,5899419.840660095
1.986,5898662.529992805
1.987,5896662.491907763
1.988,5892825.980326943
1.989,5886538.134079522
1.99,5877176.482417716
1.991,5864125.576541801
1.992,5846792.429984679
1.993,5824622.408335641
1.994,5797115.173723046
1.995,5763840.26319749
1.996,5724451.863980512
1.997,5678702.343586657
1.998,5626454.099957383
1.999,5567689.316538794
2.0,5502517.239935411
2.001,5431178.6432598755
2.002,5354047.196069848
2.003,5271627.530937046
2.004,5184549.875929892
2.005,5093561.209924013
2.006,4999512.9916342655
2.007,4903345.611212538
2.008,4806069.812526126
2.009,4708745.43195767
2.01,4612457.892746717
2.011,4518292.979467622
2.012,4427310.492190075
2.013,4340517.441316199
2.014,4258841.489390056
2.015,4183105.3730321713
2.016,4114003.044704577
2.017,4052078.2589349714
2.018,3997706.290209607
2.019,3951079.40995108
2.02,3912196.668523477
2.021,3880858.426500035
2.022,3856665.9596857047
2.023,3839026.3275316125
2.024,3827162.548200783
2.025,3820128.9698172477
2.026,3816831.5709948023
2.027,3816052.769566314
2.028,3816480.1716552684
2.029,3816738.55897029
2.03,3815424.295379695
2.031,3811141.2389580985
2.032,3802537.1767257177
2.033,3788339.759395896
2.034,3767390.904863304
2.035,3738678.6631196123
2.036,3701365.591862782
2.037,3654812.780186496
2.038,3598598.7751453198
2.039,3532532.809319909
2.04,3456661.8923697816
2.041,3371271.5107030696
2.042,3276879.870873174
2.043,3174225.817725161
2.044,3064250.7510304907
2.045,2948075.0477689914
2.046,2826969.665031683
2.047,2702323.744951643
2.048,2575609.1631069374
2.049,2448343.051418368
2.05,2322049.3827323397
2.051,2198220.7252990273
2.052,2078281.2607653774
2.053,1963552.1099173059
2.054,1855219.928273533
2.055,1754309.6219392957
2.056,1661661.8970532585
2.057,1577916.1987093592
2.058,1503499.42302916
2.059,1438620.6051181245
2.06,1383271.6021444907
2.061,1337233.610850024
2.062,1300089.188270087
2.063,1271239.2886507495
2.064,1249924.693184109
2.065,1235251.0961126091
2.066,1226217.023935251
2.067,1221743.7058524378
2.068,1220705.9841626522
2.069,1221963.353012902
2.07,1224390.2416775224
2.071,1226904.7124760505
2.072,1228494.8208319577
2.073,1228241.982450313
2.074,1225340.8062667304
2.075,1219114.9774423458
2.076,1209028.9077967803
2.077,1194695.0071847788
2.078,1175876.5640406823
2.079,1152486.3524929786
2.08,1124581.203314757
2.081,1092352.8832270391
2.082,1056115.7189727821
2.083,1016291.4770123994
2.084,973392.0651967918
2.085,928000.6585613486
2.086,880751.8673251864
2.087,832311.5617752263
2.088,783356.9470465941
2.089,734557.442476653
2.09,686556.8672442159
2.091,639957.3687916622
2.092,595305.4557041682
2.093,553080.4150833032
2.094,513685.3088592226
2.095,477440.6567622278
2.096,444580.828527344
2.097,415253.0868446649
2.098,389519.1478387907
2.099,367359.05938785383
2.1,348677.1409390775
2.101,333309.6828151667
2.102,321034.06909999275
2.103,311578.9664020573
2.104,304635.211084068
2.105,299867.02950900653
2.106,296923.23874206166
2.107,295448.0979234658
2.108,295091.5119039275
2.109,295518.3272353696
2.11,296416.50462497224
2.111,297503.99980481935
2.112,298534.234739735
2.113,299300.0915258492
2.114,299636.4106426305
2.115,299421.021963355
2.116,298574.37982375344
2.117,297057.9114149582
2.118,294871.21994409786
2.119,292048.30976668897
2.12,288653.0196505852
2.121,284773.86232852814
2.122,280518.4736076637
2.123,276007.8728109169
2.124,271370.7286947973
2.125,266737.81184907845
2.126,262236.79669425555
2.127,257987.55440950906
2.128,254098.05336937314
2.129,250660.95689648463
2.13,247750.98030696737
2.131,245423.04126216783
2.132,243711.21021863338
2.133,242628.44208222412
2.134,242167.04671933816
2.135,242299.8353430372
2.136,242981.86243562272
2.137,244152.66912351287
2.138,245738.92398497678
2.139,247657.35121665866
2.14,249817.83385733815
2.141,252126.58119887277
2.142,254489.2543340417
2.143,256813.9516401841
2.144,259013.96644528134
2.145,261010.2416841366
2.146,262733.4605048029
2.147,264125.7269894143
2.148,265141.80686858477
2.149,265749.91381035885
2.15,265932.0420607899
2.151,265683.860456315
2.152,265014.1957276192
2.153,263944.1442458401
2.154,262505.86067222594
2.155,260741.07918532824
2.156,258699.42797639524
2.157,256436.60050072556
2.158,254012.4475994306
2.159,251489.05317773236
2.16,248928.85281655318
2.161,246392.84972703308
2.162,243938.97609508547
2.163,241620.64039558158
2.164,239485.49299051074
2.165,237574.4335755402
2.166,235920.87511307313
2.167,234550.27008098352
2.168,233479.89644544592
2.169,232718.89297413884
2.17,232268.52654700866
2.171,232122.66815995428
2.172,232268.4494736816
2.173,232687.06811328063
2.174,233354.7075082572
2.175,234243.53587089514
2.176,235322.74889774786
2.177,236559.62186537968
2.178,237920.53886853516
2.179,239371.96988425264
2.18,240881.3699886685
2.181,242417.9792420661
2.182,243953.5063238527
2.183,245462.6837741091
2.184,246923.68751877244
2.185,248318.41806791295
2.186,249632.64524151225
2.187,250856.02237266462
2.188,251981.97956227616
2.189,253007.5086320694
2.19,253932.8548867794
2.191,254761.13261764697
2.192,255497.8824459351
2.193,256150.58912671608
2.194,256728.1783385263
2.195,257240.51031972145
2.196,257697.88703799367
2.197,258110.58796755987
2.198,258488.447579444
2.199,258840.48540980404
2.2,259174.59714737895
2.201,259497.31266117495
2.202,259813.62435746516
2.203,260126.8867893662
2.204,260438.7861133242
2.205,260749.37585618376
2.206,261057.17357505264
2.207,261359.31139964424
2.208,261651.73217131893
2.209,261929.42195125896
2.21,262186.66906753706
2.211,262417.33960222645
2.212,262615.1592705903
2.213,262773.9919918571
2.214,262888.1060651837
2.215,262952.41970958357
2.216,262962.7187631972
2.217,262915.84052301047
2.218,262809.81899752875
2.219,262643.98819868633
2.22,262419.0414735384
2.221,262137.0462316511
2.222,261801.414724621
2.223,261416.8327479747
2.224,260989.1492357145
2.225,260525.23068189318
2.226,260032.78513497434
2.227,259520.16115774802
2.228,258996.12762171586
2.229,258469.64050846238
2.23,257949.6030243865
2.231,257444.6253060941
2.232,256962.78981207195
2.233,256511.42817525304
2.234,256096.91484641138
2.235,255724.48230747745
2.236,255398.06199559243
2.237,255120.15437248556
2.238,254891.7308192674
2.239,254712.1692534402
2.24,254579.22457164983
2.241,254489.0342362473
2.242,254436.15856257727
2.243,254413.65454197946
2.244,254413.18136591825
2.245,254425.1352106667
2.246,254438.81030877403
2.247,254442.58288029523
2.248,254424.11412854987
2.249,254370.56822509362
2.25,254268.8410177736
2.251,254105.79509352928
2.252,253868.49681163148
2.253,253544.45098943973
2.254,253121.8290662672
2.255,252589.68678517544
2.256,251938.16771010592
2.257,251158.68922855932
2.258,250244.10806934073
2.259,249188.86278161607
2.26,247989.09106639304
2.261,246642.72031527208
2.262,245149.5301847903
2.263,243511.18650912258
2.264,241731.2463209882
2.265,239815.13420263978
2.266,237770.09061879542
2.267,235605.0932851582
2.268,233330.75299449905
2.269,230959.1856528754
2.27,228503.86256814672
2.271,225979.44127929094
2.272,223401.57941691062
2.273,220786.7342425357
2.274,218151.95062762828
2.275,215514.6403041966
2.276,212892.3552500439
2.277,210302.55806599505
2.278,207762.39216357708
2.279,205288.45451359032
2.28,202896.57361303124
2.281,200601.59521422477
2.282,198417.17822999603
2.283,196355.60308620462
2.284,194427.5946415106
2.285,192642.16163683397
2.286,191006.45447593703
2.287,189525.6429755062
2.288,188202.81555884122
2.289,187038.90120179288
2.29,186032.61527215404
2.291,185180.4302328441
2.292,184476.57200284678
2.293,183913.0425854427
2.294,183479.66937799158
2.295,183164.1813684567
2.296,182952.312198254
2.297,182827.92982643374
2.298,182773.19226484967
2.299,182768.72856683665
2.3,182793.84394301916
2.301,182826.74754840802
2.302,182844.80113742256
2.303,182824.78642180562
2.304,182743.1885958904
2.305,182576.49312102963
2.306,182301.49249417646
2.307,181895.59937370682
2.308,181337.16210859854
2.309,180605.7784256753
2.31,179682.60278477176
2.311,178550.64272435755
2.312,177195.03940099795
2.313,175603.32748490467
2.314,173765.66961951277
2.315,171675.06079280007
2.316,169327.49820740713
2.317,166722.11257884724
2.318,163861.25723712554
2.319,160750.55195518408
2.32,157398.8790732251
2.321,153818.33022368565
2.322,150024.10277708503
2.323,146034.34601088267
2.324,141869.95793590992
2.325,137554.33467940468
2.326,133113.07529956996
2.327,128573.64587153147
2.328,123965.00761500333
2.329,119317.21470565748
2.33,114660.98820091606
2.331,110027.27319316207
2.332,105446.78685715825
2.333,100949.56546395217
2.334,96564.5186738424
2.335,92318.99948281738
2.336,88238.39807122643
2.337,84345.76748601897
2.338,80661.48857954668
2.339,77202.98093488786
2.34,73984.4656415914
2.341,71016.78476364262
2.342,68307.28118534807
2.343,65859.74125728854
2.344,63674.40132393528
2.345,61748.01783045716
2.346,60073.99931423785
2.347,58642.59722325901
2.348,57441.15120525624
2.349,56454.38331359321
2.35,55664.734510867456
2.351,55052.73594858264
2.352,54597.40678551654
2.353,54276.66979807756
2.354,54067.77574638149
2.355,53947.72739697276
2.356,53893.69426737967
2.357,53883.40954270528
2.358,53895.5412074746
2.359,53910.03021829021
2.36,53908.38949049608
2.361,53873.958556538055
2.362,53792.109943049894
2.363,53650.404573442545
2.364,53438.69479715151
2.365,53149.17493972827
2.366,52776.380524587155
2.367,52317.13850435251
2.368,51770.47192723543
2.369,51137.46342531582
2.37,50421.082725074666
2.371,49625.984029049774
2.372,48758.2795894279
2.373,47825.296083565896
2.374,46835.32050714462
2.375,45797.342227456014
2.376,44720.79759667967
2.377,43615.323126816
2.378,42490.52269192154
2.379,41355.753570260145
2.38,40219.93539211489
2.381,39091.38524301334
2.382,37977.68131245892
2.383,36885.55660033928
2.384,35820.82332162027
2.385,34788.32780789401
2.386,33791.93491295967
2.387,32834.540207476304
2.388,31918.107610548162
2.389,31043.729566429123
2.39,30211.706441604023
2.391,29421.641497200028
2.392,28672.547586581037
2.393,27962.96163749474
2.394,27291.062998738427
2.395,26654.791856768665
2.396,26051.964149423373
2.397,25480.379711366437
2.398,24937.920766778923
2.399,24422.638325727054
2.4,23932.824527179724
2.401,23467.06948897397
2.402,23024.30175814617
2.403,22603.811989181857
2.404,22205.2599986483
2.405,21828.665838963716
2.406,21474.385989450206
2.407,21143.07616841145
2.408,20835.64261646506
2.409,20553.183981218976
2.41,20296.926141022628
2.411,20068.152437400386
2.412,19868.131840449558
2.413,19698.047549642542
2.414,19558.92843688395
2.415,19451.585574104713
2.416,19376.555860742326
2.417,19334.05448542601
2.418,19323.937630727094
2.419,19345.67647072926
2.42,19398.343129983637
2.421,19480.6088811338
2.422,19590.75446918199
2.423,19726.692074769468
2.424,19885.9980780477
2.425,20065.955468813132
2.426,20263.604476366236
2.427,20475.79977129374
2.428,20699.272426585383
2.429,20930.69472084065
2.43,21166.745823514633
2.431,21404.176420972166
2.432,21639.870420451796
2.433,21870.902002999148
2.434,22094.58648051121
2.435,22308.52363933497
2.436,22510.632515317346
2.437,22699.176833848767
2.438,22872.7806537152
2.439,23030.434065601483
2.44,23171.489104996468
2.441,23295.646335449477
2.442,23402.932832604383
2.443,23493.67254401362
2.444,23568.450207306818
2.445,23628.0701740361
2.446,23673.511604071213
2.447,23705.881562977524
2.448,23726.36757123802
2.449,23736.191120016265
2.45,23736.563585593256
2.451,23728.64584740914
2.452,23713.5127479959
2.453,23692.123333439285
2.454,23665.297587811034
2.455,23633.70013246182
2.456,23597.831109804025
2.457,23558.024220016872
2.458,23514.451636567916
2.459,23467.135300666683
2.46,23415.96389307861
2.461,23360.714610434028
2.462,23301.078737341795
2.463,23236.689908947985
2.464,23167.15390326999
2.465,23092.07878936813
2.466,23011.104285371108
2.467,22923.92924730652
2.468,22830.336312066498
2.469,22730.21285100159
2.47,22623.567549007064
2.471,22510.542101282546
2.472,22391.417709505185
2.473,22266.616254061806
2.474,22136.696212391747
2.475,22002.34357883085
2.476,21864.35821253727
2.477,21723.63619170348
2.478,21581.148879713244
2.479,21437.919508511986
2.48,21294.998153559594
2.481,21153.436011717833
2.482,21014.259897755543
2.483,20878.447847356372
2.484,20746.90665612583
2.485,20620.452097607373
2.486,20499.79245208508
2.487,20385.51584608499
2.488,20278.08175473218
2.489,20177.816860716233
2.49,20084.915300145858
2.491,19999.443162794076
2.492,19921.346957915648
2.493,19850.465612547858
2.494,19786.545442218045
2.495,19729.257428967478
2.496,19678.21606253833
2.497,19632.998950558176
2.498,19593.16638467704
2.499,19558.280062819187
2.5,19527.920212754034
2.501,19501.700437579115
2.502,19479.279706729823
2.503,19460.371042917417
2.504,19444.746601039835
2.505,19432.238993831714
2.506,19422.738884386712
2.507,19416.1890308598
2.508,19412.575126679516
2.509,19411.91392368329
2.51,19414.239249418373
2.511,19419.58662786955
2.512,19427.977280545154
2.513,19439.402318876804
2.514,19453.807937375823
2.515,19471.0823795705
2.516,19491.045376614264
2.517,19513.440654330218
2.518,19537.931972507482
2.519,19564.103005928428
2.52,19591.461206379638
2.521,19619.445606061858
2.522,19647.438343120913
2.523,19674.779517369778
2.524,19700.784826357998
2.525,19724.765295927304
2.526,19746.048311572355
2.527,19763.999082464918
2.528,19778.041632680743
2.529,19787.678416215127
2.53,19792.50769433482
2.531,19792.237894521088
2.532,19786.698286849816
2.533,19775.845461678477
2.534,19759.76526609356
2.535,19738.670048652657
2.536,19712.891264562917
2.537,19682.867698019214
2.538,19649.12975619699
2.539,19612.280471703223
2.54,19572.97400897483
2.541,19531.89259785285
2.542,19489.722908176518
2.543,19447.132927971492
2.544,19404.750411517016
2.545,19363.143920908904
2.546,19322.807396188437
2.547,19284.149057048548
2.548,19247.485267730666
2.549,19213.039791837415
2.55,19180.94863274117
2.551,19151.27040663396
2.552,19124.001938547386
2.553,19099.098516985843
2.554,19076.498000525502
2.555,19056.147750074677
2.556,19038.033173212756
2.557,19022.206521008007
2.558,19008.81448064018
2.559,18998.123065187683
2.56,18990.5383194626
2.561,18986.621440164727
2.562,18987.097050084336
2.563,18992.853567547925
2.564,19004.934869407123
2.565,19024.522751993143
2.566,19052.910040830426
2.567,19091.464575804162
2.568,19141.584691507785
2.569,19204.64720891325
2.57,19281.94933962975
2.571,19374.646262692793
2.572,19483.686450942667
2.573,19609.747085081486
2.574,19753.17208505946
2.575,19913.915398859517
2.576,20091.492208593867
2.577,20284.94063640337
2.578,20492.796354429924
2.579,20713.0822240842
2.58,20943.31471365456
2.581,21180.52837752852
2.582,21421.319136246835
2.583,21661.906489206314
2.584,21898.21413925334
2.585,22125.96783161331
2.586,22340.80853165688
2.587,22538.418411355586
2.588,22714.656507874948
2.589,22865.700384114076
2.59,22988.18968325141
2.591,23079.367148258603
2.592,23137.21249038022
2.593,23160.56445111014
2.594,23149.22651877034
2.595,23104.052036593846
2.596,23027.004871698013
2.597,22921.192395133137
2.598,22790.868238189025
2.599,22641.403119821407
2.6,22479.222960065872
2.601,22311.7144762282
2.602,22147.099470968424
2.603,21994.2800306392
2.604,21862.657824131114
2.605,21761.931593244175
2.606,21701.877723229492
2.607,21692.119447579353
2.608,21741.890749413684
2.609,21859.801352971925
2.61,22053.60933861779
2.611,22330.007855580225
2.612,22694.432147196854
2.613,23150.892649185378
2.614,23701.839284410235
2.615,24348.06127574703
2.616,25088.62585538707
2.617,25920.858192259086
2.618,26840.36372078673
2.619,27841.092868124255
2.62,28915.44697895278
2.621,30054.423062844275
2.622,31247.7938743237
2.623,32484.318813501028
2.624,33751.980236186355
2.625,35038.23901383917
2.626,36330.30260832972
2.627,37615.39854219763
2.628,38881.04596440982
2.629,40115.31804138611
2.63,41307.0881442286
2.631,42446.25325066314
2.632,43523.92862329421
2.633,44532.608647815985
2.634,45466.28969387643
2.635,46320.55197051125
2.636,47092.59855628556
2.637,47781.25105673125
2.638,48386.902640815315
2.639,48911.43049468298
2.64,49358.07096472216
2.641,49731.26180343764
2.642,50036.456942682686
2.643,50279.920064322214
2.644,50468.50388735713
2.645,50609.42251718029
2.646,50710.024387616126
2.647,50777.57325772
2.648,50819.044399107435
2.649,50840.94253064562
2.65,50849.14723941576
2.651,50848.790592630474
2.652,50844.17042595252
2.653,50838.70142863901
2.654,50834.90468130853
2.655,50834.43478972312
2.656,50838.142253667655
2.657,50846.16727187886
2.658,50858.05987027979
2.659,50872.92010777038
2.66,50889.55121354853
2.661,50906.61788801007
2.662,50922.80169281451
2.663,50936.94549143044
2.664,50948.17929410753
2.665,50956.02061223235
2.666,50960.44352381152
2.667,50961.91206738327
2.668,50961.375274766455
2.669,50960.22306902227
2.67,50960.20432594874
2.671,50963.310548116875
2.672,50971.63074461899
2.673,50987.18515678317
2.674,51011.7473274024
2.675,51046.6655870339
2.676,51092.69623889171
2.677,51149.8614853326
2.678,51217.34538723753
2.679,51293.4408310313
2.68,51375.559562857874
2.681,51460.31582201475
2.682,51543.69197473638
2.683,51621.291846646614
2.684,51688.684233176034
2.685,51741.83541072424
2.686,51777.62547814773
2.687,51794.439149083475
2.688,51792.817328662764
2.689,51776.1515949209
2.69,51751.399726630225
2.691,51729.79684093222
2.692,51727.533690942146
2.693,51766.37138422451
2.694,51874.160364666226
2.695,52085.23108234398
2.696,52440.62446514881
2.697,52988.132180874236
2.698,53782.119785342635
2.699,54883.110200666546
2.7,56357.11052818979
2.701,58274.6719017682
2.702,60709.67981506016
2.703,63737.88095533236
2.704,67435.16184905282
2.705,71875.60433632521
2.706,77129.35277319995
2.707,83260.33761582327
2.708,90323.9093492732
2.709,98364.44525397969
2.71,107412.998916169
2.711,117485.06835311578
2.712,128578.56282192243
2.713,140672.05052129665
2.714,153723.3692260878
2.715,167668.6792093118
2.716,182422.0324599872
2.717,197875.52411958575
2.718,213900.08123412993
2.719,230346.9304350619
2.72,247049.7701900532
2.721,263827.65506539855
2.722,280488.5793652783
2.723,296833.7259980551
2.724,312662.32398541225
2.725,327777.03526863334
2.726,341989.76903034555
2.727,355127.800338092
2.728,367040.0502548141
2.729,377603.367385696
2.73,386728.63686217205
2.731,394366.5326865576
2.732,400512.7237979431
2.733,405212.3437094469
2.734,408563.5385373487
2.735,410719.91899146675
2.736,411891.75856973295
2.737,412345.8027766843
2.738,412403.58246327675
2.739,412438.1579728821
2.74,412869.2590926509
2.741,414156.8280789388
2.742,416793.01829888544
2.743,421292.7481921444
2.744,428182.9580497584
2.745,437990.764159943
2.746,451230.7497319069
2.747,468391.6731868517
2.748,489922.91041070904
2.749,516220.9769560375
2.75,547616.4976187656
2.751,584362.003104039
2.752,626620.9356342729
2.753,674458.2365819854
2.754,727832.8690519141
2.755,786592.5966296177
2.756,850471.2964394495
2.757,919089.0307580425
2.758,991955.0376252489
2.759,1068473.728465073
2.76,1147953.7013086535
2.761,1229619.6937581934
2.762,1312627.3125872652
2.763,1396080.2893132344
2.764,1479049.925843949
2.765,1560596.3141300234
2.766,1639790.8413953425
2.767,1715739.4306451215
2.768,1787605.9172683381
2.769,1854634.92890357
2.77,1916173.619215719
2.771,1971691.6082889964
2.772,2020798.5039167795
2.773,2063258.4195195595
2.774,2099000.9654770466
2.775,2128128.2703891145
2.776,2150917.6855837195
2.777,2167819.93781527
2.778,2179452.6186766005
2.779,2186589.031363994
2.78,2190142.5522092455
2.781,2191146.8015990807
2.782,2190732.052098756
2.783,2190098.426276135
2.784,2190486.5484731724
2.785,2193146.4094436606
2.786,2199305.2766470816
2.787,2210135.532921143
2.788,2226723.349839712
2.789,2250039.097734563
2.79,2280910.361492001
2.791,2319998.37019619
2.792,2367778.560858978
2.793,2424525.8842197508
2.794,2490305.327212745
2.795,2564967.9762997557
2.796,2648152.7832522783
2.797,2739294.0254489137
2.798,2837634.2819579155
2.799,2942242.5803327644
2.8,3052037.2127801683
2.801,3165812.5794571275
2.802,3282269.2958795996
2.803,3400046.70483175
2.804,3517756.863941035
2.805,3634019.0404400313
2.806,3747493.735724565
2.807,3856915.284203269
2.808,3961122.122600391
2.809,4059083.9052783786
2.81,4149924.7453102637
2.811,4232941.986165045
2.812,4307620.050527047
2.813,4373639.066027143
2.814,4430878.1273027295
2.815,4479413.214510189
2.816,4519509.9449686995
2.817,4551611.482075065
2.818,4576322.059495577
2.819,4594386.694998512
2.82,4606667.763928295
2.821,4614119.1748174215
2.822,4617758.937407505
2.823,4618640.9356953865
2.824,4617826.715681598
2.825,4616358.070242438
2.826,4615231.153692968
2.827,4615372.788539492
2.828,4617619.539576395
2.829,4622700.029237858
2.83,4631220.856648219
2.831,4643656.364973476
2.832,4660342.381344105
2.833,4681473.93458766
2.834,4707106.841859436
2.835,4737162.949255934
2.836,4771438.716498895
2.837,4809616.754170115
2.838,4851279.855613418
2.839,4895927.015792828
2.84,4942990.896824627
2.841,4991856.184737915
2.842,5041878.283873549
2.843,5092401.813312622
2.844,5142778.402492629
2.845,5192383.3289987175
2.846,5240630.598376312
2.847,5286986.131436994
2.848,5330978.796510768
2.849,5372209.0999575
2.85,5410355.425524574
2.851,5445177.7894506175
2.852,5476519.151346465
2.853,5504304.388829039
2.854,5528537.104900386
2.855,5549294.489714415
2.856,5566720.501549008
2.857,5581017.664737694
2.858,5592437.804598553
2.859,5601272.050956894
2.86,5607840.442946771
2.861,5612481.458949042
2.862,5615541.777602063
2.863,5617366.549854467
2.864,5618290.4292503465
2.865,5618629.569414762
2.866,5618674.755498558
2.867,5618685.791642218
2.868,5618887.220817299
2.869,5619465.408137581
2.87,5620566.97524517
2.871,5622298.532886878
2.872,5624727.622364562
2.873,5627884.74505072
2.874,5631766.333292547
2.875,5636338.496262489
2.876,5641541.360919873
2.877,5647293.821289152
2.878,5653498.508600497
2.879,5660046.800159678
2.88,5666823.695633776
2.881,5673712.40513322
2.882,5680598.513298932
2.883,5687373.6067378195
2.884,5693938.277703465
2.885,5700204.443973752
2.886,5706096.95251452
2.887,5711554.461844137
2.888,5716529.624184614
2.889,5720988.612729192
2.89,5724910.060994405
2.891,5728283.4996831
2.892,5731107.391308628
2.893,5733386.873690186
2.894,5735131.330125026
2.895,5736351.906504738
2.896,5737059.093925098
2.897,5737260.489616612
2.898,5736958.839579261
2.899,5736150.453521146
2.9,5734824.067040959
2.901,5732960.207990843
2.902,5730531.104193514
2.903,5727501.148784761
2.904,5723827.918047542
2.905,5719463.715336531
2.906,5714357.59418899
2.907,5708457.794577054
2.908,5701714.509035357
2.909,5694082.880599439
2.91,5685526.122554289
2.911,5676018.641285388
2.912,5665549.0383332465
2.913,5654122.866277686
2.914,5641765.015430876
2.915,5628521.614517092
2.916,5614461.338487571
2.917,5599676.03019305
2.918,5584280.559556072
2.919,5568411.863803884
2.92,5552227.134812192
2.921,5535901.1441653
2.922,5519622.7225862555
2.923,5503590.437299557
2.924,5488007.53797889
2.925,5473076.268488003
2.926,5458991.666907488
2.927,5445934.999611252
2.928,5434066.995681609
2.929,5423521.065027811
2.93,5414396.696542356
2.931,5406753.240902274
2.932,5400604.285692722
2.933,5395912.827996094
2.934,5392587.441170789
2.935,5390479.6180971
2.936,5389382.452702083
2.937,5389030.79526225
2.938,5389102.9851645455
2.939,5389224.227998216
2.94,5388971.642742579
2.941,5387880.960264941
2.942,5385454.807362236
2.943,5381172.462322302
2.944,5374500.919716212
2.945,5364907.0552222775
2.946,5351870.6371430755
2.947,5334897.891347794
2.948,5313535.292072001
2.949,5287383.223691087
2.95,5256109.139499524
2.951,5219459.833769573
2.952,5177272.443826863
2.953,5129483.810223517
2.954,5076137.845693647
2.955,5017390.597513461
2.956,4953512.732899511
2.957,4884889.232554636
2.958,4812016.142448477
2.959,4735494.307083422
2.96,4656020.087198111
2.961,4574373.149142807
2.962,4491401.499799662
2.963,4408004.027475594
2.964,4325110.8930707015
2.965,4243662.194342369
2.966,4164585.3965624934
2.967,4088772.082702818
2.968,4017054.6230530534
2.969,3950183.3957122513
2.97,3888805.2038802644
2.971,3833443.531931368
2.972,3784481.25900283
2.973,3742146.4059751714
2.974,3706501.429574294
2.975,3677436.4968524002
2.976,3654667.076124488
2.977,3637736.068810832
2.978,3626020.583425856
2.979,3618743.32156029
2.98,3614988.4099759925
2.981,3613721.3770583314
2.982,3613812.8402431593
2.983,3614065.3481061826
2.984,3613242.710923474
2.985,3610101.060769451
2.986,3603420.8102706713
2.987,3592038.6310542263
2.988,3574878.5510683125
2.989,3550981.2758181333
2.99,3519530.872730306
2.991,3479878.0199254197
2.992,3431559.109230565
2.993,3374310.6059113806
2.994,3308078.2010413073
2.995,3233020.442537876
2.996,3149506.6928940606
2.997,3058109.4302283083
2.998,2959591.078874339
2.999,2854885.7206393066
3.0,2745076.1925038975
3.001,2631367.215681109
3.002,2515055.3198857317
3.003,2397496.42140116
3.004,2280071.9809341934
3.005,2164154.705170064
3.006,2051074.7632797114
3.007,1942087.4663743172
3.008,1838343.3051063765
3.009,1740861.1603593235
3.01,1650505.3972532507
3.011,1567967.4273268455
3.012,1493752.1821854922
3.013,1428169.7890527912
3.014,1371332.5797295147
3.015,1323157.404740141
3.016,1283373.069119361
3.017,1251532.560262056
3.018,1227029.6059846291
3.019,1209118.9862873624
3.02,1196939.9284255237
3.021,1189541.8441594949
3.022,1185911.6219857475
3.023,1185001.666410674
3.024,1185757.8807235176
3.025,1187146.8182443518
3.026,1188181.2779125741
3.027,1187943.6909278955
3.028,1185606.7329978272
3.029,1180450.6981952142
3.03,1171877.2818029795
3.031,1159419.5369764848
3.032,1142747.8897148627
3.033,1121672.214729555
3.034,1096140.0877772688
3.035,1066231.4346545583
3.036,1032149.8905122414
3.037,994211.2631016652
3.038,952829.5582057197
3.039,908501.0735934911
3.04,861787.0987011078
3.041,813295.7707818575
3.042,763663.6349258429
3.043,713537.4360619482
3.044,663556.637204771
3.045,614337.1115552812
3.046,566456.3986672075
3.047,520440.84903408197
3.048,476754.90955596225
3.049,435792.7268877817
3.05,397872.1691071507
3.051,363231.290824134
3.052,332027.1949792596
3.053,304337.178104857
3.054,280161.9864524452
3.055,259430.95949947328
3.056,242008.795991576
3.057,227703.64655249543
3.058,216276.21635330084
3.059,207449.55138436335
3.06,200919.18220400249
3.061,196363.3090385033
3.062,193452.7309117689
3.063,191860.24800389254
3.064,191269.29941904533
3.065,191381.63660334348
3.066,191923.87433778474
3.067,192652.80505976363
3.068,193359.40678069546
3.069,193871.51867375194
3.07,194055.20021576382
3.071,193814.828429905
3.072,193092.02230490875
3.073,191863.51306220554
3.074,190138.10300404098
3.075,187952.8738092967
3.076,185368.81716184792
3.077,182466.06651145668
3.078,179338.9087800284
3.079,176090.7493078542
3.08,172829.19280563007
3.081,169661.38818307017
3.082,166689.76660493243
3.083,164008.28078907527
3.084,161699.23025592777
3.085,159830.73282106777
3.086,158454.87793093128
3.087,157606.5732709835
3.088,157303.07315487147
3.089,157544.15617587214
3.09,158312.90101157041
3.091,159576.9935506766
3.092,161290.48597010644
3.093,163395.9192224012
3.094,165826.71466972865
3.095,168509.73827767462
3.096,171367.94171006154
3.097,174322.9886005629
3.098,177297.78089239734
3.099,180218.80904310342
3.1,183018.2606480877
3.101,185635.8341740255
3.102,188020.2175272562
3.103,190130.2046319709
3.104,191935.43659563543
3.105,193416.76696451986
3.106,194566.2626346042
3.107,195386.86285080903
3.108,195891.72813020655
3.109,196103.3186785982
3.11,196052.24779912157
3.111,195775.95984927038
3.112,195317.28448773443
3.113,194722.91932513457
3.114,194041.89176865274
3.115,193324.04799295551
3.116,192618.61278077518
3.117,191972.85868756942
3.118,191430.9168470248
3.119,191032.75500888878
3.12,190813.34134932564
3.121,190802.0054700603
3.122,191022.00104329368
3.123,191490.26797922168
3.124,192217.3859781624
3.125,193207.70603356237
3.126,194459.64199414692
3.127,195966.1007553242
3.128,197715.02707723682
3.129,199690.03742981981
3.13,201871.11662104202
3.131,204235.3512204836
3.132,206757.67486794232
3.133,209411.60235589533
3.134,212169.93177891927
3.135,215005.3969247574
3.136,217891.2553064794
3.137,220801.80066761756
3.138,223712.7923000388
3.139,226601.7969728527
3.14,229448.4425661798
3.141,232234.58553657032
3.142,234944.3970282211
3.143,237564.37472097322
3.144,240083.28932654794
3.145,242492.0759820551
3.146,244783.6816368309
3.147,246952.8798952942
3.148,248996.06469116476
3.149,250911.03366767344
3.15,252696.77127670613
3.151,254353.2404486881
3.152,255881.1902922446
3.153,257281.98572951328
3.154,258557.46333128976
3.155,259709.81595576118
3.156,260741.5071807608
3.157,261655.215011015
3.158,262453.80298921076
3.159,263140.31568372383
3.16,263717.9945968765
3.161,264190.3098550948
3.162,264561.0026148883
3.163,264834.132944319
3.164,265014.1280070583
3.165,265105.82566522335
3.166,265114.509100785
3.167,265045.92870067584
3.168,264906.30822113354
3.169,264702.3331033646
3.17,264441.1197158444
3.171,264130.16520998307
3.172,263777.27855941077
3.173,263390.49417627335
3.174,262977.970232776
3.175,262547.87444012443
3.176,262108.26053307828
3.177,261666.9390655613
3.178,261231.34633601474
3.179,260808.4153308715
3.18,260404.45250620676
3.181,260025.02403130065
3.182,259674.85480730166
3.183,259357.74316610317
3.184,259076.49366774477
3.185,258832.8698691774
3.186,258627.56835360537
3.187,258460.21470807138
3.188,258329.38153678618
3.189,258232.62801674716
3.19,258166.55995633424
3.191,258126.9088204765
3.192,258108.62774883336
3.193,258106.00222485463
3.194,258112.7727596181
3.195,258122.2667385202
3.196,258127.53644239588
3.197,258121.50019646887
3.198,258097.08361777675
3.199,258047.35801980124
3.2,257965.67318601633
3.201,257845.78193489945
3.202,257681.9541597573
3.203,257469.07832905382
3.204,257202.7487680062
3.205,256879.33740111327
3.206,256496.04900914006
3.207,256050.95943423113
3.208,255543.03654495868
3.209,254972.14414135902
3.21,254339.02933107276
3.211,253645.2942349095
3.212,252893.35317755069
3.213,252086.37678149703
3.214,251228.22460540224
3.215,250323.36814812777
3.216,249376.80617462166
3.217,248393.97440741936
3.218,247380.65166748504
3.219,246342.8645404879
3.22,245286.79259059817
3.221,244218.6760455366
3.222,243144.7277367996
3.223,242071.05090136954
3.224,241003.56424015848
3.225,239947.93538889525
3.226,238909.52369464014
3.227,237893.33291151357
3.228,236903.97413880617
3.229,235945.63902987237
3.23,235022.08300773017
3.231,234136.61793975503
3.232,233292.11345590913
3.233,232491.00584907312
3.234,231735.3132785188
3.235,231026.655814311
3.236,230366.27871695292
3.237,229755.07724782312
3.238,229193.62125614344
3.239,228682.17779077374
3.24,228220.73004248724
3.241,227808.99103583404
3.242,227446.41065926678
3.243,227132.17484646727
3.244,226865.1959978106
3.245,226644.09405403596
3.246,226467.1679981503
3.247,226332.35795838566
3.248,226237.19850501578
3.249,226178.7641658781
3.25,226153.6086170775
3.251,226157.6994230863
3.252,226186.35059012185
3.253,226234.15554383124
3.254,226294.9234326848
3.255,226361.6218785092
3.256,226426.3294329347
3.257,226480.20104256592
3.258,226513.44976803137
3.259,226515.347836995
3.26,226474.24983606354
3.261,226377.64046194608
3.262,226212.20876240302
3.263,225963.95021020994
3.264,225618.2972798425
3.265,225160.27845147447
3.266,224574.70476782613
3.267,223846.38223666415
3.268,222960.3475276847
3.269,221902.12358094123
3.27,220657.9909495311
3.271,219215.26996664476
3.272,217562.60818035254
3.273,215690.26696129327
3.274,213590.40077925005
3.275,211257.3223821612
3.276,208687.7470097277
3.277,205881.00884382066
3.278,202839.24314540907
3.279,199567.52795411198
3.28,196073.9798283121
3.281,192369.7988727561
3.282,188469.25922365385
3.283,184389.64222085132
3.284,180151.11067088108
3.285,175776.52386803835
3.286,171291.19436441132
3.287,166722.58883285278
3.288,162099.97671636552
3.289,157454.03166954368
3.29,152816.39203880174
3.291,148219.18776521762
3.292,143694.54209573416
3.293,139274.05732659515
3.294,134988.29445200172
3.295,130866.25702994014
3.296,126934.88978957047
3.297,123218.60247938473
3.298,119738.82918714026
3.299,116513.63285192334
3.3,113557.36394226605
3.301,110880.38130476978
3.302,108488.84201380392
3.303,106384.56569871427
3.304,104564.9773197849
3.305,103023.13074152944
3.306,101747.81374890791
3.307,100723.7334086248
3.308,99931.77893528763
3.309,99349.35752302076
3.31,98950.7969887422
3.311,98707.80758369183
3.312,98589.99400217022
3.313,98565.4074842586
3.314,98601.12700126856
3.315,98663.85785200346
3.316,98720.5356015898
3.317,98738.92317295322
3.318,98688.18905727938
3.319,98539.45504023736
3.32,98266.30253460155
3.321,97845.22754975845
3.322,97256.035490821
3.323,96482.16833557504
3.324,95510.95825241688
3.325,94333.8033592117
3.326,92946.26304126628
3.327,91348.07200437164
3.328,89543.07399360894
3.329,87539.07781839295
3.33,85347.63994880438
3.331,82983.77945009604
3.332,80465.63236747198
3.333,77814.05383243665
3.334,75052.1771109893
3.335,72204.93953421983
3.336,69298.58573109529
3.337,66360.1588153823
3.338,63416.99016407304
3.339,60496.19816993482
3.34,57624.205868363184
3.341,54826.28664649816
3.342,52126.146363295644
3.343,49545.54916973238
3.344,47103.99314858731
3.345,44818.440625609685
3.346,42703.10667201581
3.347,40769.30795617472
3.348,39025.372743487584
3.349,37476.61151979442
3.35,36125.34645482636
3.351,34970.996754949716
3.352,34010.21590185003
3.353,33237.07585502689
3.354,32643.292525894838
3.355,32218.486220386785
3.356,31950.470301306625
3.357,31825.561043073656
3.358,31828.901537695234
3.359,31944.79255583653
3.36,32157.023461446905
3.361,32449.196610400777
3.362,32805.03911847126
3.363,33208.696445231544
3.364,33645.0028903149
3.365,34099.72481807607
3.366,34559.7731968331
3.367,35013.38284024445
3.368,35450.2565520797
3.369,35861.67318350109
3.37,36240.55939689474
3.371,36581.5256765575
3.372,36880.867820079126
3.373,37136.53577284122
3.374,37348.072221505754
3.375,37516.52383268511
3.376,37644.328404438944
3.377,37735.18148740267
3.378,37793.886228092146
3.379,37826.19029035575
3.38,37838.61372529402
3.381,37838.27159043233
3.382,37832.694972464895
3.383,37829.653852944066
3.384,37836.98498254744
3.385,37862.42760760927
3.386,37913.469533637006
3.387,37997.20562598744
3.388,38120.21044911946
3.389,38288.42634385134
3.39,38507.067847126615
3.391,38780.54298028735
3.392,39112.39157794654
3.393,39505.24050707715
3.394,39960.775340243876
3.395,40479.72780179015
3.396,41061.878103464674
3.397,41706.07112708583
3.398,42410.245295572815
3.399,43171.47289784825
3.4,43986.01059437643
3.401,44849.35882410594
3.402,45756.32885524026
3.403,46701.116265965014
3.404,47677.37970117032
3.405,48678.323821480444
3.406,49696.78543595775
3.407,50725.321884577446
3.408,51756.300806550906
3.409,52781.99049222015
3.41,53794.650066929564
3.411,54786.61879340747
3.412,55750.40380422135
3.413,56678.76558829664
3.414,57564.80055676064
3.415,58402.02000578402
3.416,59184.42478063207
3.417,59906.57492931084
3.418,60563.6536198292
3.419,61151.52458613642
3.42,61666.782368093605
3.421,62106.794623968955
3.422,62469.735823027986
3.423,62754.611673333115
3.424,62961.273707655746
3.425,63090.42353941541
3.426,63143.606410907196
3.427,63123.19378700057
3.428,63032.354897369645
3.429,62875.01729672021
3.43,62655.8166922494
3.431,62380.03647690896
3.432,62053.537601616285
3.433,61682.67961464126
3.434,61274.23388699395
3.435,60835.29022361771
3.436,60373.15822642645
3.437,59895.26492172025
3.438,59409.05028654659
3.439,58921.86240181439
3.44,58440.854020601466
3.441,57972.88236494386
3.442,57524.41395102456
3.443,57101.43618950597
3.444,56709.37741413593
3.445,56353.03685808664
3.446,56036.52592523175
3.447,55763.221895324285
3.448,55535.73496153653
3.449,55355.88923089324
3.45,55224.71802863887
3.451,55142.47354331631
3.452,55108.65053784959
3.453,55122.02354133058
3.454,55180.69663494333
3.455,55282.16466200243
3.456,55423.3844346734
3.457,55600.85428627566
3.458,55810.7001349946
3.459,56048.766088080156
3.46,56310.707529560146
3.461,56592.08460196602
3.462,56888.454014688636
3.463,57195.45718772668
3.464,57508.90286738168
3.465,57824.84252583856
3.466,58139.637073963044
3.467,58450.013669144435
3.468,58753.11167965059
3.469,59046.517165022175
3.47,59328.28553936828
3.471,59596.95239179515
3.472,59851.53273660178
3.473,60091.5092468588
3.474,60316.81028092023
3.475,60527.77873573001
3.476,60725.132948139406
3.477,60909.92101187527
3.478,61083.469980742324
3.479,61247.33148700138
3.48,61403.22531792874
3.481,61552.98246493824
3.482,61698.489091131516
3.483,61841.63275856999
3.484,61984.252120630175
3.485,62128.091122888545
3.486,62274.758573939376
3.487,62425.69375153043
3.488,62582.13850566145
3.489,62745.11611501683
3.49,62915.416952254214
3.491,63093.590822825776
3.492,63279.94566624749
3.493,63474.552152519595
3.494,63677.2535734969
3.495,63887.68032239379
3.496,64105.26817643079
3.497,64329.279549162275
3.498,64558.826860650275
3.499,64792.89718485378
3.5,65030.377372993025
3.501,65270.078916987964
3.502,65510.76190532877
3.503,65751.15753116769
3.504,65989.98873465508
3.505,66225.98869369789
3.506,66457.91701414072
3.507,66684.57360638361
3.508,66904.81036513034
3.509,67117.5408869163
3.51,67321.74856123324
3.511,67516.49345091394
3.512,67700.91843214324
3.513,67874.25509110745
3.514,68035.82987102294
3.515,68185.07092943159
3.516,68321.51610183358
3.517,68444.8222758929
3.518,68554.77636386787
3.519,68651.30792411177
3.52,68734.50333111754
3.521,68804.62123425602
3.522,68862.1088854026
3.523,68907.61876282426
3.524,68942.02478087644
3.525,68966.4372598835
3.526,68982.21574511073
3.527,68990.97871412129
3.528,68994.6092029474
3.529,68995.25541676398
3.53,68995.32547176495
3.531,68997.47554142149
3.532,69004.59084998045
3.533,69019.75916467965
3.534,69046.23667955164
3.535,69087.40644997037
3.536,69146.72981889202
3.537,69227.69156252757
3.538,69333.73976365791
3.539,69468.22168332274
3.54,69634.31713465547
3.541,69834.9710552683
3.542,70072.82711694638
3.543,70350.16429513086
3.544,70668.83833931483
3.545,71030.23003486687
3.546,71435.20202528736
3.547,71884.06577256786
3.548,72376.55997603561
3.549,72911.84145347081
3.55,73488.48912166692
3.551,74104.52130862906
3.552,74757.42619996404
3.553,75444.20478295808
3.554,76161.42521963602
3.555,76905.28717142137
3.556,77671.69422928747
3.557,78456.33228999912
3.558,79254.75147507989
3.559,80062.44902617937
3.56,80874.95053744433
3.561,81687.88690797274
3.562,82497.06451752035
3.563,83298.52634461982
3.564,84088.60205262141
3.565,84863.9454565927
3.566,85621.55823979113
3.567,86358.79929676041
3.568,87073.37962270637
3.569,87763.34322553943
3.57,88427.03508658489
3.571,89063.05771690483
3.572,89670.21832742872
3.573,90247.4690329757
3.574,90793.84282524567
3.575,91308.38826329807
3.576,91790.10593078515
3.577,92237.88969015845
3.578,92650.47562256968
3.579,93026.40128028701
3.58,93363.97750299703
3.581,93661.27457195238
3.582,93916.1239126591
3.583,94126.13592789334
3.584,94288.73387206341
3.585,94401.20299189627
3.586,94460.75348571253
3.587,94464.59520373597
3.588,94410.02145444918
3.589,94294.49882519217
3.59,94115.75959479406
3.591,93871.89313417379
3.592,93561.43267489401
3.593,93183.4339870854
3.594,92737.54285168364
3.595,92224.0487347113
3.596,91643.92276254745
3.597,90998.8389376507
3.598,90291.17849675604
3.599,89524.01836311164
3.6,88701.10573882255
3.601,87826.8219749163
3.602,86906.13989300725
3.603,85944.57965843144
3.604,84948.16906484113
3.605,83923.41463050146
3.606,82877.29017692532
3.607,81817.24951745258
3.608,80751.26949218582
3.609,79687.92882268853
3.61,78636.52711450984
3.611,77607.24681223229
3.612,76611.35903077603
3.613,75661.4719854715
3.614,74771.8182763846
3.615,73958.57462069743
3.616,73240.20485737886
3.617,72637.81427153587
3.618,72175.50061373053
3.619,71880.68474250606
3.62,71784.4017213412
3.621,71921.5315796398
3.622,72330.94792240174
3.623,73055.56225712782
3.624,74142.24239747843
3.625,75641.58468045128
3.626,77607.52205286437
3.627,80096.7533711695
3.628,83167.98351172658
3.629,86880.9690675155
3.63,91295.37043594308
3.631,96469.41786729383
3.632,102458.40639344479
3.633,109313.04230489863
3.634,117077.67177137561
3.635,125788.43005912319
3.636,135471.35731604416
3.637,146140.5337873114
3.638,157796.29329534722
3.639,170423.57857640457
3.64,183990.50533026518
3.641,198447.20335003166
3.642,213725.0026277923
3.643,229736.0296933391
3.644,246373.27450319845
3.645,263511.1808827405
3.646,281006.80383014114
3.647,298701.5649869916
3.648,316423.6234145998
3.649,333990.86271658645
3.65,351214.47782693733
3.651,367903.1258258368
3.652,383867.58541341685
3.653,398925.8496884307
3.654,412908.55722276424
3.655,425664.6477118473
3.656,437067.1113581829
3.657,447018.6862599694
3.658,455457.3460662411
3.659,462361.4116280789
3.66,467754.1158719978
3.661,471707.45112088346
3.662,474345.1329681395
3.663,475844.52483510436
3.664,476437.3826410334
3.665,476409.29957291996
3.666,476097.7565851978
3.667,475888.7146480359
3.668,476211.7193911079
3.669,477533.52698582155
3.67,480350.30104384955
3.671,485178.4730094975
3.672,492544.40188758634
3.673,502973.01197370316
3.674,516975.6282617146
3.675,535037.2670741576
3.676,557603.6728686201
3.677,585068.4198251953
3.678,617760.417499006
3.679,655932.1724269077
3.68,699749.1611665303
3.681,749280.6640750935
3.682,804492.3926967974
3.683,865241.2166814514
3.684,931272.258759359
3.685,1002218.5788203742
3.686,1077603.6112887398
3.687,1156846.454781525
3.688,1239270.0408434677
3.689,1324112.1310282736
3.69,1410539.010688086
3.691,1497661.6657202716
3.692,1584554.147573981
3.693,1670273.754536473
3.694,1753882.586257669
3.695,1834469.966168399
3.696,1911175.1753384536
3.697,1983209.903650383
3.698,2049879.8019022024
3.699,2110604.513201694
3.7,2164935.5749381497
3.701,2212571.6143602845
3.702,2253370.311423397
3.703,2287356.6715486054
3.704,2314727.237074119
3.705,2335849.9676401154
3.706,2351259.6340788538
3.707,2361648.694547134
3.708,2367853.752101547
3.709,2370837.8257328104
3.71,2371668.7978106323
3.711,2371494.5255633756
3.712,2371515.2182517317
3.713,2372953.7808875805
3.714,2377024.9058308615
3.715,2384903.7520022225
3.716,2397695.0850638775
3.717,2416403.7588172695
3.718,2441907.3972075004
3.719,2474932.08764083
3.72,2516031.820745836
3.721,2565572.3111735485
3.722,2623719.71142337
3.723,2690434.5897531784
3.724,2765471.3884777157
3.725,2848383.415454274
3.726,2938533.2547670077
3.727,3035108.3182051387
3.728,3137141.1027083136
3.729,3243533.5758964187
3.73,3353084.987023527
3.731,3464522.298457489
3.732,3576532.3565343334
3.733,3687794.8728711535
3.734,3797015.26940799
3.735,3902956.452970522
3.736,4004468.627296854
3.737,4100516.32050298
3.738,4190201.901158034
3.739,4272784.972941288
3.74,4347697.172000127
3.741,4414552.03783932
3.742,4473149.782728035
3.743,4523476.940953457
3.744,4565701.032574463
3.745,4600160.521674137
3.746,4627350.481927165
3.747,4647904.49860205
3.748,4662573.432608997
3.749,4672201.746361609
3.75,4677702.141362704
3.751,4680029.282736791
3.752,4680153.386460074
3.753,4679034.421654677
3.754,4677597.634648983
3.755,4676711.035865485
3.756,4677165.407850909
3.757,4679657.296222554
3.758,4684775.338592241
3.759,4692990.173441203
3.76,4704648.055291054
3.761,4719968.188091356
3.762,4739043.679056165
3.763,4761845.9134447845
3.764,4788232.059802438
3.765,4817955.337280849
3.766,4850677.613641226
3.767,4885983.855633706
3.768,4923397.923304579
3.769,4962399.186496462
3.77,5002439.444929288
3.771,5042959.651838058
3.772,5083405.973814638
3.773,5123244.764503108
3.774,5161976.085084609
3.775,5199145.467799654
3.776,5234353.687706221
3.777,5267264.380028599
3.778,5297609.413417827
3.779,5325192.00093188
3.78,5349887.598440563
3.781,5371642.702587136
3.782,5390471.715795533
3.783,5406452.0928116795
3.784,5419718.020958413
3.785,5430452.914060483
3.786,5438881.017598444
3.787,5445258.43014944
3.788,5449863.8439506395
3.789,5452989.296138549
3.79,5454931.202777173
3.791,5455981.9212910235
3.792,5456422.054617947
3.793,5456513.673647003
3.794,5456494.594717579
3.795,5456573.807543253
3.796,5456928.1072651865
3.797,5457699.943733536
3.798,5458996.462745951
3.799,5460889.678880497
3.8,5463417.688620155
3.801,5466586.806368804
3.802,5470374.485203473
3.803,5474732.8690987835
3.804,5479592.814010147
3.805,5484868.211543217
3.806,5490460.450731495
3.807,5496262.860305093
3.808,5502164.985246704
3.809,5508056.566776399
3.81,5513831.1134864
3.811,5519388.9724079
3.812,5524639.831553454
3.813,5529504.609155133
3.814,5533916.708643328
3.815,5537822.641655162
3.816,5541182.043352331
3.817,5543967.124464226
3.818,5546161.62223473
3.819,5547759.327413087
3.82,5548762.2762612095
3.821,5549178.705022879
3.822,5549020.869286527
3.823,5548302.832143625
3.824,5547038.323064904
3.825,5545238.764141205
3.826,5542911.552000528
3.827,5540058.672626008
3.828,5536675.712832281
3.829,5532751.316733246
3.83,5528267.11861728
3.831,5523198.165731468
3.832,5517513.826077658
3.833,5511179.1579613965
3.834,5504156.700227175
3.835,5496408.625362563
3.836,5487899.182437698
3.837,5478597.343607618
3.838,5468479.557041832
3.839,5457532.501003615
3.84,5445755.728665532
3.841,5433164.091334607
3.842,5419789.82921365
3.843,5405684.223709191
3.844,5390918.713594271
3.845,5375585.388944043
3.846,5359796.791497606
3.847,5343684.967689493
3.848,5327399.740686357
3.849,5311106.189928433
3.85,5294981.350409435
3.851,5279210.168667475
3.852,5263980.777583973
3.853,5249479.176935866
3.854,5235883.4305281965
3.855,5223357.512944971
3.856,5212044.958793952
3.857,5202062.484104164
3.858,5193493.762619733
3.859,5186383.54853487
3.86,5180732.341222925
3.861,5176491.786313529
3.862,5173561.000764225
3.863,5171783.997183804
3.864,5170948.364562778
3.865,5170785.338874476
3.866,5170971.368011369
3.867,5171131.241662956
3.868,5170842.8186361985
3.869,5169643.342537902
3.87,5167037.292601065
3.871,5162505.670798685
3.872,5155516.580417961
3.873,5145536.90622434
3.874,5132044.863548393
3.875,5114543.144426928
3.876,5092572.3546626195
3.877,5065724.407625856
3.878,5033655.520013448
3.879,4996098.442677201
3.88,4952873.556948384
3.881,4903898.474311701
3.882,4849195.795280951
3.883,4788898.712081319
3.884,4723254.179133008
3.885,4652623.424923487
3.886,4577479.637887384
3.887,4498402.726291094
3.888,4416071.126428331
3.889,4331250.712955558
3.89,4244780.947941375
3.891,4157558.4889478334
3.892,4070518.558799165
3.893,3984614.4580989378
3.894,3900795.673454432
3.895,3819985.0972086797
3.896,3743055.9258283954
3.897,3670808.8417096892
3.898,3603950.105087357
3.899,3543071.1873821574
3.9,3488630.5635576667
3.901,3440938.2482683067
3.902,3400143.60872543
3.903,3366226.9168723864
3.904,3338995.0158695676
3.905,3318081.372919598
3.906,3302950.6746073747
3.907,3292907.9952615933
3.908,3287112.436938611
3.909,3284595.005465751
3.91,3284280.354823816
3.911,3285011.9064064235
3.912,3285579.7347649075
3.913,3284750.511554865
3.914,3281298.7184239444
3.915,3274038.280893789
3.916,3261853.7416077834
3.917,3243730.08456522
3.918,3218780.3431695574
3.919,3186270.174140409
3.92,3145638.6556249787
3.921,3096514.6692405134
3.922,3038728.3493732414
3.923,2972317.2250699177
3.924,2897526.83576126
3.925,2814805.7667458043
3.926,2724795.2183382134
3.927,2628313.3881621384
3.928,2526335.103592396
3.929,2419967.285424456
3.93,2310420.9495344125
3.931,2198980.5563073545
3.932,2086971.594493486
3.933,1975727.3343863892
3.934,1866555.7033341038
3.935,1760707.2242073105
3.936,1659344.9152675855
3.937,1563516.9796609834
3.938,1474133.017235625
3.939,1391944.3741240818
3.94,1317529.1108202264
3.941,1251281.9221209018
3.942,1193409.187438116
3.943,1143929.1729011217
3.944,1102677.2525879266
3.945,1069315.8701374487
3.946,1043348.8284662241
3.947,1024139.378350954
3.948,1010931.4795544143
3.949,1002873.5334987408
3.95,999043.8359146508
3.951,998476.972234792
3.952,1000190.3777057037
3.953,1003210.3073885398
3.954,1006596.5067620864
3.955,1009464.939215637
3.956,1011008.0094400016
3.957,1010511.8182650015
3.958,1007370.0912134064
3.959,1001094.536133315
3.96,991321.5008854673
3.961,977814.9164446768
3.962,960465.6203858821
3.963,939287.2573474605
3.964,914409.0438921592
3.965,886065.7628985005
3.966,854585.4154283315
3.967,820375.004712137
3.968,783904.9568333619
3.969,745692.6958050659
3.97,706285.8874859738
3.971,666245.8481438035
3.972,626131.5808451719
3.973,586484.8580055545
3.974,547816.7134329799
3.975,510595.6443168521
3.976,475237.7552433294
3.977,442099.0048949559
3.978,411469.64400722325
3.979,383570.86268472165
3.98,358553.5984181799
3.981,336499.3949451651
3.982,317423.1480306202
3.983,301277.52855904656
3.984,287958.8369381108
3.985,277314.01627465675
3.986,269148.53531306336
3.987,263234.84560469736
3.988,259321.12037946744
3.989,257139.9944138373
3.99,256417.04389537842
3.991,256878.77174179975
3.992,258259.8957690546
3.993,260309.7731522506
3.994,262797.8333753491
3.995,265517.9319170531
3.996,268291.5769172995
3.997,270970.01974885585
3.998,273435.236645162
3.999,275599.86132682196
4.0,277406.1571193662
4.001,278824.14074903156
4.002,279848.9884241451
4.003,280497.86773806537
4.004,280806.3463379945
4.005,280824.53034425096
4.006,280613.0824908239
4.007,280239.2623449992
4.008,279773.1193224904
4.009,279283.9542052927
4.01,278837.1472147343
4.011,278491.43114836665
4.012,278296.66742010263
4.013,278292.1617942023
4.014,278505.535880435
4.015,278952.1507047305
4.016,279635.0604546983
4.017,280545.4583008576
4.018,281663.56239206484
4.019,282959.87899372604
4.02,284396.7714511603
4.021,285930.2582862634
4.022,287511.961243923
4.023,289091.1243761023
4.024,290616.628087075
4.025,292038.9271961315
4.026,293311.84918283625
4.027,294394.19750269916
4.028,295251.1148097509
4.029,295855.17169656913
4.03,296187.15776257805
4.031,296236.56306237733
4.032,296001.7489066617
4.033,295489.81726254616
4.034,294716.1973435878
4.035,293703.97615643736
4.036,292483.0065970612
4.037,291088.83203547087
4.038,289561.47011924454
4.039,287944.1007415908
4.04,286281.7037884732
4.041,284619.6914767379
4.042,283002.5779373337
4.043,281472.7253350635
4.044,280069.20142680866
4.045,278826.7782419148
4.046,277775.0957322298
4.047,276938.0080013366
4.048,276333.1232974367
4.049,275971.54254869587
4.05,275857.7950264456
4.051,275989.9639145262
4.052,276359.9892936142
4.053,276954.1314431957
4.054,277753.57351873675
4.055,278735.13964652433
4.056,279872.10233360133
4.057,281135.0518270202
4.058,282492.7996604473
4.059,283913.2890577149
4.06,285364.48606135364
4.061,286815.22714012983
4.062,288236.00150896003
4.063,289599.6493618717
4.064,290881.96056108794
4.065,292062.16192626144
4.066,293123.28501061734
4.067,294052.4100216612
4.068,294840.78523565736
4.069,295483.82476849976
4.07,295980.99081302073
4.071,296335.56935900217
4.072,296554.35091588396
4.073,296647.22981285834
4.074,296626.7372252066
4.075,296507.52415289136
4.076,296305.81115554576
4.077,296038.8217387469
4.078,295724.21591391694
4.079,295379.53965352214
4.08,295021.7047790007
4.081,294666.51230325445
4.082,294328.2304605659
4.083,294019.236656329
4.084,293749.7304208695
4.085,293527.5222199598
4.086,293357.9007219862
4.087,293243.578907649
4.088,293184.7172877226
4.089,293179.0205173855
4.09,293221.901905061
4.091,293306.70874554804
4.092,293425.00008974946
4.093,293566.8675169574
4.094,293721.2887129575
4.095,293876.5031830071
4.096,294020.39924056036
4.097,294140.9015012093
4.098,294226.3484613506
4.099,294265.8503319201
4.1,294249.6181040389
4.101,294169.2558168891
4.102,294018.009147225
4.103,293790.9647114776
4.104,293485.19583137776
4.105,293099.8519282134
4.106,292636.19014569477
4.107,292097.549224612
4.108,291489.2670335628
4.109,290818.544470817
4.11,290094.25966739515
4.111,289326.73751817766
4.112,288527.48052708316
4.113,287708.86775820365
4.114,286883.8293249129
4.115,286065.50431457517
4.116,285266.89033234445
4.117,284500.49295195605
4.118,283777.9832861151
4.119,283109.8716391775
4.12,282505.2047885834
4.121,281971.293870232
4.122,281513.4791307724
4.123,281134.93697322084
4.124,280836.5337802151
4.125,280616.72997225006
4.126,280471.53666854685
4.127,280394.52618895314
4.128,280376.89649022283
4.129,280407.58849300107
4.13,280473.4541503014
4.131,280559.47205671953
4.132,280649.0064212197
4.133,280724.10434432916
4.134,280765.8255699548
4.135,280754.59823712305
4.136,280670.59364908823
4.137,280494.11271461623
4.138,280205.9765036375
4.139,279787.91329831345
4.14,279222.9346089486
4.141,278495.6928569811
4.142,277592.81379640684
4.143,276503.1972396742
4.144,275218.2802612949
4.145,273732.257757285
4.146,272042.2560248517
4.147,270148.45587739133
4.148,268054.1627074231
4.149,265765.8218372121
4.15,263292.97843676055
4.151,260648.18222570088
4.152,257846.8380947795
4.153,254907.0046708895
4.154,251849.14369539305
4.155,248695.82387878126
4.156,245471.3836271642
4.157,242201.557700728
4.158,238913.0734554973
4.159,235633.22283291188
4.16,232389.41669309535
4.161,229208.7284340236
4.162,226117.43409719126
4.163,223140.5563280103
4.164,220301.41963323313
4.165,217621.2243552348
4.166,215118.64666100877
4.167,212809.47161924193
4.168,210706.266109074
4.169,208818.0978668701
4.17,207150.30643114555
4.171,205704.33109054912
4.172,204477.60017709227
4.173,203463.4851802696
4.174,202651.32219352273
4.175,202026.5021516513
4.176,201570.63018834943
4.177,201261.75325230157
4.178,201074.65388666268
4.179,200981.20682174296
4.18,200950.79377849706
4.181,200950.77065739606
4.182,200946.9801214924
4.183,200904.30150290235
4.184,200787.22899753303
4.185,200560.46829180818
4.186,200189.54111375078
4.187,199641.38674267617
4.188,198884.949266894
4.189,197891.739362716
4.19,196636.35959101273
4.191,195096.98267408373
4.192,193255.77292403084
4.193,191099.24193606016
4.194,188618.53082162552
4.195,185809.6126162131
4.196,182673.41002807973
4.197,179215.82536526542
4.198,175447.68125196552
4.199,171384.57258144126
4.2,167046.63200798843
4.201,162458.2131104988
4.202,157647.4971199985
4.203,152646.0307493721
4.204,147488.2041536598
4.205,142210.67934567176
4.206,136851.78046057114
4.207,131450.8580764767
4.208,126047.64033434958
4.209,120681.5838448578
4.21,115391.23731545713
4.211,110213.63047826366
4.212,105183.70025686498
4.213,100333.76519404449
4.214,95693.05799564435
4.215,91287.32465815725
4.216,87138.4970745199
4.217,83264.44429412938
4.218,79678.80579310622
4.219,76390.90823552459
4.22,73405.76532313562
4.221,70724.15848733111
4.222,68342.7944186421
4.223,66254.53379920447
4.224,64448.684141810336
4.225,62911.34837999177
4.226,61625.819825856735
4.227,60573.01333838341
4.228,59731.92203973758
4.229,59080.08868860789
4.23,58594.080867635654
4.231,58249.95945929623
4.232,58023.730456362115
4.233,57891.77095789592
4.234,57831.22121208711
4.235,57820.3357504873
4.236,57838.787977486914
4.237,57867.92399436482
4.238,57890.96290728395
4.239,57893.142351013405
4.24,57861.80941346523
4.241,57786.4585308262
4.242,57658.71920271876
4.243,57472.29751914693
4.244,57222.87646869358
4.245,56907.980788978355
4.246,56526.812710444705
4.247,56080.06532434679
4.248,55569.720473207104
4.249,54998.83802136779
4.25,54371.34312507561
4.251,53691.81770196659
4.252,52965.3017199209
4.253,52197.10921019863
4.254,51392.66308783538
4.255,50557.351963872585
4.256,49696.41119057742
4.257,48814.82942382325
4.258,47917.281046696466
4.259,47008.083903666724
4.26,46091.1809710327
4.261,45170.143859100266
4.262,44248.19542292774
4.263,43328.24826536839
4.264,42412.95555784847
4.265,41504.770385501666
4.266,40606.009744072144
4.267,39718.919372256794
4.268,38845.73578682862
4.269,37988.742187467215
4.27,37150.31529930503
4.271,36332.96070703577
4.272,35539.33478655439
4.273,34772.25193892135
4.274,34034.67645685417
4.275,33329.69898587021
4.276,32660.49816110747
4.277,32030.28858822574
4.278,31442.256875555548
4.279,30899.487899517873
4.28,30404.883883066108
4.281,29961.079176610358
4.282,29570.35384420147
4.283,29234.54926896871
4.284,28954.988997972992
4.285,28732.407947619435
4.286,28566.892889245846
4.287,28457.836835912014
4.288,28403.90956387287
4.289,28403.046036359305
4.29,28452.4539660511
4.291,28548.641170982024
4.292,28687.462763245363
4.293,28864.18757876169
4.294,29073.58262839011
4.295,29310.013745046665
4.296,29567.56003732059
4.297,29840.13925572238
4.298,30121.640750253115
4.299,30406.062362716013
4.3,30687.64736700091
4.301,30961.01745551517
4.302,31221.297776801828
4.303,31464.230161369618
4.304,31686.270929218066
4.305,31884.670048878495
4.306,32057.528905462823
4.307,32203.834521854966
4.308,32323.468746887258
4.309,32417.191658060405
4.31,32486.599202408015
4.311,32534.055893798748
4.312,32562.604173362375
4.313,32575.852796395542
4.314,32577.847308983255
4.315,32572.92629681238
4.316,32565.567605452045
4.317,32560.229126772465
4.318,32561.189004761545
4.319,32572.39022452987
4.32,32597.294504157202
4.321,32638.750208572637
4.322,32698.878651335595
4.323,32778.98265254759
4.324,32879.48059261992
4.325,32999.86846021335
4.326,33138.71156029547
4.327,33293.66665016964
4.328,33461.53433524444
4.329,33638.340611552325
4.33,33819.44551853172
4.331,33999.67599293197
4.332,34173.4792211059
4.333,34335.09209834567
4.334,34478.72184305493
4.335,34598.73239927543
4.336,34689.83100768345
4.337,34747.24924190769
4.338,34766.912897826514
4.339,34745.595386860005
4.34,34681.0497132581
4.341,34572.11469790962
4.342,34418.79183038848
4.343,34222.28996571303
4.344,33985.03600795843
4.345,33710.65071197408
4.346,33403.88975762305
4.347,33070.55127772693
4.348,32717.35202068511
4.349,32351.775271718554
4.35,31981.894514680112
4.351,31616.177563630918
4.352,31263.276507341507
4.353,30931.809271785234
4.354,30630.138901146012
4.355,30366.15677721388
4.356,30147.075935680783
4.357,29979.240396356847
4.358,29867.95600849044
4.359,29817.347733062677
4.36,29830.247556833012
4.361,29908.116378167004
4.362,30051.00224632869
4.363,30257.536301301683
4.364,30524.966680194484
4.365,30849.229560481122
4.366,31225.05543213845
4.367,31646.107662441744
4.368,32105.149469940505
4.369,32594.234587054343
4.37,33104.91618990305
4.371,33628.46813165445
4.372,34156.112149458386
4.373,34679.244537309336
4.374,35189.65579459294
4.375,35679.73697326039
4.376,36142.66685005177
4.377,36572.574632451215
4.378,36964.67365087907
4.379,37315.362372564516
4.38,37622.29006761025
4.381,37884.38553426629
4.382,38101.84841494313
4.383,38276.10377191422
4.384,38409.72170633143
4.385,38506.30486105891
4.386,38570.347613598715
4.387,38607.07160952906
4.388,38622.24298269111
4.389,38621.97713379865
4.39,38612.537277550124
4.391,38600.13310897787
4.392,38590.725878265745
4.393,38589.84590166449
4.394,38602.42808293702
4.395,38632.67038966732
4.396,38683.91944222383
4.397,38758.58645576311
4.398,38858.095757311596
4.399,38982.86701397319
4.4,39132.331190299104
4.401,39304.9791396053
4.402,39498.44066226332
4.403,39709.590869187734
4.404,39934.679803893996
4.405,40169.480531019624
4.406,40409.45031790099
4.407,40649.899138027715
4.408,40886.15952416207
4.409,41113.75180119365
4.41,41328.53893412027
4.411,41526.86562774803
4.412,41705.67689799737
4.413,41862.61208012804
4.414,41996.07112131386
4.415,42105.250993765934
4.416,42190.15112641081
4.417,42251.54785195858
4.418,42290.9389648483
4.419,42310.46054691814
4.42,42312.779205931096
4.421,42300.96375402145
4.422,42278.34109904299
4.423,42248.341706574145
4.424,42214.34039418542
4.425,42179.49842865075
4.426,42146.6129035772
4.427,42117.979178457324
4.428,42095.271765956284
4.429,42079.44847418004
4.43,42070.681862490106
4.431,42068.3211762323
4.432,42070.886915251525
4.433,42076.09909476664
4.434,42080.939109405415
4.435,42081.74394808738
4.436,42074.33036587674
4.437,42054.145535458825
4.438,42016.43971066568
4.439,41956.45557018701
4.44,41869.62820053541
4.441,41751.7891484641
4.442,41599.36764425176
4.443,41409.58198272352
4.444,41180.61415648108
4.445,40911.76116689215
4.446,40603.55698751588
4.447,40257.85990966048
4.448,39877.90094200223
4.449,39468.29004084847
4.45,39034.97818438249
4.451,38585.17463802063
4.452,38127.220149977315
4.453,37670.418224691886
4.454,37224.82800384537
4.455,36801.02359700012
4.456,36409.82590428615
4.457,36062.01402237046
4.458,35768.02418630786
4.459,35537.644842905014
4.46,35379.71685113819
4.461,35301.847944125824
4.462,35310.15045500836
4.463,35409.010903774884
4.464,35600.89936982678
4.465,35886.22565031599
4.466,36263.248049315094
4.467,36728.03928718881
4.468,37274.51249906183
4.469,37894.50864730816
4.47,38577.94495097772
4.471,39313.0221833371
4.472,40086.48695699665
4.473,40883.94345422169
4.474,41690.20751640109
4.475,42489.69462694862
4.476,43266.83214781574
4.477,44006.485237810964
4.478,44694.38522140135
4.479,45317.548812958725
4.48,45864.676549184136
4.481,46326.51904922979
4.482,46696.20030694665
4.483,46969.48811331824
4.484,47145.002891699245
4.485,47224.357678072935
4.486,47212.22365969151
4.487,47116.31755776895
4.488,46947.30915690519
4.489,46718.64939414988
4.49,46446.3215687392
4.491,46148.52036171253
4.492,45845.265403914935
4.493,45557.9580428597
4.494,45308.891677170715
4.495,45120.72749915621
4.496,45015.94866410203
4.497,45016.30674859652
4.498,45142.27483738965
4.499,45412.52166629525
4.5,45843.42093542931
4.501,46448.60919199795
4.502,47238.60457611841
4.503,48220.497249956104
4.504,49397.720524665085
4.505,50769.909607135036
4.506,52332.85256525426
4.507,54078.53562070359
4.508,55995.28229335435
4.509,58067.983316957354
4.51,60278.41170010321
4.511,62605.61489734891
4.512,65026.37385812995
4.513,67515.71680547205
4.514,70047.47402466674
4.515,72594.85876603243
4.516,75131.05862572216
4.517,77629.8214907792
4.518,80066.02033112948
4.519,82416.18178849362
4.52,84658.96463148379
4.521,86775.5756837071
4.522,88750.11273991622
4.523,90569.82620413533
4.524,92225.29364284598
4.525,93710.50406727675
4.526,95022.85145773225
4.527,96163.0397332792
4.528,97134.90396592024
4.529,97945.15505686394
4.53,98603.05725698436
4.531,99120.04975608067
4.532,99509.32502907942
4.533,99785.3776676908
4.534,99963.5380133278
4.535,100059.50502663178
4.536,100088.89248165385
4.537,100066.80177509434
4.538,100007.43342438391
4.539,99923.74773799484
4.54,99827.18323466726
4.541,99727.43923301279
4.542,99632.32670509623
4.543,99547.68906854119
4.544,99477.39216580948
4.545,99423.3803310607
4.546,99385.79325627132
4.547,99363.13641563394
4.548,99352.49615935476
4.549,99349.78930333492
4.55,99350.03616617067
4.551,99347.64557186977
4.552,99336.70036293105
4.553,99311.23245525482
4.554,99265.47739867531
4.555,99194.09975345031
4.556,99092.38230695284
4.557,98956.37417480076
4.558,98782.99508265972
4.559,98570.09552418295
4.56,98316.47494404088
4.561,98021.86250444851
4.562,97686.86725855412
4.563,97312.90657523325
4.564,96902.12334262319
4.565,96457.30373565672
4.566,95981.80809094523
4.567,95479.52763032758
4.568,94954.87936945447
4.569,94412.85051702987
4.57,93859.10201266517
4.571,93300.13858861242
4.572,92743.54991839957
4.573,92198.32410245633
4.574,91675.23102850352
4.575,91187.26914481468
4.576,90750.1650277305
4.577,90382.91095634959
4.578,90108.32168368262
4.579,89953.5878780857
4.58,89950.80046675049
4.581,90137.41750639037
4.582,90556.64338825953
4.583,91257.68929426768
4.584,92295.88397755375
4.585,93732.60523895468
4.586,95635.00497523046
4.587,98075.50441669705
4.588,101131.04114470076
4.589,104882.05563668763
4.59,109411.21234025089
4.591,114801.85849686808
4.592,121136.23294866024
4.593,128493.44675508545
4.594,136947.26737192902
4.595,146563.74812093555
4.596,157398.75439718697
4.597,169495.4471957313
4.598,182881.79275073457
4.599,197568.17402934103
4.6,213545.18517636138
4.601,230781.69345145507
4.602,249223.25445389017
4.603,268790.9652481753
4.604,289380.83619514824
4.605,310863.7557272092
4.606,333086.1129236149
4.607,355871.1305607732
4.608,379020.9464365033
4.609,402319.4633881339
4.61,425535.9688245964
4.611,448429.503144824
4.612,470753.933577967
4.613,492263.6662949089
4.614,512719.9057165156
4.615,531897.3464526967
4.616,549591.1609632388
4.617,565624.1255794619
4.618,579853.709715905
4.619,592178.9386706011
4.62,602546.8300615608
4.621,610958.1983158789
4.622,617472.62127194
4.623,622212.3683220048
4.624,625365.1009291287
4.625,627185.1739654337
4.626,627993.3901367254
4.627,628175.0895979996
4.628,628176.4923509574
4.629,628499.251578
4.63,629693.2209425918
4.631,632347.487121419
4.632,637079.7693037972
4.633,644524.3388190703
4.634,655318.6630268107
4.635,670089.0266263091
4.636,689435.4290532676
4.637,713916.0970611837
4.638,744031.9853939697
4.639,780211.6641887022
4.64,822797.0080800577
4.641,872030.1077718601
4.642,928041.8191898167
4.643,990842.3476046266
4.644,1060314.2340060754
4.645,1136208.0685577733
4.646,1218141.2015863652
4.647,1305599.657066644
4.648,1397943.3781576948
4.649,1494414.8506130956
4.65,1594151.059781869
4.651,1696198.6427163053
4.652,1799532.0011674904
4.653,1903074.0467571598
4.654,2005719.159287915
4.655,2106357.855976165
4.656,2203902.5963150496
4.657,2297314.0871191253
4.658,2385627.407657194
4.659,2467977.2478979793
4.66,2543621.5455954704
4.661,2611962.8215219844
4.662,2672566.547308159
4.663,2725175.93709208
4.664,2769722.6318227784
4.665,2806332.842178482
4.666,2835328.6304871202
4.667,2857224.1409142204
4.668,2872716.7270094617
4.669,2882673.0724238353
4.67,2888110.549735635
4.671,2890174.2090725224
4.672,2890109.927673598
4.673,2889234.3788296096
4.674,2888902.5891304566
4.675,2890473.942412206
4.676,2895277.553600125
4.677,2904577.9729156345
4.678,2919542.1886748197
4.679,2941208.874178125
4.68,2970460.7710709847
4.681,3008001.0192389204
4.682,3054334.13406456
4.683,3109752.199012415
4.684,3174326.689223549
4.685,3247906.175060975
4.686,3330119.9788904064
4.687,3420387.6797210746
4.688,3517934.184721009
4.689,3621809.9200215004
4.69,3730915.5412746216
4.691,3844030.4322238606
4.692,3959844.151455447
4.693,4076989.906984931
4.694,4194079.0878484594
4.695,4309735.862758487
4.696,4422630.868361839
4.697,4531513.052792556
4.698,4635238.8120639445
4.699,4732797.654444311
4.7,4823333.747522627
4.701,4906162.839731834
4.702,4980784.197704348
4.703,5046887.357736446
4.704,5104353.648489085
4.705,5153252.597607294
4.706,5193833.482239177
4.707,5226512.417972242
4.708,5251855.4985683095
4.709,5270558.596867442
4.71,5283424.512938266
4.711,5291338.207411268
4.712,5295240.8852382675
4.713,5296103.698014924
4.714,5294901.812424627
4.715,5292589.549981636
4.716,5290077.2413768405
4.717,5288210.360195217
4.718,5287751.408819311
4.719,5289364.927471381
4.72,5293605.889234609
4.721,5300911.633201223
4.722,5311597.378183635
4.723,5325855.254035521
4.724,5343756.689587303
4.725,5365257.908131254
4.726,5390208.205461143
4.727,5418360.623341795
4.728,5449384.584088702
4.729,5482880.02027688
4.73,5518392.517550817
4.731,5555428.987660346
4.732,5593473.4023384685
4.733,5632002.145209718
4.734,5670498.5769843245
4.735,5708466.456907256
4.736,5745441.918759362
4.737,5781003.760507852
4.738,5814781.870796606
4.739,5846463.680709602
4.74,5875798.59358873
4.741,5902600.407253062
4.742,5926747.800068922
4.743,5948183.003522125
4.744,5966908.82808299
4.745,5982984.245360592
4.746,5996518.757245122
4.747,6007665.801664295
4.748,6016615.454746914
4.749,6023586.690877219
4.75,6028819.455861965
4.751,6032566.79495207
4.752,6035087.257667735
4.753,6036637.776309032
4.754,6037467.185822964
4.755,6037810.520523633
4.756,6037884.189215216
4.757,6037882.095711798
4.758,6037972.737686519
4.759,6038297.2842264585
4.76,6038968.602315464
4.761,6040071.175475112
4.762,6041661.834576395
4.763,6043771.201845484
4.764,6046405.734621147
4.765,6049550.245615602
4.766,6053170.771271453
4.767,6057217.65914168
4.768,6061628.748769338
4.769,6066332.527922458
4.77,6071251.156772282
4.771,6076303.26614508
4.772,6081406.451736047
4.773,6086479.4035266405
4.774,6091443.627963189
4.775,6096224.739112653
4.776,6100753.313414177
4.777,6104965.320235339
4.778,6108802.156714225
4.779,6112210.329878993
4.78,6115140.841411365
4.781,6117548.340360066
4.782,6119390.116393989
4.783,6120625.01067156
4.784,6121212.323030705
4.785,6121110.792988849
4.786,6120277.728074067
4.787,6118668.346446276
4.788,6116235.391834244
4.789,6112929.067790629
4.79,6108697.325483928
4.791,6103486.525075894
4.792,6097242.475582727
4.793,6089911.842420289
4.794,6081443.896036274
4.795,6071792.559591345
4.796,6060918.699019948
4.797,6048792.585421544
4.798,6035396.448024729
4.799,6020727.026320402
4.8,6004798.022726279
4.801,5987642.352626416
4.802,5969314.087072031
4.803,5949889.9850163115
4.804,5929470.516797737
4.805,5908180.288718836
4.806,5886167.789944649
4.807,5863604.3974368
4.808,5840682.592028856
4.809,5817613.358733288
4.81,5794622.76656281
4.811,5771947.747080646
4.812,5749831.116022575
4.813,5728515.908048786
4.814,5708239.120319786
4.815,5689224.985438718
4.816,5671677.91762467
4.817,5655775.297028461
4.818,5641660.2751316605
4.819,5629434.798466083
4.82,5619153.05778802
4.821,5610815.574742535
4.822,5604364.137453822
4.823,5599677.789986695
4.824,5596570.067983698
4.825,5594787.653885078
4.826,5594010.600044389
4.827,5593854.236998029
4.828,5593872.8475558255
4.829,5593565.145863602
4.83,5592381.55494551
4.831,5589733.227440123
4.832,5585002.703440316
4.833,5577556.047817115
4.834,5566756.258554405
4.835,5551977.688932549
4.836,5532621.181411378
4.837,5508129.571320044
4.838,5478003.185467658
4.839,5441814.935962586
4.84,5399224.59415159
4.841,5349991.824759979
4.842,5293987.566895055
4.843,5231203.36715627
4.844,5161758.300950253
4.845,5085903.161164513
4.846,5004021.648166675
4.847,4916628.360839259
4.848,4824363.463818826
4.849,4727983.989690746
4.85,4628351.824649168
4.851,4526418.519797777
4.852,4423207.165300079
4.853,4319791.658235891
4.854,4217273.7843924975
4.855,4116758.6163668684
4.856,4019328.8023669804
4.857,3926018.379195412
4.858,3837786.786529673
4.859,3755493.7855672957
4.86,3679875.991596645
4.861,3611525.7158240313
4.862,3550872.776170689
4.863,3498169.879748339
4.864,3453482.1020346656
4.865,3416680.8908335087
4.866,3387442.909076499
4.867,3365253.9022538727
4.868,3349417.6372358827
4.869,3339069.813490805
4.87,3333196.6996781873
4.871,3330658.103042468
4.872,3330214.1408266653
4.873,3330555.1568954727
4.874,3330334.017498198
4.875,3328199.9317959216
4.876,3322832.8790133437
4.877,3312977.687690269
4.878,3297476.8054462676
4.879,3275300.820883799
4.88,3245575.85262384
4.881,3207607.002785948
4.882,3160897.1812107298
4.883,3105160.7390865684
4.884,3040331.502193197
4.885,2966564.9597679945
4.886,2884234.5395222134
4.887,2793922.0767070567
4.888,2696402.759340914
4.889,2592624.996843143
4.89,2483685.8097866783
4.891,2370802.469233436
4.892,2255281.2208389034
4.893,2138484.0081861075
4.894,2021794.1592318106
4.895,1906582.0180126694
4.896,1794171.4906887314
4.897,1685808.4315348768
4.898,1582631.7226251788
4.899,1485647.8036489799
4.9,1395709.2893360648
4.901,1313498.1758017673
4.902,1239513.9886831304
4.903,1174067.0704422917
4.904,1117277.046967492
4.905,1069076.3598007995
4.906,1029218.604867283
4.907,997291.2859177002
4.908,972732.4748718794
4.909,954850.7749982921
