time_s,ecg_raw,ecg_cleaned
0.000000000000000000e+00,4.930000000000000000e+02,5.365794344945634009e+01
1.000000000000000021e-03,4.930000000000000000e+02,5.334699986576079311e+01
2.000000000000000042e-03,4.960000000000000000e+02,5.290104154678765980e+01
3.000000000000000062e-03,4.970000000000000000e+02,5.227187277768285867e+01
4.000000000000000083e-03,4.960000000000000000e+02,5.142402907384798283e+01
5.000000000000000104e-03,4.940000000000000000e+02,5.034189701823657970e+01
6.000000000000000125e-03,4.940000000000000000e+02,4.903602868604732379e+01
7.000000000000000146e-03,4.950000000000000000e+02,4.754822450211111118e+01
8.000000000000000167e-03,4.960000000000000000e+02,4.595499344299086886e+01
8.999999999999999320e-03,4.950000000000000000e+02,4.436904571681861853e+01
1.000000000000000021e-02,4.940000000000000000e+02,4.293853644316700269e+01
1.099999999999999936e-02,4.940000000000000000e+02,4.184386595123783081e+01
1.200000000000000025e-02,4.940000000000000000e+02,4.129195324916884857e+01
1.299999999999999940e-02,4.960000000000000000e+02,4.150802828322154170e+01
1.400000000000000029e-02,4.970000000000000000e+02,4.272512977224961617e+01
1.499999999999999944e-02,4.970000000000000000e+02,4.517164533042320329e+01
1.600000000000000033e-02,4.980000000000000000e+02,4.905738616283008469e+01
1.700000000000000122e-02,5.020000000000000000e+02,6.018824505509036271e+01
1.799999999999999864e-02,5.040000000000000000e+02,6.761960252707312691e+01
1.899999999999999953e-02,5.090000000000000000e+02,7.662250649202673003e+01
2.000000000000000042e-02,5.130000000000000000e+02,8.716060897549931497e+01
2.100000000000000130e-02,5.190000000000000000e+02,9.912584535426665866e+01
2.199999999999999872e-02,5.310000000000000000e+02,1.123350285977980292e+02
2.299999999999999961e-02,5.460000000000000000e+02,1.265301515169308715e+02
2.400000000000000050e-02,5.630000000000000000e+02,1.413827293361303248e+02
2.500000000000000139e-02,5.800000000000000000e+02,1.565022857618523631e+02
2.599999999999999881e-02,5.990000000000000000e+02,1.714488275701519342e+02
2.699999999999999969e-02,6.220000000000000000e+02,1.857488830598653067e+02
2.800000000000000058e-02,6.470000000000000000e+02,1.989144191952061078e+02
2.900000000000000147e-02,6.660000000000000000e+02,2.104637222176276055e+02
2.999999999999999889e-02,6.830000000000000000e+02,2.199431463513093661e+02
3.099999999999999978e-02,7.000000000000000000e+02,2.269485206220487896e+02
3.200000000000000067e-02,7.100000000000000000e+02,2.311449658703310206e+02
3.300000000000000155e-02,7.160000000000000000e+02,2.439582948834698470e+02
3.400000000000000244e-02,7.180000000000000000e+02,2.420593307748724214e+02
3.500000000000000333e-02,7.150000000000000000e+02,2.249009107537735019e+02
3.599999999999999728e-02,7.050000000000000000e+02,2.164076217292099500e+02
3.699999999999999817e-02,6.910000000000000000e+02,2.049148721707573202e+02
3.799999999999999906e-02,6.710000000000000000e+02,1.907018133295936479e+02
3.899999999999999994e-02,6.410000000000000000e+02,1.741354356095668265e+02
4.000000000000000083e-02,6.080000000000000000e+02,1.556535252835298024e+02
4.100000000000000172e-02,5.720000000000000000e+02,1.357445198942041600e+02
4.200000000000000261e-02,5.370000000000000000e+02,1.149255267775698428e+02
4.299999999999999656e-02,5.070000000000000000e+02,9.371985893617184615e+01
4.399999999999999745e-02,4.830000000000000000e+02,7.263542665499458906e+01
4.499999999999999833e-02,4.640000000000000000e+02,5.214520569295377328e+01
4.599999999999999922e-02,4.490000000000000000e+02,3.267079688867258369e+01
4.700000000000000011e-02,4.380000000000000000e+02,1.456981904297545327e+01
4.800000000000000100e-02,4.290000000000000000e+02,-1.872435623014811590e+00
4.900000000000000189e-02,4.210000000000000000e+02,-1.644697643776962792e+01
5.000000000000000278e-02,4.130000000000000000e+02,-2.902091627400639595e+01
5.099999999999999672e-02,4.050000000000000000e+02,-3.953355798122255038e+01
5.199999999999999761e-02,4.000000000000000000e+02,-4.798942285401622598e+01
5.299999999999999850e-02,4.010000000000000000e+02,-5.444900785745176819e+01
5.399999999999999939e-02,4.010000000000000000e+02,-5.901811406559859563e+01
5.500000000000000028e-02,3.990000000000000000e+02,-6.720050792651659322e+01
5.600000000000000117e-02,3.980000000000000000e+02,-6.776728959816206554e+01
5.700000000000000205e-02,3.970000000000000000e+02,-6.692650513056844375e+01
5.800000000000000294e-02,3.960000000000000000e+02,-6.488280081427365076e+01
5.899999999999999689e-02,3.970000000000000000e+02,-6.182949529343918726e+01
5.999999999999999778e-02,3.980000000000000000e+02,-5.794324050964274875e+01
6.099999999999999867e-02,3.980000000000000000e+02,-5.152615533702312689e+01
6.199999999999999956e-02,3.980000000000000000e+02,-4.682119136502230106e+01
6.300000000000000044e-02,4.010000000000000000e+02,-4.163879176243081304e+01
6.400000000000000133e-02,4.070000000000000000e+02,-3.608737275081416840e+01
6.500000000000000222e-02,4.120000000000000000e+02,-3.026222751061928662e+01
6.600000000000000311e-02,4.160000000000000000e+02,-2.424749726333480027e+01
6.700000000000000400e-02,4.240000000000000000e+02,-1.811827979029986224e+01
6.800000000000000488e-02,4.330000000000000000e+02,-1.194260307674577426e+01
6.900000000000000577e-02,4.420000000000000000e+02,-5.783062207376120867e+00
7.000000000000000666e-02,4.510000000000000000e+02,3.020041885434805451e-01
7.099999999999999367e-02,4.590000000000000000e+02,6.257844750358720454e+00
7.199999999999999456e-02,4.670000000000000000e+02,1.203311246860411821e+01
7.299999999999999545e-02,4.760000000000000000e+02,1.758009441725594968e+01
7.399999999999999634e-02,4.830000000000000000e+02,2.285524679239987478e+01
7.499999999999999722e-02,4.880000000000000000e+02,2.781991364477953965e+01
7.599999999999999811e-02,4.900000000000000000e+02,3.244110997557832121e+01
7.699999999999999900e-02,4.900000000000000000e+02,3.669226365674106916e+01
7.799999999999999989e-02,4.920000000000000000e+02,4.195943802840660197e+01
7.900000000000000078e-02,4.970000000000000000e+02,4.543350319616501309e+01
8.000000000000000167e-02,4.990000000000000000e+02,4.847413619745130831e+01
8.100000000000000255e-02,5.030000000000000000e+02,5.108557343654866401e+01
8.200000000000000344e-02,5.090000000000000000e+02,5.328013405025727423e+01
8.300000000000000433e-02,5.110000000000000000e+02,5.507766732672752852e+01
8.400000000000000522e-02,5.090000000000000000e+02,5.650477576776497557e+01
8.500000000000000611e-02,5.080000000000000000e+02,5.759382789354346244e+01
8.599999999999999312e-02,5.090000000000000000e+02,5.838179979962253441e+01
8.699999999999999400e-02,5.110000000000000000e+02,5.890900752582188460e+01
8.799999999999999489e-02,5.120000000000000000e+02,5.921779833938366977e+01
8.899999999999999578e-02,5.140000000000000000e+02,5.935125459878364040e+01
8.999999999999999667e-02,5.180000000000000000e+02,5.935193765178851066e+01
9.099999999999999756e-02,5.190000000000000000e+02,5.926067394527923682e+01
9.199999999999999845e-02,5.180000000000000000e+02,5.911537236741767742e+01
9.299999999999999933e-02,5.150000000000000000e+02,5.894986826409888181e+01
9.400000000000000022e-02,5.150000000000000000e+02,5.879281537955747439e+01
9.500000000000000111e-02,5.120000000000000000e+02,5.866668203278260307e+01
9.600000000000000200e-02,5.100000000000000000e+02,5.858693743883183203e+01
9.700000000000000289e-02,5.090000000000000000e+02,5.856152715742258152e+01
9.800000000000000377e-02,5.100000000000000000e+02,5.859072840903722579e+01
9.900000000000000466e-02,5.130000000000000000e+02,5.866744660290579105e+01
1.000000000000000056e-01,5.150000000000000000e+02,5.877796980971096019e+01
1.010000000000000064e-01,5.140000000000000000e+02,5.890315071904107924e+01
1.019999999999999934e-01,5.120000000000000000e+02,5.901995021617900505e+01
1.029999999999999943e-01,5.120000000000000000e+02,5.910325966876009574e+01
1.039999999999999952e-01,5.130000000000000000e+02,5.912791414191185879e+01
1.049999999999999961e-01,5.130000000000000000e+02,5.907080309644230454e+01
1.059999999999999970e-01,5.150000000000000000e+02,5.891297018492629434e+01
1.069999999999999979e-01,5.190000000000000000e+02,5.864157065708917571e+01
1.079999999999999988e-01,5.220000000000000000e+02,5.825153159883254261e+01
1.089999999999999997e-01,5.220000000000000000e+02,5.774674817821246364e+01
1.100000000000000006e-01,5.210000000000000000e+02,5.714066039436883671e+01
1.110000000000000014e-01,5.190000000000000000e+02,5.645609644414308548e+01
1.120000000000000023e-01,5.160000000000000000e+02,5.572433649920533583e+01
1.130000000000000032e-01,5.150000000000000000e+02,5.498343044819431213e+01
1.140000000000000041e-01,5.130000000000000000e+02,5.427587920754331918e+01
1.150000000000000050e-01,5.110000000000000000e+02,5.364585099956725855e+01
1.160000000000000059e-01,5.070000000000000000e+02,5.313614796058742229e+01
1.170000000000000068e-01,5.040000000000000000e+02,5.278516439645132863e+01
1.179999999999999938e-01,5.060000000000000000e+02,5.262408406710348174e+01
1.189999999999999947e-01,5.060000000000000000e+02,5.267454605379568733e+01
1.199999999999999956e-01,5.060000000000000000e+02,5.294696672127517445e+01
1.209999999999999964e-01,5.080000000000000000e+02,5.343964653504851015e+01
1.219999999999999973e-01,5.070000000000000000e+02,5.413872588877124770e+01
1.229999999999999982e-01,5.100000000000000000e+02,5.501899023550480905e+01
1.239999999999999991e-01,5.150000000000000000e+02,5.604546260137885838e+01
1.250000000000000000e-01,5.180000000000000000e+02,5.717566121855988115e+01
1.260000000000000009e-01,5.190000000000000000e+02,5.836234634825433432e+01
1.270000000000000018e-01,5.220000000000000000e+02,5.955654218330190730e+01
1.280000000000000027e-01,5.260000000000000000e+02,6.071060313668193231e+01
1.290000000000000036e-01,5.260000000000000000e+02,6.178109816063730619e+01
1.300000000000000044e-01,5.260000000000000000e+02,6.273130845756783458e+01
1.310000000000000053e-01,5.270000000000000000e+02,6.353317039325033022e+01
1.320000000000000062e-01,5.300000000000000000e+02,6.416854265341441987e+01
1.330000000000000071e-01,5.290000000000000000e+02,6.462972891342658954e+01
1.340000000000000080e-01,5.270000000000000000e+02,6.491924172569417806e+01
1.350000000000000089e-01,5.240000000000000000e+02,6.504885096363453556e+01
1.360000000000000098e-01,5.230000000000000000e+02,6.503801876115116443e+01
1.370000000000000107e-01,5.240000000000000000e+02,6.491187291348565225e+01
1.380000000000000115e-01,5.230000000000000000e+02,6.469890166248170260e+01
1.390000000000000124e-01,5.220000000000000000e+02,6.442856212373483515e+01
1.400000000000000133e-01,5.220000000000000000e+02,6.412898798903137276e+01
1.409999999999999865e-01,5.220000000000000000e+02,6.382496601586193208e+01
1.419999999999999873e-01,5.210000000000000000e+02,6.353632745248606994e+01
1.429999999999999882e-01,5.200000000000000000e+02,6.327686952211658422e+01
1.439999999999999891e-01,5.210000000000000000e+02,6.305388276595721209e+01
1.449999999999999900e-01,5.240000000000000000e+02,6.286831174702783187e+01
1.459999999999999909e-01,5.250000000000000000e+02,6.271552025521034324e+01
1.469999999999999918e-01,5.260000000000000000e+02,6.258657366706039937e+01
1.479999999999999927e-01,5.250000000000000000e+02,6.246990065579758777e+01
1.489999999999999936e-01,5.270000000000000000e+02,6.235316185023118152e+01
1.499999999999999944e-01,5.280000000000000000e+02,6.222513521209087628e+01
1.509999999999999953e-01,5.290000000000000000e+02,6.207742392314452218e+01
1.519999999999999962e-01,5.290000000000000000e+02,6.190580183096897571e+01
1.529999999999999971e-01,5.300000000000000000e+02,6.171103683392678363e+01
1.539999999999999980e-01,5.310000000000000000e+02,6.149907648622586720e+01
1.549999999999999989e-01,5.290000000000000000e+02,6.128054229059745950e+01
1.559999999999999998e-01,5.260000000000000000e+02,6.106955717155224050e+01
1.570000000000000007e-01,5.220000000000000000e+02,6.088201903103026069e+01
1.580000000000000016e-01,5.180000000000000000e+02,6.073352045893119566e+01
1.590000000000000024e-01,5.160000000000000000e+02,6.063718281475149752e+01
1.600000000000000033e-01,5.150000000000000000e+02,6.060170396513997559e+01
1.610000000000000042e-01,5.160000000000000000e+02,6.062990225606357342e+01
1.620000000000000051e-01,5.170000000000000000e+02,6.071797549524156778e+01
1.630000000000000060e-01,5.200000000000000000e+02,6.085559369501748250e+01
1.640000000000000069e-01,5.260000000000000000e+02,6.102682473307806532e+01
1.650000000000000078e-01,5.310000000000000000e+02,6.121177175812162119e+01
1.660000000000000087e-01,5.320000000000000000e+02,6.138870018254613825e+01
1.670000000000000095e-01,5.310000000000000000e+02,6.153636950954189899e+01
1.680000000000000104e-01,5.320000000000000000e+02,6.163627146458518524e+01
1.690000000000000113e-01,5.340000000000000000e+02,6.167450619871546280e+01
1.700000000000000122e-01,5.330000000000000000e+02,6.164308757561136787e+01
1.710000000000000131e-01,5.310000000000000000e+02,6.154054376993195064e+01
1.719999999999999862e-01,5.290000000000000000e+02,6.137176488302142019e+01
1.729999999999999871e-01,5.260000000000000000e+02,6.114714023784186736e+01
1.739999999999999880e-01,5.250000000000000000e+02,6.088111473382959815e+01
1.749999999999999889e-01,5.210000000000000000e+02,6.059036404158857891e+01
1.759999999999999898e-01,5.190000000000000000e+02,6.029183333006197643e+01
1.769999999999999907e-01,5.170000000000000000e+02,6.000089840418868903e+01
1.779999999999999916e-01,5.180000000000000000e+02,5.972988840726412008e+01
1.789999999999999925e-01,5.200000000000000000e+02,5.948715495672046671e+01
1.799999999999999933e-01,5.220000000000000000e+02,5.927678909828785692e+01
1.809999999999999942e-01,5.250000000000000000e+02,5.909898787004574672e+01
1.819999999999999951e-01,5.300000000000000000e+02,5.895097410609695032e+01
1.829999999999999960e-01,5.320000000000000000e+02,5.882829327726024360e+01
1.839999999999999969e-01,5.320000000000000000e+02,5.872626322486750894e+01
1.849999999999999978e-01,5.320000000000000000e+02,5.864134500842892095e+01
1.859999999999999987e-01,5.310000000000000000e+02,5.857223552660152421e+01
1.869999999999999996e-01,5.280000000000000000e+02,5.852054485094623004e+01
1.880000000000000004e-01,5.260000000000000000e+02,5.849099749206310861e+01
1.890000000000000013e-01,5.240000000000000000e+02,5.849117138720500719e+01
1.900000000000000022e-01,5.240000000000000000e+02,5.853084842106467534e+01
1.910000000000000031e-01,5.250000000000000000e+02,5.862108773359889824e+01
1.920000000000000040e-01,5.230000000000000000e+02,5.877314711645950496e+01
1.930000000000000049e-01,5.220000000000000000e+02,5.899737413440047362e+01
1.940000000000000058e-01,5.240000000000000000e+02,5.930217379946537903e+01
1.950000000000000067e-01,5.270000000000000000e+02,5.969313612467156815e+01
1.960000000000000075e-01,5.300000000000000000e+02,6.017237543565393310e+01
1.970000000000000084e-01,5.300000000000000000e+02,6.073809959940991376e+01
1.980000000000000093e-01,5.300000000000000000e+02,6.138440195827405432e+01
1.990000000000000102e-01,5.310000000000000000e+02,6.210125872617840059e+01
2.000000000000000111e-01,5.320000000000000000e+02,6.287471693230168057e+01
2.010000000000000120e-01,5.330000000000000000e+02,6.368726348277927940e+01
2.020000000000000129e-01,5.340000000000000000e+02,6.451836760921000291e+01
2.030000000000000138e-01,5.340000000000000000e+02,6.534518572806037184e+01
2.039999999999999869e-01,5.350000000000000000e+02,6.614341134459144200e+01
2.049999999999999878e-01,5.360000000000000000e+02,6.688824429056721499e+01
2.059999999999999887e-01,5.370000000000000000e+02,6.755544344353641861e+01
2.069999999999999896e-01,5.380000000000000000e+02,6.812241598032564127e+01
2.079999999999999905e-01,5.390000000000000000e+02,6.856928671084615701e+01
2.089999999999999913e-01,5.400000000000000000e+02,6.887988644673967542e+01
2.099999999999999922e-01,5.380000000000000000e+02,6.904260120323725403e+01
2.109999999999999931e-01,5.360000000000000000e+02,6.905103460216929534e+01
2.119999999999999940e-01,5.380000000000000000e+02,6.890445054336242947e+01
2.129999999999999949e-01,5.410000000000000000e+02,6.860797496350191693e+01
2.139999999999999958e-01,5.420000000000000000e+02,6.817253965969071317e+01
2.149999999999999967e-01,5.410000000000000000e+02,6.761455236082889542e+01
2.159999999999999976e-01,5.390000000000000000e+02,6.695528684095714311e+01
2.169999999999999984e-01,5.370000000000000000e+02,6.622001136619466877e+01
2.179999999999999993e-01,5.350000000000000000e+02,6.543690750121137967e+01
2.190000000000000002e-01,5.340000000000000000e+02,6.463586104867096083e+01
2.200000000000000011e-01,5.330000000000000000e+02,6.384722133658614496e+01
2.210000000000000020e-01,5.310000000000000000e+02,6.310061998982205722e+01
2.220000000000000029e-01,5.330000000000000000e+02,6.242391781198895018e+01
2.230000000000000038e-01,5.340000000000000000e+02,6.184231381854449694e+01
2.240000000000000047e-01,5.360000000000000000e+02,6.137761129041533081e+01
2.250000000000000056e-01,5.370000000000000000e+02,6.104760231869811093e+01
2.260000000000000064e-01,5.350000000000000000e+02,6.086551625482637462e+01
2.270000000000000073e-01,5.320000000000000000e+02,6.083948582175519704e+01
2.280000000000000082e-01,5.320000000000000000e+02,6.097201433502345935e+01
2.290000000000000091e-01,5.330000000000000000e+02,6.125946554825612367e+01
2.300000000000000100e-01,5.350000000000000000e+02,6.169162907072868762e+01
2.310000000000000109e-01,5.330000000000000000e+02,6.225143222513595020e+01
2.320000000000000118e-01,5.330000000000000000e+02,6.291487687221970759e+01
2.330000000000000127e-01,5.340000000000000000e+02,6.365128211168958217e+01
2.340000000000000135e-01,5.320000000000000000e+02,6.442390967635077459e+01
2.349999999999999867e-01,5.320000000000000000e+02,6.519103225180292327e+01
2.359999999999999876e-01,5.360000000000000000e+02,6.590747075038588321e+01
2.369999999999999885e-01,5.420000000000000000e+02,6.652657375963869413e+01
2.379999999999999893e-01,5.440000000000000000e+02,6.700254729328733561e+01
2.389999999999999902e-01,5.430000000000000000e+02,6.729298180464812162e+01
2.399999999999999911e-01,5.410000000000000000e+02,6.736138546095824609e+01
2.409999999999999920e-01,5.430000000000000000e+02,6.717952576099771989e+01
2.419999999999999929e-01,5.470000000000000000e+02,6.672939708723679075e+01
2.429999999999999938e-01,5.450000000000000000e+02,6.600465720304464412e+01
2.439999999999999947e-01,5.410000000000000000e+02,6.501140918206318986e+01
2.449999999999999956e-01,5.380000000000000000e+02,6.376825309062672176e+01
2.459999999999999964e-01,5.370000000000000000e+02,6.230559336282753691e+01
2.469999999999999973e-01,5.340000000000000000e+02,6.066425030861994117e+01
2.479999999999999982e-01,5.310000000000000000e+02,5.889347323762432751e+01
2.489999999999999991e-01,5.310000000000000000e+02,5.704848291025584928e+01
2.500000000000000000e-01,5.310000000000000000e+02,5.518768459627280976e+01
2.510000000000000009e-01,5.310000000000000000e+02,5.336969482719273827e+01
2.520000000000000018e-01,5.290000000000000000e+02,5.165032250197816666e+01
2.530000000000000027e-01,5.250000000000000000e+02,5.007964751566567685e+01
2.540000000000000036e-01,5.200000000000000000e+02,4.869935196072371042e+01
2.550000000000000044e-01,5.180000000000000000e+02,4.754047407024318517e+01
2.560000000000000053e-01,5.160000000000000000e+02,4.662175864490487953e+01
2.570000000000000062e-01,5.160000000000000000e+02,4.594875544911213439e+01
2.580000000000000071e-01,5.180000000000000000e+02,4.551376434049427644e+01
2.590000000000000080e-01,5.190000000000000000e+02,4.529665000677577069e+01
2.600000000000000089e-01,5.210000000000000000e+02,4.526646494135572141e+01
2.610000000000000098e-01,5.220000000000000000e+02,4.538374265109695216e+01
2.620000000000000107e-01,5.230000000000000000e+02,4.560326595519178738e+01
2.630000000000000115e-01,5.240000000000000000e+02,4.587708286582909523e+01
2.640000000000000124e-01,5.250000000000000000e+02,4.615753427617035243e+01
2.650000000000000133e-01,5.260000000000000000e+02,4.640006968389580067e+01
2.660000000000000142e-01,5.280000000000000000e+02,4.656565523027868636e+01
2.670000000000000151e-01,5.280000000000000000e+02,4.662261957054694506e+01
2.680000000000000160e-01,5.270000000000000000e+02,4.654783619889939672e+01
2.690000000000000169e-01,5.250000000000000000e+02,4.632720424721686925e+01
2.700000000000000178e-01,5.230000000000000000e+02,4.595545851968834228e+01
2.710000000000000187e-01,5.210000000000000000e+02,4.543540408681976572e+01
2.720000000000000195e-01,5.190000000000000000e+02,4.477671987229992112e+01
2.730000000000000204e-01,5.190000000000000000e+02,4.399450099935175018e+01
2.740000000000000213e-01,5.210000000000000000e+02,4.310770887234528459e+01
2.750000000000000222e-01,5.190000000000000000e+02,4.213767570923848638e+01
2.760000000000000231e-01,5.160000000000000000e+02,4.110677706764653294e+01
2.770000000000000240e-01,5.130000000000000000e+02,4.003735267754121452e+01
2.780000000000000249e-01,5.130000000000000000e+02,3.895092569759078316e+01
2.790000000000000258e-01,5.160000000000000000e+02,3.786773753695026556e+01
2.800000000000000266e-01,5.170000000000000000e+02,3.680657470563880906e+01
2.810000000000000275e-01,5.150000000000000000e+02,3.578482186758576233e+01
2.819999999999999729e-01,5.130000000000000000e+02,3.481864594087035414e+01
2.829999999999999738e-01,5.130000000000000000e+02,3.392320950810182723e+01
2.839999999999999747e-01,5.140000000000000000e+02,3.311282454577627732e+01
2.849999999999999756e-01,5.130000000000000000e+02,3.240097892272804359e+01
2.859999999999999765e-01,5.120000000000000000e+02,3.180019181702235898e+01
2.869999999999999774e-01,5.120000000000000000e+02,3.132168034499014553e+01
2.879999999999999782e-01,5.110000000000000000e+02,3.097484881194365514e+01
2.889999999999999791e-01,5.100000000000000000e+02,3.076664104379605291e+01
2.899999999999999800e-01,5.100000000000000000e+02,3.070082076335633658e+01
2.909999999999999809e-01,5.100000000000000000e+02,3.077726163181181462e+01
2.919999999999999818e-01,5.090000000000000000e+02,3.099133571404511400e+01
2.929999999999999827e-01,5.080000000000000000e+02,3.133348658177007451e+01
2.939999999999999836e-01,5.100000000000000000e+02,3.178906156828144347e+01
2.949999999999999845e-01,5.120000000000000000e+02,3.233845709091835374e+01
2.959999999999999853e-01,5.110000000000000000e+02,3.295760306101673365e+01
2.969999999999999862e-01,5.130000000000000000e+02,3.361878239893860609e+01
2.979999999999999871e-01,5.130000000000000000e+02,3.429175597335372316e+01
2.989999999999999880e-01,5.110000000000000000e+02,3.494514446897687776e+01
2.999999999999999889e-01,5.120000000000000000e+02,3.554800415564383087e+01
3.009999999999999898e-01,5.160000000000000000e+02,3.607151786248340386e+01
3.019999999999999907e-01,5.190000000000000000e+02,3.649070128877914954e+01
3.029999999999999916e-01,5.210000000000000000e+02,3.678600033840384498e+01
3.039999999999999925e-01,5.220000000000000000e+02,3.694463838581167181e+01
3.049999999999999933e-01,5.230000000000000000e+02,3.696157594234149002e+01
3.059999999999999942e-01,5.220000000000000000e+02,3.683997403129438197e+01
3.069999999999999951e-01,5.210000000000000000e+02,3.659110211431817561e+01
3.079999999999999960e-01,5.180000000000000000e+02,3.623369207329185571e+01
3.089999999999999969e-01,5.160000000000000000e+02,3.579280062228023240e+01
3.099999999999999978e-01,5.160000000000000000e+02,3.529829268153046229e+01
3.109999999999999987e-01,5.140000000000000000e+02,3.478308893981035510e+01
3.119999999999999996e-01,5.130000000000000000e+02,3.428132877852063842e+01
3.130000000000000004e-01,5.120000000000000000e+02,3.382658777652036264e+01
3.140000000000000013e-01,5.130000000000000000e+02,3.345026260326747547e+01
3.150000000000000022e-01,5.150000000000000000e+02,3.318020017442769642e+01
3.160000000000000031e-01,5.160000000000000000e+02,3.303960819107729208e+01
3.170000000000000040e-01,5.160000000000000000e+02,3.304624923854157004e+01
3.180000000000000049e-01,5.160000000000000000e+02,3.321189967826844480e+01
3.190000000000000058e-01,5.150000000000000000e+02,3.354205170361259292e+01
3.200000000000000067e-01,5.150000000000000000e+02,3.403584816568148597e+01
3.210000000000000075e-01,5.140000000000000000e+02,3.468625562473418711e+01
3.220000000000000084e-01,5.150000000000000000e+02,3.548049142422738100e+01
3.230000000000000093e-01,5.170000000000000000e+02,3.640071808399002151e+01
3.240000000000000102e-01,5.190000000000000000e+02,3.742500018637298353e+01
3.250000000000000111e-01,5.230000000000000000e+02,3.852848797213586352e+01
3.260000000000000120e-01,5.250000000000000000e+02,3.968475595362892250e+01
3.270000000000000129e-01,5.270000000000000000e+02,4.086719423472975166e+01
3.280000000000000138e-01,5.290000000000000000e+02,4.205033356979556913e+01
3.290000000000000147e-01,5.300000000000000000e+02,4.321098653103043574e+01
3.300000000000000155e-01,5.330000000000000000e+02,4.432910558958801062e+01
3.310000000000000164e-01,5.330000000000000000e+02,4.538829129375886851e+01
3.320000000000000173e-01,5.300000000000000000e+02,4.637592733100932207e+01
3.330000000000000182e-01,5.270000000000000000e+02,4.728297068623801636e+01
3.340000000000000191e-01,5.270000000000000000e+02,4.810347575493430838e+01
3.350000000000000200e-01,5.300000000000000000e+02,4.883396646502517768e+01
3.360000000000000209e-01,5.320000000000000000e+02,4.947277788028402057e+01
3.370000000000000218e-01,5.310000000000000000e+02,5.001946917671175896e+01
3.380000000000000226e-01,5.310000000000000000e+02,5.047437660809443827e+01
3.390000000000000235e-01,5.340000000000000000e+02,5.083834129144772618e+01
3.400000000000000244e-01,5.360000000000000000e+02,5.111261602575912377e+01
3.410000000000000253e-01,5.370000000000000000e+02,5.129892638300784569e+01
3.420000000000000262e-01,5.380000000000000000e+02,5.139963615897187310e+01
3.430000000000000271e-01,5.390000000000000000e+02,5.141795196413571745e+01
3.439999999999999725e-01,5.400000000000000000e+02,5.135809987702374002e+01
3.449999999999999734e-01,5.390000000000000000e+02,5.122541778119768452e+01
3.459999999999999742e-01,5.380000000000000000e+02,5.102632767641701861e+01
3.469999999999999751e-01,5.360000000000000000e+02,5.076817977792818937e+01
3.479999999999999760e-01,5.340000000000000000e+02,5.045898942255852404e+01
3.489999999999999769e-01,5.340000000000000000e+02,5.010711136469770821e+01
3.499999999999999778e-01,5.330000000000000000e+02,4.972090738871326465e+01
3.509999999999999787e-01,5.320000000000000000e+02,4.930845986316730745e+01
3.519999999999999796e-01,5.330000000000000000e+02,4.887736848930462230e+01
3.529999999999999805e-01,5.350000000000000000e+02,4.843464543110815868e+01
3.539999999999999813e-01,5.340000000000000000e+02,4.798670141519716026e+01
3.549999999999999822e-01,5.320000000000000000e+02,4.753939887137455145e+01
3.559999999999999831e-01,5.320000000000000000e+02,4.709814257177598051e+01
3.569999999999999840e-01,5.320000000000000000e+02,4.666798208373369761e+01
3.579999999999999849e-01,5.310000000000000000e+02,4.625370628965680453e+01
3.589999999999999858e-01,5.310000000000000000e+02,4.585991141705082441e+01
3.599999999999999867e-01,5.340000000000000000e+02,4.549101859221577371e+01
3.609999999999999876e-01,5.370000000000000000e+02,4.515120709729054482e+01
3.619999999999999885e-01,5.380000000000000000e+02,4.484422121720481869e+01
3.629999999999999893e-01,5.360000000000000000e+02,4.457301204342424938e+01
3.639999999999999902e-01,5.340000000000000000e+02,4.433920044895087642e+01
3.649999999999999911e-01,5.310000000000000000e+02,4.414239364617957762e+01
3.659999999999999920e-01,5.270000000000000000e+02,4.397944272354998674e+01
3.669999999999999929e-01,5.240000000000000000e+02,4.384377364488065609e+01
3.679999999999999938e-01,5.230000000000000000e+02,4.372494290332529943e+01
3.689999999999999947e-01,5.250000000000000000e+02,4.360855163428323777e+01
3.699999999999999956e-01,5.300000000000000000e+02,4.347659842125424490e+01
3.709999999999999964e-01,5.340000000000000000e+02,4.330827361388885066e+01
3.719999999999999973e-01,5.330000000000000000e+02,4.308112034145909064e+01
3.729999999999999982e-01,5.310000000000000000e+02,4.277243522656971919e+01
3.739999999999999991e-01,5.300000000000000000e+02,4.236076853936698683e+01
3.750000000000000000e-01,5.290000000000000000e+02,4.182740247051722093e+01
3.760000000000000009e-01,5.270000000000000000e+02,4.115771743611355760e+01
3.770000000000000018e-01,5.270000000000000000e+02,4.034238161021708891e+01
3.780000000000000027e-01,5.290000000000000000e+02,3.937830987437878605e+01
3.790000000000000036e-01,5.310000000000000000e+02,3.826933589827132920e+01
3.800000000000000044e-01,5.300000000000000000e+02,3.702653299266363973e+01
3.810000000000000053e-01,5.290000000000000000e+02,3.566811834505887191e+01
3.820000000000000062e-01,5.260000000000000000e+02,3.421889211470032421e+01
3.830000000000000071e-01,5.230000000000000000e+02,3.270919925946249407e+01
3.840000000000000080e-01,5.220000000000000000e+02,3.117344971144641974e+01
3.850000000000000089e-01,5.190000000000000000e+02,2.964828007607304983e+01
3.860000000000000098e-01,5.150000000000000000e+02,2.817047932730316262e+01
3.870000000000000107e-01,5.120000000000000000e+02,2.677482898811328482e+01
3.880000000000000115e-01,5.090000000000000000e+02,2.549202332305764429e+01
3.890000000000000124e-01,5.080000000000000000e+02,2.434683338004334630e+01
3.900000000000000133e-01,5.090000000000000000e+02,2.335665650169396557e+01
3.910000000000000142e-01,5.110000000000000000e+02,2.253055136083701271e+01
3.920000000000000151e-01,5.120000000000000000e+02,2.186880633263312745e+01
3.930000000000000160e-01,5.100000000000000000e+02,2.136303984240765885e+01
3.940000000000000169e-01,5.090000000000000000e+02,2.099679713975829998e+01
3.950000000000000178e-01,5.100000000000000000e+02,2.074659133977766245e+01
3.960000000000000187e-01,5.100000000000000000e+02,2.058332988839113753e+01
3.970000000000000195e-01,5.100000000000000000e+02,2.047406074042488200e+01
3.980000000000000204e-01,5.090000000000000000e+02,2.038396096431910109e+01
3.990000000000000213e-01,5.110000000000000000e+02,2.027847512521150364e+01
4.000000000000000222e-01,5.120000000000000000e+02,2.012549334365235865e+01
4.010000000000000231e-01,5.120000000000000000e+02,1.989744113337436460e+01
4.020000000000000240e-01,5.130000000000000000e+02,1.957313927191781744e+01
4.030000000000000249e-01,5.140000000000000000e+02,1.913928819968696970e+01
4.040000000000000258e-01,5.130000000000000000e+02,1.859144241337659409e+01
4.050000000000000266e-01,5.120000000000000000e+02,1.793436791617473247e+01
4.060000000000000275e-01,5.110000000000000000e+02,1.718171958887847239e+01
4.069999999999999729e-01,5.090000000000000000e+02,1.635503201472707602e+01
4.079999999999999738e-01,5.060000000000000000e+02,1.548208056065317884e+01
4.089999999999999747e-01,5.040000000000000000e+02,1.459473184843879423e+01
4.099999999999999756e-01,5.020000000000000000e+02,1.372645641585993026e+01
4.109999999999999765e-01,4.990000000000000000e+02,1.290971392550604868e+01
4.119999999999999774e-01,4.990000000000000000e+02,1.217343697752718512e+01
4.129999999999999782e-01,4.990000000000000000e+02,1.154083077186892581e+01
4.139999999999999791e-01,4.980000000000000000e+02,1.102767354316069692e+01
4.149999999999999800e-01,5.000000000000000000e+02,1.064125169514306890e+01
4.159999999999999809e-01,5.000000000000000000e+02,1.038000144411255832e+01
4.169999999999999818e-01,5.000000000000000000e+02,1.023386329335145462e+01
4.179999999999999827e-01,5.030000000000000000e+02,1.018529306883070085e+01
4.189999999999999836e-01,5.050000000000000000e+02,1.021081830077483765e+01
4.199999999999999845e-01,5.070000000000000000e+02,1.028298605421671930e+01
4.209999999999999853e-01,5.050000000000000000e+02,1.037252406108404834e+01
4.219999999999999862e-01,5.030000000000000000e+02,1.045053689399232333e+01
4.229999999999999871e-01,5.020000000000000000e+02,1.049058194269439248e+01
4.239999999999999880e-01,5.030000000000000000e+02,1.047050550925570356e+01
4.249999999999999889e-01,5.030000000000000000e+02,1.037395356449005668e+01
4.259999999999999898e-01,5.020000000000000000e+02,1.019149731355138044e+01
4.269999999999999907e-01,5.000000000000000000e+02,9.921332490717892583e+00
4.279999999999999916e-01,5.020000000000000000e+02,9.569527410831346614e+00
4.289999999999999925e-01,5.060000000000000000e+02,9.149808713491104584e+00
4.299999999999999933e-01,5.060000000000000000e+02,8.682885209823801631e+00
4.309999999999999942e-01,5.030000000000000000e+02,8.195325002287908944e+00
4.319999999999999951e-01,4.990000000000000000e+02,7.718028202332257948e+00
4.329999999999999960e-01,4.980000000000000000e+02,7.284377449976068952e+00
4.339999999999999969e-01,4.990000000000000000e+02,6.928186906867973782e+00
4.349999999999999978e-01,5.010000000000000000e+02,6.681589607037739853e+00
4.359999999999999987e-01,5.010000000000000000e+02,6.572997291361358130e+00
4.369999999999999996e-01,5.000000000000000000e+02,6.625246056726464161e+00
4.380000000000000004e-01,5.000000000000000000e+02,6.854020110356507267e+00
4.390000000000000013e-01,4.990000000000000000e+02,7.266632030430313804e+00
4.400000000000000022e-01,4.990000000000000000e+02,7.861228715769789765e+00
4.410000000000000031e-01,4.980000000000000000e+02,8.626481162302722439e+00
4.420000000000000040e-01,4.980000000000000000e+02,9.541798214032288783e+00
4.430000000000000049e-01,5.010000000000000000e+02,1.057807669725282906e+01
4.440000000000000058e-01,5.050000000000000000e+02,1.169896230546995142e+01
4.450000000000000067e-01,5.080000000000000000e+02,1.286255118193250979e+01
4.460000000000000075e-01,5.090000000000000000e+02,1.402342142930311297e+01
4.470000000000000084e-01,5.110000000000000000e+02,1.513485896352859683e+01
4.480000000000000093e-01,5.100000000000000000e+02,1.615113936458393340e+01
4.490000000000000102e-01,5.080000000000000000e+02,1.702974242220488676e+01
4.500000000000000111e-01,5.110000000000000000e+02,1.773339706270817828e+01
4.510000000000000120e-01,5.180000000000000000e+02,1.823186821904088717e+01
4.520000000000000129e-01,5.200000000000000000e+02,1.850339827218601840e+01
4.530000000000000138e-01,5.180000000000000000e+02,1.853571284076272363e+01
4.540000000000000147e-01,5.140000000000000000e+02,1.832651250004627386e+01
4.550000000000000155e-01,5.140000000000000000e+02,1.788340852757441013e+01
4.560000000000000164e-01,5.150000000000000000e+02,1.722331221911927202e+01
4.570000000000000173e-01,5.120000000000000000e+02,1.637133484519795346e+01
4.580000000000000182e-01,5.090000000000000000e+02,1.535928946161776842e+01
4.590000000000000191e-01,5.060000000000000000e+02,1.422390927740728372e+01
4.600000000000000200e-01,5.040000000000000000e+02,1.300491314704820489e+01
4.610000000000000209e-01,5.030000000000000000e+02,1.174305328145538496e+01
4.620000000000000218e-01,5.030000000000000000e+02,1.047826841196993719e+01
4.630000000000000226e-01,5.040000000000000000e+02,9.248038435137930335e+00
4.640000000000000235e-01,5.040000000000000000e+02,8.086002026781336838e+00
4.650000000000000244e-01,5.020000000000000000e+02,7.020867721716520293e+00
4.660000000000000253e-01,4.990000000000000000e+02,6.075629691507343999e+00
4.670000000000000262e-01,4.990000000000000000e+02,5.267092377393807645e+00
4.680000000000000271e-01,4.990000000000000000e+02,4.605705204590130997e+00
4.689999999999999725e-01,5.000000000000000000e+02,4.095699508185171034e+00
4.699999999999999734e-01,5.020000000000000000e+02,3.735500651075183143e+00
4.709999999999999742e-01,5.030000000000000000e+02,3.518364433283636128e+00
4.719999999999999751e-01,5.030000000000000000e+02,3.433168328593763530e+00
4.729999999999999760e-01,5.000000000000000000e+02,3.465283205363804964e+00
4.739999999999999769e-01,4.990000000000000000e+02,3.597461844829680011e+00
4.749999999999999778e-01,4.990000000000000000e+02,3.810700169198851128e+00
4.759999999999999787e-01,5.000000000000000000e+02,4.085044123376836644e+00
4.769999999999999796e-01,5.010000000000000000e+02,4.400321472590372096e+00
4.779999999999999805e-01,5.030000000000000000e+02,4.736774522822080336e+00
4.789999999999999813e-01,5.020000000000000000e+02,5.075565406051468109e+00
4.799999999999999822e-01,5.020000000000000000e+02,5.399128949771331065e+00
4.809999999999999831e-01,5.020000000000000000e+02,5.691362746331300571e+00
4.819999999999999840e-01,5.030000000000000000e+02,5.937666626313413687e+00
4.829999999999999849e-01,5.020000000000000000e+02,6.124867800942144669e+00
4.839999999999999858e-01,5.000000000000000000e+02,6.241088367118837965e+00
4.849999999999999867e-01,4.990000000000000000e+02,6.275625550987276924e+00
4.859999999999999876e-01,5.000000000000000000e+02,6.218917641150489395e+00
4.869999999999999885e-01,5.020000000000000000e+02,6.062654225994802637e+00
4.879999999999999893e-01,5.020000000000000000e+02,5.800056309300104296e+00
4.889999999999999902e-01,5.060000000000000000e+02,5.426306791260012474e+00
4.899999999999999911e-01,5.070000000000000000e+02,4.939067344910060164e+00
4.909999999999999920e-01,5.080000000000000000e+02,4.338986936413672169e+00
4.919999999999999929e-01,5.050000000000000000e+02,3.630100101848003025e+00
4.929999999999999938e-01,5.010000000000000000e+02,2.820033769187358264e+00
4.939999999999999947e-01,4.980000000000000000e+02,1.919984471481121613e+00
4.949999999999999956e-01,4.970000000000000000e+02,9.444780301448396642e-01
4.959999999999999964e-01,4.940000000000000000e+02,-8.903650963787847206e-02
4.969999999999999973e-01,4.910000000000000000e+02,-1.160688386166564001e+00
4.979999999999999982e-01,4.920000000000000000e+02,-2.248715357974405915e+00
4.989999999999999991e-01,4.940000000000000000e+02,-3.329977591194745123e+00
5.000000000000000000e-01,4.950000000000000000e+02,-4.380443548391732556e+00
5.010000000000000009e-01,4.950000000000000000e+02,-5.375670820831489394e+00
5.020000000000000018e-01,4.930000000000000000e+02,-6.291326780747005465e+00
5.030000000000000027e-01,4.930000000000000000e+02,-7.103794415965312581e+00
5.040000000000000036e-01,4.930000000000000000e+02,-7.790889971382140011e+00
5.050000000000000044e-01,4.930000000000000000e+02,-8.332690565829627971e+00
5.060000000000000053e-01,4.910000000000000000e+02,-8.712440012006281265e+00
5.070000000000000062e-01,4.890000000000000000e+02,-8.917472973466702868e+00
5.080000000000000071e-01,4.880000000000000000e+02,-8.940073451418998118e+00
5.090000000000000080e-01,4.870000000000000000e+02,-8.778168501016081038e+00
5.100000000000000089e-01,4.870000000000000000e+02,-8.435758693683251153e+00
5.110000000000000098e-01,4.880000000000000000e+02,-7.923006550992254482e+00
5.120000000000000107e-01,4.900000000000000000e+02,-7.255940623850817950e+00
5.130000000000000115e-01,4.910000000000000000e+02,-6.455779088695036805e+00
5.140000000000000124e-01,4.930000000000000000e+02,-5.547923448396868906e+00
5.150000000000000133e-01,4.950000000000000000e+02,-4.560711463509907304e+00
5.160000000000000142e-01,4.970000000000000000e+02,-3.524043062680890515e+00
5.170000000000000151e-01,4.990000000000000000e+02,-2.468001261719600326e+00
5.180000000000000160e-01,5.000000000000000000e+02,-1.421581622230071673e+00
5.190000000000000169e-01,5.010000000000000000e+02,-4.116194919151939802e-01
5.200000000000000178e-01,5.010000000000000000e+02,5.380326621221499517e-01
5.210000000000000187e-01,4.990000000000000000e+02,1.407069197668119553e+00
5.220000000000000195e-01,4.980000000000000000e+02,2.179069821295258613e+00
5.230000000000000204e-01,4.990000000000000000e+02,2.841675709004755745e+00
5.240000000000000213e-01,5.010000000000000000e+02,3.386673792325515464e+00
5.250000000000000222e-01,5.040000000000000000e+02,3.810041079432134214e+00
5.260000000000000231e-01,5.070000000000000000e+02,4.111962285701173059e+00
5.270000000000000240e-01,5.080000000000000000e+02,4.296790870849359401e+00
5.280000000000000249e-01,5.080000000000000000e+02,4.372892853562047044e+00
5.290000000000000258e-01,5.070000000000000000e+02,4.352305470022196587e+00
5.300000000000000266e-01,5.060000000000000000e+02,4.250159849693760705e+00
5.310000000000000275e-01,5.050000000000000000e+02,4.083850927722212809e+00
5.320000000000000284e-01,5.040000000000000000e+02,3.871978258046503196e+00
5.330000000000000293e-01,5.040000000000000000e+02,3.633119848241955996e+00
5.340000000000000302e-01,5.010000000000000000e+02,3.384533368970678691e+00
5.350000000000000311e-01,4.990000000000000000e+02,3.140903609222953641e+00
5.360000000000000320e-01,4.970000000000000000e+02,2.913269741348581299e+00
5.370000000000000329e-01,4.960000000000000000e+02,2.708265579931756317e+00
5.380000000000000338e-01,4.970000000000000000e+02,2.527783758098873790e+00
5.390000000000000346e-01,4.990000000000000000e+02,2.369127279879859937e+00
5.400000000000000355e-01,5.030000000000000000e+02,2.225643456368749273e+00
5.410000000000000364e-01,5.080000000000000000e+02,2.087757994902541547e+00
5.420000000000000373e-01,5.100000000000000000e+02,1.944258761994692497e+00
5.430000000000000382e-01,5.100000000000000000e+02,1.783638290263598769e+00
5.440000000000000391e-01,5.080000000000000000e+02,1.595304358431929748e+00
5.450000000000000400e-01,5.060000000000000000e+02,1.370509085303931673e+00
5.460000000000000409e-01,5.040000000000000000e+02,1.102915289642650620e+00
5.470000000000000417e-01,5.010000000000000000e+02,7.887940428446191810e-01
5.480000000000000426e-01,4.970000000000000000e+02,4.269116867265235205e-01
5.490000000000000435e-01,4.970000000000000000e+02,1.820705588887532381e-02
5.500000000000000444e-01,4.980000000000000000e+02,-4.346252436364700933e-01
5.510000000000000453e-01,4.970000000000000000e+02,-9.275418096429721704e-01
5.520000000000000462e-01,4.980000000000000000e+02,-1.455475831252388552e+00
5.530000000000000471e-01,4.970000000000000000e+02,-2.012547719425017867e+00
5.540000000000000480e-01,4.970000000000000000e+02,-2.592162445900104029e+00
5.550000000000000488e-01,4.980000000000000000e+02,-3.187021448025670001e+00
5.560000000000000497e-01,4.990000000000000000e+02,-3.789095659365481428e+00
5.570000000000000506e-01,4.990000000000000000e+02,-4.389618055486424808e+00
5.580000000000000515e-01,5.010000000000000000e+02,-4.979157679373291678e+00
5.590000000000000524e-01,5.040000000000000000e+02,-5.547829463561427588e+00
5.600000000000000533e-01,5.000000000000000000e+02,-6.085672107872476921e+00
5.610000000000000542e-01,4.940000000000000000e+02,-6.583187648192807551e+00
5.620000000000000551e-01,4.880000000000000000e+02,-7.031984942360028690e+00
5.629999999999999449e-01,4.870000000000000000e+02,-7.425421635487230887e+00
5.639999999999999458e-01,4.920000000000000000e+02,-7.759120973689628720e+00
5.649999999999999467e-01,4.960000000000000000e+02,-8.031267645162985858e+00
5.659999999999999476e-01,4.970000000000000000e+02,-8.242651034870998927e+00
5.669999999999999485e-01,4.970000000000000000e+02,-8.396492810317424116e+00
5.679999999999999494e-01,4.960000000000000000e+02,-8.498136553353210942e+00
5.689999999999999503e-01,4.920000000000000000e+02,-8.554678269865011231e+00
5.699999999999999512e-01,4.910000000000000000e+02,-8.574588069443301208e+00
5.709999999999999520e-01,4.910000000000000000e+02,-8.567335629553820553e+00
5.719999999999999529e-01,4.910000000000000000e+02,-8.543004052677163784e+00
5.729999999999999538e-01,4.920000000000000000e+02,-8.511867852796463296e+00
5.739999999999999547e-01,4.910000000000000000e+02,-8.483919698704923462e+00
5.749999999999999556e-01,4.930000000000000000e+02,-8.468350155493707732e+00
5.759999999999999565e-01,4.960000000000000000e+02,-8.473008826851122777e+00
5.769999999999999574e-01,4.990000000000000000e+02,-8.503899737148962856e+00
5.779999999999999583e-01,4.990000000000000000e+02,-8.564782342587200503e+00
5.789999999999999591e-01,5.000000000000000000e+02,-8.656952983403977342e+00
5.799999999999999600e-01,4.970000000000000000e+02,-8.779262861860569700e+00
5.809999999999999609e-01,4.950000000000000000e+02,-8.928389263578242918e+00
5.819999999999999618e-01,4.920000000000000000e+02,-9.099327320280753639e+00
5.829999999999999627e-01,4.900000000000000000e+02,-9.286025146915244832e+00
5.839999999999999636e-01,4.900000000000000000e+02,-9.482059288706341960e+00
5.849999999999999645e-01,4.910000000000000000e+02,-9.681247391877237263e+00
5.859999999999999654e-01,4.910000000000000000e+02,-9.878119086683541994e+00
5.869999999999999662e-01,4.900000000000000000e+02,-1.006820447175531541e+01
5.879999999999999671e-01,4.900000000000000000e+02,-1.024814019424152711e+01
5.889999999999999680e-01,4.940000000000000000e+02,-1.041562820624099750e+01
5.899999999999999689e-01,4.960000000000000000e+02,-1.056930957673008109e+01
5.909999999999999698e-01,4.960000000000000000e+02,-1.070863258609038837e+01
5.919999999999999707e-01,4.960000000000000000e+02,-1.083379391905525324e+01
5.929999999999999716e-01,4.940000000000000000e+02,-1.094580858133550194e+01
5.939999999999999725e-01,4.910000000000000000e+02,-1.104672195071917784e+01
5.949999999999999734e-01,4.910000000000000000e+02,-1.113992954867421759e+01
5.959999999999999742e-01,4.920000000000000000e+02,-1.123053290879497190e+01
5.969999999999999751e-01,4.920000000000000000e+02,-1.132564432525307119e+01
5.979999999999999760e-01,4.930000000000000000e+02,-1.143455994647735707e+01
5.989999999999999769e-01,4.920000000000000000e+02,-1.156874118609903057e+01
5.999999999999999778e-01,4.920000000000000000e+02,-1.174156835915953323e+01
6.009999999999999787e-01,4.910000000000000000e+02,-1.196785183461114599e+01
6.019999999999999796e-01,4.920000000000000000e+02,-1.226310394711520857e+01
6.029999999999999805e-01,4.900000000000000000e+02,-1.264259052825915930e+01
6.039999999999999813e-01,4.870000000000000000e+02,-1.312019459282882217e+01
6.049999999999999822e-01,4.860000000000000000e+02,-1.370713683801296057e+01
6.059999999999999831e-01,4.860000000000000000e+02,-1.441061138469730807e+01
6.069999999999999840e-01,4.870000000000000000e+02,-1.523241596918236063e+01
6.079999999999999849e-01,4.890000000000000000e+02,-1.616768520381819840e+01
6.089999999999999858e-01,4.910000000000000000e+02,-1.720386693025031022e+01
6.099999999999999867e-01,4.920000000000000000e+02,-1.832010241351722613e+01
6.109999999999999876e-01,4.930000000000000000e+02,-1.948716849161398557e+01
6.119999999999999885e-01,4.900000000000000000e+02,-2.066810610344567678e+01
6.129999999999999893e-01,4.860000000000000000e+02,-2.181959500593146117e+01
6.139999999999999902e-01,4.830000000000000000e+02,-2.289404832192462536e+01
6.149999999999999911e-01,4.820000000000000000e+02,-2.384231017546263942e+01
6.159999999999999920e-01,4.810000000000000000e+02,-2.461676405495518694e+01
6.169999999999999929e-01,4.780000000000000000e+02,-2.517461011478197364e+01
6.179999999999999938e-01,4.750000000000000000e+02,-2.548104667716527771e+01
6.189999999999999947e-01,4.760000000000000000e+02,-2.551209005886851600e+01
6.199999999999999956e-01,4.740000000000000000e+02,-2.525678547993445022e+01
6.209999999999999964e-01,4.720000000000000000e+02,-2.471860068042923686e+01
6.219999999999999973e-01,4.720000000000000000e+02,-2.391585195442632639e+01
6.229999999999999982e-01,4.750000000000000000e+02,-2.288108749616444371e+01
6.239999999999999991e-01,4.810000000000000000e+02,-2.165944353020458379e+01
6.250000000000000000e-01,4.860000000000000000e+02,-2.030608877741924090e+01
6.260000000000000009e-01,4.870000000000000000e+02,-1.888296704660701408e+01
6.270000000000000018e-01,4.900000000000000000e+02,-1.745511600733596680e+01
6.280000000000000027e-01,4.930000000000000000e+02,-1.608687008916186656e+01
6.290000000000000036e-01,4.970000000000000000e+02,-1.483824876131317438e+01
6.300000000000000044e-01,4.990000000000000000e+02,-1.376179745180014713e+01
6.310000000000000053e-01,4.990000000000000000e+02,-1.290009341965084921e+01
6.320000000000000062e-01,4.970000000000000000e+02,-1.228405509149504660e+01
6.330000000000000071e-01,4.940000000000000000e+02,-1.193210553873377400e+01
6.340000000000000080e-01,4.920000000000000000e+02,-1.185015149719499128e+01
6.350000000000000089e-01,4.920000000000000000e+02,-1.203226610920756379e+01
6.360000000000000098e-01,4.920000000000000000e+02,-1.246192042146785184e+01
6.370000000000000107e-01,4.910000000000000000e+02,-1.311359876743136432e+01
6.380000000000000115e-01,4.900000000000000000e+02,-1.395464822078051803e+01
6.390000000000000124e-01,4.890000000000000000e+02,-1.494723936796817654e+01
6.400000000000000133e-01,4.890000000000000000e+02,-1.605034485237585429e+01
6.410000000000000142e-01,4.890000000000000000e+02,-1.722166869889743879e+01
6.420000000000000151e-01,4.880000000000000000e+02,-1.841948032534745749e+01
6.430000000000000160e-01,4.860000000000000000e+02,-1.960431864598259111e+01
6.440000000000000169e-01,4.840000000000000000e+02,-2.074053103231885231e+01
6.450000000000000178e-01,4.820000000000000000e+02,-2.179760087268528324e+01
6.460000000000000187e-01,4.790000000000000000e+02,-2.275120305230111484e+01
6.470000000000000195e-01,4.780000000000000000e+02,-2.358391819032292247e+01
6.480000000000000204e-01,4.790000000000000000e+02,-2.428554198769216299e+01
6.490000000000000213e-01,4.800000000000000000e+02,-2.485294956213957462e+01
6.500000000000000222e-01,4.810000000000000000e+02,-2.528951368458063698e+01
6.510000000000000231e-01,4.810000000000000000e+02,-2.560412138990989916e+01
6.520000000000000240e-01,4.810000000000000000e+02,-2.580987472737254507e+01
6.530000000000000249e-01,4.820000000000000000e+02,-2.592259194577834336e+01
6.540000000000000258e-01,4.840000000000000000e+02,-2.595924448617629920e+01
6.550000000000000266e-01,4.850000000000000000e+02,-2.593647394664165517e+01
6.560000000000000275e-01,4.860000000000000000e+02,-2.586933013072836474e+01
6.570000000000000284e-01,4.840000000000000000e+02,-2.577035193305437133e+01
6.580000000000000293e-01,4.840000000000000000e+02,-2.564907424436166039e+01
6.590000000000000302e-01,4.830000000000000000e+02,-2.551198919347806182e+01
6.600000000000000311e-01,4.800000000000000000e+02,-2.536292722298046698e+01
6.610000000000000320e-01,4.760000000000000000e+02,-2.520376270859799206e+01
6.620000000000000329e-01,4.750000000000000000e+02,-2.503529998892014774e+01
6.630000000000000338e-01,4.750000000000000000e+02,-2.485816948967115536e+01
6.640000000000000346e-01,4.750000000000000000e+02,-2.467356938993168924e+01
6.650000000000000355e-01,4.790000000000000000e+02,-2.448372772333675584e+01
6.660000000000000364e-01,4.830000000000000000e+02,-2.429202422665211358e+01
6.670000000000000373e-01,4.850000000000000000e+02,-2.410278448149221120e+01
6.680000000000000382e-01,4.870000000000000000e+02,-2.392082236290543307e+01
6.690000000000000391e-01,4.880000000000000000e+02,-2.375084523050321650e+01
6.700000000000000400e-01,4.870000000000000000e+02,-2.359684332689007391e+01
6.710000000000000409e-01,4.840000000000000000e+02,-2.346156450589083775e+01
6.720000000000000417e-01,4.840000000000000000e+02,-2.334613891489167159e+01
6.730000000000000426e-01,4.840000000000000000e+02,-2.324987987938680689e+01
6.740000000000000435e-01,4.840000000000000000e+02,-2.317025930834008562e+01
6.750000000000000444e-01,4.850000000000000000e+02,-2.310304305624421062e+01
6.760000000000000453e-01,4.850000000000000000e+02,-2.304256935528495376e+01
6.770000000000000462e-01,4.850000000000000000e+02,-2.298215305713653933e+01
6.780000000000000471e-01,4.830000000000000000e+02,-2.291459321360229140e+01
6.790000000000000480e-01,4.820000000000000000e+02,-2.283274953388031747e+01
6.800000000000000488e-01,4.830000000000000000e+02,-2.273013788751845965e+01
6.810000000000000497e-01,4.810000000000000000e+02,-2.260148290151843398e+01
6.820000000000000506e-01,4.810000000000000000e+02,-2.244316239416038528e+01
6.830000000000000515e-01,4.820000000000000000e+02,-2.225348605001202174e+01
6.840000000000000524e-01,4.840000000000000000e+02,-2.203276941200417127e+01
6.850000000000000533e-01,4.860000000000000000e+02,-2.178319245789971603e+01
6.860000000000000542e-01,4.870000000000000000e+02,-2.150846478465663836e+01
6.870000000000000551e-01,4.890000000000000000e+02,-2.121334860295663205e+01
6.879999999999999449e-01,4.890000000000000000e+02,-2.090310917368574195e+01
6.889999999999999458e-01,4.890000000000000000e+02,-2.058296719680784648e+01
6.899999999999999467e-01,4.880000000000000000e+02,-2.025762061447693796e+01
6.909999999999999476e-01,4.890000000000000000e+02,-1.993088900840932354e+01
6.919999999999999485e-01,4.920000000000000000e+02,-1.960551801834768426e+01
6.929999999999999494e-01,4.930000000000000000e+02,-1.928316692799500842e+01
6.939999999999999503e-01,4.910000000000000000e+02,-1.896458628316092643e+01
6.949999999999999512e-01,4.860000000000000000e+02,-1.864996683040833148e+01
6.959999999999999520e-01,4.810000000000000000e+02,-1.833940494595497483e+01
6.969999999999999529e-01,4.840000000000000000e+02,-1.803339565184883142e+01
6.979999999999999538e-01,4.880000000000000000e+02,-1.773325310475044603e+01
6.989999999999999547e-01,4.910000000000000000e+02,-1.744138150063970016e+01
6.999999999999999556e-01,4.910000000000000000e+02,-1.716136593255144760e+01
7.009999999999999565e-01,4.900000000000000000e+02,-1.689789753482926571e+01
7.019999999999999574e-01,4.910000000000000000e+02,-1.665657148488109840e+01
7.029999999999999583e-01,4.920000000000000000e+02,-1.644360011271875166e+01
7.039999999999999591e-01,4.930000000000000000e+02,-1.626547816039488481e+01
7.049999999999999600e-01,4.930000000000000000e+02,-1.612863236451070037e+01
7.059999999999999609e-01,4.950000000000000000e+02,-1.603908423407803951e+01
7.069999999999999618e-01,4.950000000000000000e+02,-1.600215027394304101e+01
7.079999999999999627e-01,4.950000000000000000e+02,-1.602219528793055758e+01
7.089999999999999636e-01,4.940000000000000000e+02,-1.610244016763190444e+01
7.099999999999999645e-01,4.890000000000000000e+02,-1.624480583808831824e+01
7.109999999999999654e-01,4.860000000000000000e+02,-1.644975403512427903e+01
7.119999999999999662e-01,4.860000000000000000e+02,-1.671607325942719413e+01
7.129999999999999671e-01,4.870000000000000000e+02,-1.704056697532119458e+01
7.139999999999999680e-01,4.890000000000000000e+02,-1.741763709026341189e+01
7.149999999999999689e-01,4.940000000000000000e+02,-1.783881154343303166e+01
7.159999999999999698e-01,4.960000000000000000e+02,-1.829232098596190070e+01
7.169999999999999707e-01,4.950000000000000000e+02,-1.876286333561440145e+01
7.179999999999999716e-01,4.920000000000000000e+02,-1.923169002755679102e+01
7.189999999999999725e-01,4.910000000000000000e+02,-1.967710172419421610e+01
7.199999999999999734e-01,4.890000000000000000e+02,-2.007536806450635680e+01
7.209999999999999742e-01,4.870000000000000000e+02,-2.040200821447009716e+01
7.219999999999999751e-01,4.860000000000000000e+02,-2.063330527213533472e+01
7.229999999999999760e-01,4.840000000000000000e+02,-2.074788750504965407e+01
7.239999999999999769e-01,4.830000000000000000e+02,-2.072819599002308166e+01
7.249999999999999778e-01,4.840000000000000000e+02,-2.056167184957960004e+01
7.259999999999999787e-01,4.850000000000000000e+02,-2.024153539655786815e+01
7.269999999999999796e-01,4.870000000000000000e+02,-1.976708926784378306e+01
7.279999999999999805e-01,4.900000000000000000e+02,-1.914354881154228138e+01
7.289999999999999813e-01,4.920000000000000000e+02,-1.838147326437777807e+01
7.299999999999999822e-01,4.970000000000000000e+02,-1.749592820516076230e+01
7.309999999999999831e-01,4.990000000000000000e+02,-1.650554290832155857e+01
7.319999999999999840e-01,4.990000000000000000e+02,-1.543162757468949309e+01
7.329999999999999849e-01,4.970000000000000000e+02,-1.429748118641910715e+01
7.339999999999999858e-01,4.960000000000000000e+02,-1.312795535482831077e+01
7.349999999999999867e-01,4.940000000000000000e+02,-1.194925810639855612e+01
7.359999999999999876e-01,4.920000000000000000e+02,-1.078890548119811044e+01
7.369999999999999885e-01,4.940000000000000000e+02,-9.675677163229314814e+00
7.379999999999999893e-01,4.950000000000000000e+02,-8.639415998401307917e+00
7.389999999999999902e-01,4.950000000000000000e+02,-7.710531362101763264e+00
7.399999999999999911e-01,4.960000000000000000e+02,-6.919115862451358012e+00
7.409999999999999920e-01,5.000000000000000000e+02,-6.293653443096587807e+00
7.419999999999999929e-01,5.050000000000000000e+02,-5.859375642076041224e+00
7.429999999999999938e-01,5.080000000000000000e+02,-5.636402338593202721e+00
7.439999999999999947e-01,5.110000000000000000e+02,-5.637869564993135185e+00
7.449999999999999956e-01,5.120000000000000000e+02,-5.868282741196340524e+00
7.459999999999999964e-01,5.100000000000000000e+02,-6.322327384653751103e+00
7.469999999999999973e-01,5.050000000000000000e+02,-6.984320775502580680e+00
7.479999999999999982e-01,5.020000000000000000e+02,-7.828408696324415494e+00
7.489999999999999991e-01,5.010000000000000000e+02,-8.819521177573376391e+00
7.500000000000000000e-01,5.000000000000000000e+02,-9.915021326464964702e+00
7.510000000000000009e-01,4.970000000000000000e+02,-1.106692399501281621e+01
7.520000000000000018e-01,4.960000000000000000e+02,-1.222452517227883817e+01
7.530000000000000027e-01,4.940000000000000000e+02,-1.333726080419064175e+01
7.540000000000000036e-01,4.910000000000000000e+02,-1.435760009668878645e+01
7.550000000000000044e-01,4.890000000000000000e+02,-1.524377336247438564e+01
7.560000000000000053e-01,4.880000000000000000e+02,-1.596214136213478341e+01
7.570000000000000062e-01,4.900000000000000000e+02,-1.648903595320032878e+01
7.580000000000000071e-01,4.910000000000000000e+02,-1.681194242125354066e+01
7.590000000000000080e-01,4.900000000000000000e+02,-1.692994772699473316e+01
7.600000000000000089e-01,4.910000000000000000e+02,-1.685343649498387819e+01
7.610000000000000098e-01,4.920000000000000000e+02,-1.660306979370310998e+01
7.620000000000000107e-01,4.940000000000000000e+02,-1.620812860449388637e+01
7.630000000000000115e-01,4.950000000000000000e+02,-1.570434541070899570e+01
7.640000000000000124e-01,4.960000000000000000e+02,-1.513138226634269934e+01
7.650000000000000133e-01,4.970000000000000000e+02,-1.453013808991011757e+01
7.660000000000000142e-01,4.990000000000000000e+02,-1.394007874310539741e+01
7.670000000000000151e-01,5.000000000000000000e+02,-1.339677999810348474e+01
7.680000000000000160e-01,5.010000000000000000e+02,-1.292985558026208714e+01
7.690000000000000169e-01,5.000000000000000000e+02,-1.256140911367352686e+01
7.700000000000000178e-01,4.980000000000000000e+02,-1.230510003274240027e+01
7.710000000000000187e-01,4.960000000000000000e+02,-1.216585364403505842e+01
7.720000000000000195e-01,4.970000000000000000e+02,-1.214018412687877913e+01
7.730000000000000204e-01,4.960000000000000000e+02,-1.221704788677999076e+01
7.740000000000000213e-01,4.960000000000000000e+02,-1.237911067415012667e+01
7.750000000000000222e-01,4.950000000000000000e+02,-1.260429525918135596e+01
7.760000000000000231e-01,4.950000000000000000e+02,-1.286747311872684563e+01
7.770000000000000240e-01,4.950000000000000000e+02,-1.314217053936910595e+01
7.780000000000000249e-01,4.960000000000000000e+02,-1.340217588949126970e+01
7.790000000000000258e-01,4.960000000000000000e+02,-1.362295920997842202e+01
7.800000000000000266e-01,4.960000000000000000e+02,-1.378284417243092896e+01
7.810000000000000275e-01,4.950000000000000000e+02,-1.386390132734096348e+01
7.820000000000000284e-01,4.970000000000000000e+02,-1.385255751970663241e+01
7.830000000000000293e-01,4.970000000000000000e+02,-1.373993896594310549e+01
7.840000000000000302e-01,4.980000000000000000e+02,-1.352198450749346570e+01
7.850000000000000311e-01,4.990000000000000000e+02,-1.319937841964135394e+01
7.860000000000000320e-01,4.980000000000000000e+02,-1.277735492171987453e+01
7.870000000000000329e-01,4.980000000000000000e+02,-1.226541709456452622e+01
7.880000000000000338e-01,4.960000000000000000e+02,-1.167699311439091048e+01
7.890000000000000346e-01,4.960000000000000000e+02,-1.102902855056109210e+01
7.900000000000000355e-01,4.960000000000000000e+02,-1.034149351467961075e+01
7.910000000000000364e-01,4.970000000000000000e+02,-9.636775597923390890e+00
7.920000000000000373e-01,5.020000000000000000e+02,-8.938937396601986052e+00
7.930000000000000382e-01,5.040000000000000000e+02,-8.272837929232773391e+00
7.940000000000000391e-01,5.040000000000000000e+02,-7.663140690072737016e+00
7.950000000000000400e-01,5.020000000000000000e+02,-7.133245509241310955e+00
7.960000000000000409e-01,5.020000000000000000e+02,-6.704181235212396395e+00
7.970000000000000417e-01,5.030000000000000000e+02,-6.393487970342257576e+00
7.980000000000000426e-01,5.020000000000000000e+02,-6.214114362780194689e+00
7.990000000000000435e-01,5.040000000000000000e+02,-6.173365842282542815e+00
8.000000000000000444e-01,5.060000000000000000e+02,-6.271962384660990431e+00
8.010000000000000453e-01,5.080000000000000000e+02,-6.503291322095208216e+00
8.020000000000000462e-01,5.080000000000000000e+02,-6.852960970416192232e+00
8.030000000000000471e-01,5.060000000000000000e+02,-7.298763325091891296e+00
8.040000000000000480e-01,5.050000000000000000e+02,-7.811132173044187610e+00
8.050000000000000488e-01,5.040000000000000000e+02,-8.354139051591497278e+00
8.060000000000000497e-01,5.020000000000000000e+02,-8.887013404674277695e+00
8.070000000000000506e-01,4.990000000000000000e+02,-9.366115866839566095e+00
8.080000000000000515e-01,4.960000000000000000e+02,-9.747242769010970420e+00
8.090000000000000524e-01,4.980000000000000000e+02,-9.988102388772553297e+00
8.100000000000000533e-01,5.000000000000000000e+02,-1.005078565796691592e+01
8.110000000000000542e-01,4.990000000000000000e+02,-9.904057768918926641e+00
8.120000000000000551e-01,4.960000000000000000e+02,-9.525315641578760761e+00
8.129999999999999449e-01,4.970000000000000000e+02,-8.902080315326484694e+00
8.139999999999999458e-01,5.000000000000000000e+02,-8.032921908665725752e+00
8.149999999999999467e-01,5.050000000000000000e+02,-6.927754440408843806e+00
8.159999999999999476e-01,5.080000000000000000e+02,-5.607490089033447589e+00
8.169999999999999485e-01,5.080000000000000000e+02,-4.103095964173404830e+00
8.179999999999999494e-01,5.080000000000000000e+02,-2.454134620396259514e+00
8.189999999999999503e-01,5.080000000000000000e+02,-7.068851125210928732e-01
8.199999999999999512e-01,5.110000000000000000e+02,1.087858258154024371e+00
8.209999999999999520e-01,5.130000000000000000e+02,2.877213406911581117e+00
8.219999999999999529e-01,5.140000000000000000e+02,4.608762383132600782e+00
8.229999999999999538e-01,5.150000000000000000e+02,6.233115459567930117e+00
8.239999999999999547e-01,5.180000000000000000e+02,7.706365696650650854e+00
8.249999999999999556e-01,5.200000000000000000e+02,8.992307243159874730e+00
8.259999999999999565e-01,5.230000000000000000e+02,1.006429052822686288e+01
8.269999999999999574e-01,5.250000000000000000e+02,1.090659439510978679e+01
8.279999999999999583e-01,5.250000000000000000e+02,1.151521357646981869e+01
8.289999999999999591e-01,5.240000000000000000e+02,1.189799292965291322e+01
8.299999999999999600e-01,5.230000000000000000e+02,1.207408549363692352e+01
8.309999999999999609e-01,5.230000000000000000e+02,1.207276136744300388e+01
8.319999999999999618e-01,5.250000000000000000e+02,1.193163757461158347e+01
8.329999999999999627e-01,5.270000000000000000e+02,1.169442850903539721e+01
8.339999999999999636e-01,5.270000000000000000e+02,1.140833457507772764e+01
8.349999999999999645e-01,5.240000000000000000e+02,1.112120333114736503e+01
8.359999999999999654e-01,5.190000000000000000e+02,1.087862215253110598e+01
8.369999999999999662e-01,5.140000000000000000e+02,1.072113286355438788e+01
8.379999999999999671e-01,5.120000000000000000e+02,1.068178204659524688e+01
8.389999999999999680e-01,5.140000000000000000e+02,1.078421486926895057e+01
8.399999999999999689e-01,5.180000000000000000e+02,1.104147210462747530e+01
8.409999999999999698e-01,5.210000000000000000e+02,1.145556475808137087e+01
8.419999999999999707e-01,5.240000000000000000e+02,1.201780128483267340e+01
8.429999999999999716e-01,5.270000000000000000e+02,1.270975739075593758e+01
8.439999999999999725e-01,5.270000000000000000e+02,1.350472812387385879e+01
8.449999999999999734e-01,5.260000000000000000e+02,1.436949209977466069e+01
8.459999999999999742e-01,5.260000000000000000e+02,1.526624117377698475e+01
8.469999999999999751e-01,5.260000000000000000e+02,1.615457022039602464e+01
8.479999999999999760e-01,5.270000000000000000e+02,1.699346298917483722e+01
8.489999999999999769e-01,5.290000000000000000e+02,1.774323813488474855e+01
8.499999999999999778e-01,5.290000000000000000e+02,1.836743050455742576e+01
8.509999999999999787e-01,5.290000000000000000e+02,1.883458027072863317e+01
8.519999999999999796e-01,5.290000000000000000e+02,1.911989244358213469e+01
8.529999999999999805e-01,5.300000000000000000e+02,1.920671508662567106e+01
8.539999999999999813e-01,5.320000000000000000e+02,1.908776677986861614e+01
8.549999999999999822e-01,5.330000000000000000e+02,1.876602430651322351e+01
8.559999999999999831e-01,5.320000000000000000e+02,1.825516654412050954e+01
8.569999999999999840e-01,5.320000000000000000e+02,1.757946907043234219e+01
8.579999999999999849e-01,5.320000000000000000e+02,1.677306194028976449e+01
8.589999999999999858e-01,5.320000000000000000e+02,1.587850042835782460e+01
8.599999999999999867e-01,5.290000000000000000e+02,1.494465211409601757e+01
8.609999999999999876e-01,5.240000000000000000e+02,1.402397036381525020e+01
8.619999999999999885e-01,5.210000000000000000e+02,1.316929855012140571e+01
8.629999999999999893e-01,5.190000000000000000e+02,1.243041913522177921e+01
8.639999999999999902e-01,5.180000000000000000e+02,1.185061056964428694e+01
8.649999999999999911e-01,5.190000000000000000e+02,1.146349101083162125e+01
8.659999999999999920e-01,5.190000000000000000e+02,1.129041052089499431e+01
8.669999999999999929e-01,5.160000000000000000e+02,1.133861117832659104e+01
8.679999999999999938e-01,5.160000000000000000e+02,1.160031733592350456e+01
8.689999999999999947e-01,5.190000000000000000e+02,1.205285033841812670e+01
8.699999999999999956e-01,5.240000000000000000e+02,1.265978212131891389e+01
8.709999999999999964e-01,5.260000000000000000e+02,1.337305217604147778e+01
8.719999999999999973e-01,5.270000000000000000e+02,1.413588487659148107e+01
8.729999999999999982e-01,5.280000000000000000e+02,1.488627697886985146e+01
8.739999999999999991e-01,5.280000000000000000e+02,1.556078864687948915e+01
8.750000000000000000e-01,5.300000000000000000e+02,1.609836335204410318e+01
8.760000000000000009e-01,5.300000000000000000e+02,1.644391382856902695e+01
8.770000000000000018e-01,5.310000000000000000e+02,1.655143652551157984e+01
8.780000000000000027e-01,5.310000000000000000e+02,1.638645401109343425e+01
8.790000000000000036e-01,5.310000000000000000e+02,1.592763413286255236e+01
8.800000000000000044e-01,5.290000000000000000e+02,1.516749621701742257e+01
8.810000000000000053e-01,5.260000000000000000e+02,1.411218578408802493e+01
8.820000000000000062e-01,5.240000000000000000e+02,1.278037468562623502e+01
8.830000000000000071e-01,5.210000000000000000e+02,1.120141442335375714e+01
8.840000000000000080e-01,5.190000000000000000e+02,9.412926757563703006e+00
8.850000000000000089e-01,5.160000000000000000e+02,7.458050424539471202e+00
8.860000000000000098e-01,5.150000000000000000e+02,5.382573667482311031e+00
8.870000000000000107e-01,5.120000000000000000e+02,3.232171179088308310e+00
8.880000000000000115e-01,5.100000000000000000e+02,1.049935154577959828e+00
8.890000000000000124e-01,5.080000000000000000e+02,-1.125651315750044734e+00
8.900000000000000133e-01,5.050000000000000000e+02,-3.262199480558793496e+00
8.910000000000000142e-01,5.050000000000000000e+02,-5.334312954048948008e+00
8.920000000000000151e-01,5.050000000000000000e+02,-7.323906439502478882e+00
8.930000000000000160e-01,5.040000000000000000e+02,-9.220002143951788298e+00
8.940000000000000169e-01,5.000000000000000000e+02,-1.101809747974360043e+01
8.950000000000000178e-01,4.960000000000000000e+02,-1.271921452912728157e+01
8.960000000000000187e-01,4.940000000000000000e+02,-1.432873897981382427e+01
8.970000000000000195e-01,4.920000000000000000e+02,-1.585514378334364416e+01
8.980000000000000204e-01,4.950000000000000000e+02,-1.730868371810536033e+01
8.990000000000000213e-01,4.960000000000000000e+02,-1.870014702331021894e+01
9.000000000000000222e-01,4.950000000000000000e+02,-2.003975293916927214e+01
9.010000000000000231e-01,4.920000000000000000e+02,-2.133627593255606669e+01
9.020000000000000240e-01,4.900000000000000000e+02,-2.259644939104823536e+01
9.030000000000000249e-01,4.870000000000000000e+02,-2.382465725451958960e+01
9.040000000000000258e-01,4.860000000000000000e+02,-2.502287583592604392e+01
9.050000000000000266e-01,4.850000000000000000e+02,-2.619079487021263120e+01
9.060000000000000275e-01,4.830000000000000000e+02,-2.732603376509110049e+01
9.070000000000000284e-01,4.810000000000000000e+02,-2.842437477097439213e+01
9.080000000000000293e-01,4.790000000000000000e+02,-2.947995412426501716e+01
9.090000000000000302e-01,4.800000000000000000e+02,-3.048538095836768846e+01
9.100000000000000311e-01,4.820000000000000000e+02,-3.143178932739365550e+01
9.110000000000000320e-01,4.820000000000000000e+02,-3.230886584804625983e+01
9.120000000000000329e-01,4.800000000000000000e+02,-3.310492341063100241e+01
9.130000000000000338e-01,4.780000000000000000e+02,-3.380709811268113896e+01
9.140000000000000346e-01,4.760000000000000000e+02,-3.440172795906777026e+01
9.150000000000000355e-01,4.760000000000000000e+02,-3.487493563727245061e+01
9.160000000000000364e-01,4.750000000000000000e+02,-3.521339713957340933e+01
9.170000000000000373e-01,4.740000000000000000e+02,-3.540524309916191470e+01
9.180000000000000382e-01,4.740000000000000000e+02,-3.544101395680517896e+01
9.190000000000000391e-01,4.730000000000000000e+02,-3.531457402317749228e+01
9.200000000000000400e-01,4.730000000000000000e+02,-3.502388452336778357e+01
9.210000000000000409e-01,4.760000000000000000e+02,-3.457154421808043310e+01
9.220000000000000417e-01,4.780000000000000000e+02,-3.396502917666476407e+01
9.230000000000000426e-01,4.800000000000000000e+02,-3.321659736495975324e+01
9.240000000000000435e-01,4.800000000000000000e+02,-3.234286055436366070e+01
9.250000000000000444e-01,4.790000000000000000e+02,-3.136405657586695028e+01
9.260000000000000453e-01,4.800000000000000000e+02,-3.030307587185659912e+01
9.270000000000000462e-01,4.820000000000000000e+02,-2.918431207640450609e+01
9.280000000000000471e-01,4.850000000000000000e+02,-2.803242354053499952e+01
9.290000000000000480e-01,4.870000000000000000e+02,-2.687111205913749856e+01
9.300000000000000488e-01,4.880000000000000000e+02,-2.572203899605810662e+01
9.310000000000000497e-01,4.880000000000000000e+02,-2.460399713799051113e+01
9.320000000000000506e-01,4.870000000000000000e+02,-2.353243378152579268e+01
9.330000000000000515e-01,4.870000000000000000e+02,-2.251938074165530068e+01
9.340000000000000524e-01,4.890000000000000000e+02,-2.157380087021607551e+01
9.350000000000000533e-01,4.910000000000000000e+02,-2.070231942971664907e+01
9.360000000000000542e-01,4.920000000000000000e+02,-1.991027761701110066e+01
9.370000000000000551e-01,4.930000000000000000e+02,-1.920302247959896036e+01
9.379999999999999449e-01,4.960000000000000000e+02,-1.858732699613684147e+01
9.389999999999999458e-01,4.960000000000000000e+02,-1.807281291726799211e+01
9.399999999999999467e-01,4.950000000000000000e+02,-1.767322673400674304e+01
9.409999999999999476e-01,4.930000000000000000e+02,-1.740739700860424932e+01
9.419999999999999485e-01,4.930000000000000000e+02,-1.729968314522255923e+01
9.429999999999999494e-01,4.900000000000000000e+02,-1.737971925406382923e+01
9.439999999999999503e-01,4.860000000000000000e+02,-1.768127033457588482e+01
9.449999999999999512e-01,4.830000000000000000e+02,-1.824005659807261637e+01
9.459999999999999520e-01,4.800000000000000000e+02,-1.909046833992108105e+01
9.469999999999999529e-01,4.810000000000000000e+02,-2.026119111397334649e+01
9.479999999999999538e-01,4.830000000000000000e+02,-2.176988807639081713e+01
9.489999999999999547e-01,4.840000000000000000e+02,-2.361723262156934666e+01
9.499999999999999556e-01,4.860000000000000000e+02,-2.578072869817797041e+01
9.509999999999999565e-01,4.870000000000000000e+02,-2.820887343546828063e+01
9.519999999999999574e-01,4.890000000000000000e+02,-3.081628695467984613e+01
9.529999999999999583e-01,4.920000000000000000e+02,-3.348044657616814845e+01
9.539999999999999591e-01,4.910000000000000000e+02,-3.604061278578446093e+01
9.549999999999999600e-01,4.870000000000000000e+02,-3.829942152456360560e+01
9.559999999999999609e-01,4.830000000000000000e+02,-4.002744635672395646e+01
9.569999999999999618e-01,4.830000000000000000e+02,-4.097082045237028325e+01
9.579999999999999627e-01,4.830000000000000000e+02,-4.086177778419023809e+01
9.589999999999999636e-01,4.830000000000000000e+02,-3.943175006348774048e+01
9.599999999999999645e-01,4.820000000000000000e+02,-3.642645335482200863e+01
9.609999999999999654e-01,4.830000000000000000e+02,-2.522599683256797221e+01
9.619999999999999662e-01,4.840000000000000000e+02,-1.811127216421871466e+01
9.629999999999999671e-01,4.850000000000000000e+02,-9.158386495498112012e+00
9.639999999999999680e-01,4.890000000000000000e+02,1.632809917564852498e+00
9.649999999999999689e-01,4.990000000000000000e+02,1.418553181273128061e+01
9.659999999999999698e-01,5.110000000000000000e+02,2.834083613186710693e+01
9.669999999999999707e-01,5.280000000000000000e+02,4.385620962054453287e+01
9.679999999999999716e-01,5.470000000000000000e+02,6.040835771190104708e+01
9.689999999999999725e-01,5.680000000000000000e+02,7.760035774382694740e+01
9.699999999999999734e-01,5.920000000000000000e+02,9.497308833556650143e+01
9.709999999999999742e-01,6.140000000000000000e+02,1.120205868496702237e+02
9.719999999999999751e-01,6.350000000000000000e+02,1.282087337617135177e+02
9.729999999999999760e-01,6.550000000000000000e+02,1.429964320430675286e+02
9.739999999999999769e-01,6.760000000000000000e+02,1.558582566298820495e+02
9.749999999999999778e-01,6.960000000000000000e+02,1.663074083385785116e+02
9.759999999999999787e-01,7.140000000000000000e+02,1.739177315173922693e+02
9.769999999999999796e-01,7.280000000000000000e+02,1.783435560739196148e+02
9.779999999999999805e-01,7.390000000000000000e+02,1.923044649830065964e+02
9.789999999999999813e-01,7.410000000000000000e+02,1.898178854802752937e+02
9.799999999999999822e-01,7.320000000000000000e+02,1.705803741225844874e+02
9.809999999999999831e-01,7.140000000000000000e+02,1.609034836347987607e+02
9.819999999999999840e-01,6.920000000000000000e+02,1.479342506829469812e+02
9.829999999999999849e-01,6.640000000000000000e+02,1.319860219647200665e+02
9.839999999999999858e-01,6.310000000000000000e+02,1.134627198212682373e+02
9.849999999999999867e-01,5.940000000000000000e+02,9.284096456454503254e+01
9.859999999999999876e-01,5.590000000000000000e+02,7.064950045815524504e+01
9.869999999999999885e-01,5.290000000000000000e+02,4.744717991439046756e+01
9.879999999999999893e-01,5.040000000000000000e+02,2.380078363368292926e+01
9.889999999999999902e-01,4.810000000000000000e+02,2.638779453197486191e-01
9.899999999999999911e-01,4.610000000000000000e+02,-2.264225140842509276e+01
9.909999999999999920e-01,4.440000000000000000e+02,-4.444477562668075166e+01
9.919999999999999929e-01,4.320000000000000000e+02,-6.473205915145516087e+01
9.929999999999999938e-01,4.190000000000000000e+02,-8.316267871374267884e+01
9.939999999999999947e-01,4.060000000000000000e+02,-9.947070552489466877e+01
9.949999999999999956e-01,3.940000000000000000e+02,-1.134674536769788205e+02
9.959999999999999964e-01,3.830000000000000000e+02,-1.250400729027425939e+02
9.969999999999999973e-01,3.760000000000000000e+02,-1.341474850310405884e+02
9.979999999999999982e-01,3.710000000000000000e+02,-1.408142295241321449e+02
9.989999999999999991e-01,3.700000000000000000e+02,-1.528668840543774650e+02
1.000000000000000000e+00,3.690000000000000000e+02,-1.542954713637885789e+02
1.000999999999999890e+00,3.660000000000000000e+02,-1.535704059594192188e+02
1.002000000000000002e+00,3.640000000000000000e+02,-1.509261361966025277e+02
1.002999999999999892e+00,3.630000000000000000e+02,-1.419604409833033571e+02
1.004000000000000004e+00,3.670000000000000000e+02,-1.371245144599779451e+02
1.004999999999999893e+00,3.700000000000000000e+02,-1.311470874791756955e+02
1.006000000000000005e+00,3.760000000000000000e+02,-1.242726565128315883e+02
1.006999999999999895e+00,3.880000000000000000e+02,-1.167389442569472635e+02
1.008000000000000007e+00,4.020000000000000000e+02,-1.087717904117404970e+02
1.008999999999999897e+00,4.160000000000000000e+02,-1.005809626820284279e+02
1.010000000000000009e+00,4.270000000000000000e+02,-9.235688189410390692e+01
1.010999999999999899e+00,4.340000000000000000e+02,-8.426823703918111619e+01
1.012000000000000011e+00,4.400000000000000000e+02,-7.646044716913324635e+01
1.012999999999999901e+00,4.460000000000000000e+02,-6.905490670345494664e+01
1.014000000000000012e+00,4.510000000000000000e+02,-6.214892979556502439e+01
1.014999999999999902e+00,4.550000000000000000e+02,-5.581629097167039788e+01
1.016000000000000014e+00,4.580000000000000000e+02,-5.010824790125410999e+01
1.016999999999999904e+00,4.620000000000000000e+02,-4.505493198907532104e+01
1.018000000000000016e+00,4.690000000000000000e+02,-4.066700465257233787e+01
1.018999999999999906e+00,4.760000000000000000e+02,-3.470677784727077153e+01
1.020000000000000018e+00,4.810000000000000000e+02,-3.175033825989702052e+01
1.020999999999999908e+00,4.850000000000000000e+02,-2.943255028133353335e+01
1.022000000000000020e+00,4.870000000000000000e+02,-2.769860277168286800e+01
1.022999999999999909e+00,4.870000000000000000e+02,-2.648394684897741058e+01
1.024000000000000021e+00,4.840000000000000000e+02,-2.571661469218182461e+01
1.024999999999999911e+00,4.820000000000000000e+02,-2.531975749580571033e+01
1.026000000000000023e+00,4.820000000000000000e+02,-2.521434617225979125e+01
1.026999999999999913e+00,4.840000000000000000e+02,-2.532192959909536967e+01
1.028000000000000025e+00,4.860000000000000000e+02,-2.556732287730656594e+01
1.028999999999999915e+00,4.870000000000000000e+02,-2.588110044700416879e+01
1.030000000000000027e+00,4.860000000000000000e+02,-2.620178296846114918e+01
1.030999999999999917e+00,4.810000000000000000e+02,-2.647761919112837603e+01
1.032000000000000028e+00,4.810000000000000000e+02,-2.666787124872108095e+01
1.032999999999999918e+00,4.820000000000000000e+02,-2.674352296676816110e+01
1.034000000000000030e+00,4.830000000000000000e+02,-2.668735894346815130e+01
1.034999999999999920e+00,4.850000000000000000e+02,-2.649341165371774665e+01
1.036000000000000032e+00,4.870000000000000000e+02,-2.616583495448168151e+01
1.036999999999999922e+00,4.880000000000000000e+02,-2.571731838707233209e+01
1.038000000000000034e+00,4.870000000000000000e+02,-2.516719358659206307e+01
1.038999999999999924e+00,4.870000000000000000e+02,-2.453939551262122265e+01
1.040000000000000036e+00,4.870000000000000000e+02,-2.386042902980304348e+01
1.040999999999999925e+00,4.860000000000000000e+02,-2.315746388075200812e+01
1.042000000000000037e+00,4.870000000000000000e+02,-2.245664828105144650e+01
1.042999999999999927e+00,4.890000000000000000e+02,-2.178170061442867578e+01
1.044000000000000039e+00,4.890000000000000000e+02,-2.115281338619217877e+01
1.044999999999999929e+00,4.900000000000000000e+02,-2.058588332857459591e+01
1.046000000000000041e+00,4.920000000000000000e+02,-2.009206392638219896e+01
1.046999999999999931e+00,4.930000000000000000e+02,-1.967762000921434407e+01
1.048000000000000043e+00,4.910000000000000000e+02,-1.934404843553970110e+01
1.048999999999999932e+00,4.890000000000000000e+02,-1.908841512145392016e+01
1.050000000000000044e+00,4.920000000000000000e+02,-1.890384992128804242e+01
1.050999999999999934e+00,4.940000000000000000e+02,-1.878014348778467024e+01
1.052000000000000046e+00,4.960000000000000000e+02,-1.870440763709349952e+01
1.052999999999999936e+00,4.950000000000000000e+02,-1.866178586991482291e+01
1.054000000000000048e+00,4.930000000000000000e+02,-1.863621911227845018e+01
1.054999999999999938e+00,4.940000000000000000e+02,-1.861127368526935300e+01
1.056000000000000050e+00,4.940000000000000000e+02,-1.857102561764599002e+01
1.056999999999999940e+00,4.890000000000000000e+02,-1.850097538063924318e+01
1.058000000000000052e+00,4.890000000000000000e+02,-1.838894592138897721e+01
1.058999999999999941e+00,4.890000000000000000e+02,-1.822589880943441543e+01
1.060000000000000053e+00,4.890000000000000000e+02,-1.800659438371836174e+01
1.060999999999999943e+00,4.890000000000000000e+02,-1.773002677638271862e+01
1.062000000000000055e+00,4.900000000000000000e+02,-1.739958237489614135e+01
1.062999999999999945e+00,4.920000000000000000e+02,-1.702289555388528441e+01
1.064000000000000057e+00,4.930000000000000000e+02,-1.661140416114284335e+01
1.064999999999999947e+00,4.950000000000000000e+02,-1.617963629284463778e+01
1.066000000000000059e+00,4.970000000000000000e+02,-1.574428594309332041e+01
1.066999999999999948e+00,4.990000000000000000e+02,-1.532315471654670880e+01
1.068000000000000060e+00,5.000000000000000000e+02,-1.493404714995466875e+01
1.068999999999999950e+00,4.990000000000000000e+02,-1.459370602043585308e+01
1.070000000000000062e+00,4.990000000000000000e+02,-1.431686057447281080e+01
1.070999999999999952e+00,4.970000000000000000e+02,-1.411543773791559353e+01
1.072000000000000064e+00,4.960000000000000000e+02,-1.399796061957054505e+01
1.072999999999999954e+00,4.950000000000000000e+02,-1.396913751069130960e+01
1.074000000000000066e+00,4.960000000000000000e+02,-1.402963339353465066e+01
1.074999999999999956e+00,4.960000000000000000e+02,-1.417601576281023590e+01
1.076000000000000068e+00,4.960000000000000000e+02,-1.440087338497922964e+01
1.076999999999999957e+00,4.950000000000000000e+02,-1.469311308533268878e+01
1.078000000000000069e+00,4.940000000000000000e+02,-1.503843935415951982e+01
1.078999999999999959e+00,4.940000000000000000e+02,-1.542001313047041400e+01
1.080000000000000071e+00,4.940000000000000000e+02,-1.581927314608012480e+01
1.080999999999999961e+00,4.950000000000000000e+02,-1.621689040792104208e+01
1.082000000000000073e+00,4.950000000000000000e+02,-1.659381579379310523e+01
1.082999999999999963e+00,4.950000000000000000e+02,-1.693237102259329063e+01
1.084000000000000075e+00,4.930000000000000000e+02,-1.721732223670992568e+01
1.084999999999999964e+00,4.920000000000000000e+02,-1.743686334244345559e+01
1.086000000000000076e+00,4.920000000000000000e+02,-1.758342738914911507e+01
1.086999999999999966e+00,4.920000000000000000e+02,-1.765424514238504372e+01
1.088000000000000078e+00,4.920000000000000000e+02,-1.765158478765705041e+01
1.088999999999999968e+00,4.930000000000000000e+02,-1.758263392876379427e+01
1.090000000000000080e+00,4.940000000000000000e+02,-1.745901868413600866e+01
1.090999999999999970e+00,4.930000000000000000e+02,-1.729598743597726695e+01
1.092000000000000082e+00,4.900000000000000000e+02,-1.711131266465057266e+01
1.092999999999999972e+00,4.890000000000000000e+02,-1.692398131468321409e+01
1.094000000000000083e+00,4.920000000000000000e+02,-1.675275667810552704e+01
1.094999999999999973e+00,4.960000000000000000e+02,-1.661471044165661937e+01
1.096000000000000085e+00,4.980000000000000000e+02,-1.652384346635940204e+01
1.096999999999999975e+00,4.960000000000000000e+02,-1.648992694633133382e+01
1.098000000000000087e+00,4.950000000000000000e+02,-1.651768633510708995e+01
1.098999999999999977e+00,4.940000000000000000e+02,-1.660641391365426145e+01
1.100000000000000089e+00,4.950000000000000000e+02,-1.675004312280601937e+01
1.100999999999999979e+00,4.960000000000000000e+02,-1.693766594010482152e+01
1.102000000000000091e+00,4.950000000000000000e+02,-1.715443369578051147e+01
1.102999999999999980e+00,4.930000000000000000e+02,-1.738275134178591941e+01
1.104000000000000092e+00,4.910000000000000000e+02,-1.760365140388943672e+01
1.104999999999999982e+00,4.910000000000000000e+02,-1.779821739138763448e+01
1.106000000000000094e+00,4.910000000000000000e+02,-1.794892328046954688e+01
1.106999999999999984e+00,4.910000000000000000e+02,-1.804077047281775847e+01
1.108000000000000096e+00,4.910000000000000000e+02,-1.806213408231022299e+01
1.108999999999999986e+00,4.910000000000000000e+02,-1.800526865079783079e+01
1.110000000000000098e+00,4.900000000000000000e+02,-1.786646151866458609e+01
1.110999999999999988e+00,4.900000000000000000e+02,-1.764585580511156593e+01
1.112000000000000099e+00,4.910000000000000000e+02,-1.734699376999751763e+01
1.112999999999999989e+00,4.940000000000000000e+02,-1.697615636847598353e+01
1.114000000000000101e+00,4.960000000000000000e+02,-1.654159547902971639e+01
1.114999999999999991e+00,4.970000000000000000e+02,-1.605276667735276419e+01
1.116000000000000103e+00,4.970000000000000000e+02,-1.551966506339458718e+01
1.116999999999999993e+00,4.960000000000000000e+02,-1.495234049656800757e+01
1.118000000000000105e+00,4.950000000000000000e+02,-1.436062597098085369e+01
1.118999999999999995e+00,4.950000000000000000e+02,-1.375406557621837855e+01
1.120000000000000107e+00,4.960000000000000000e+02,-1.314199026501620793e+01
1.120999999999999996e+00,4.980000000000000000e+02,-1.253366988786643255e+01
1.122000000000000108e+00,4.990000000000000000e+02,-1.193846999067820036e+01
1.122999999999999998e+00,4.990000000000000000e+02,-1.136595553028154093e+01
1.124000000000000110e+00,5.000000000000000000e+02,-1.082590200197453889e+01
1.125000000000000000e+00,5.010000000000000000e+02,-1.032819128062998715e+01
1.125999999999999890e+00,5.000000000000000000e+02,-9.882582899974668322e+00
1.127000000000000002e+00,4.990000000000000000e+02,-9.498361718526272313e+00
1.127999999999999892e+00,4.960000000000000000e+02,-9.183870855314076209e+00
1.129000000000000004e+00,4.970000000000000000e+02,-8.945947844574005714e+00
1.129999999999999893e+00,5.020000000000000000e+02,-8.789298182774164303e+00
1.131000000000000005e+00,5.040000000000000000e+02,-8.715866557173026052e+00
1.131999999999999895e+00,5.060000000000000000e+02,-8.724294071552501251e+00
1.133000000000000007e+00,5.040000000000000000e+02,-8.809562374891948267e+00
1.133999999999999897e+00,4.990000000000000000e+02,-8.962908732175693061e+00
1.135000000000000009e+00,4.980000000000000000e+02,-9.172051896146339089e+00
1.135999999999999899e+00,4.990000000000000000e+02,-9.421716009318464202e+00
1.137000000000000011e+00,5.020000000000000000e+02,-9.694401521625414020e+00
1.137999999999999901e+00,5.040000000000000000e+02,-9.971338710081916190e+00
1.139000000000000012e+00,5.020000000000000000e+02,-1.023356252495892882e+01
1.139999999999999902e+00,5.020000000000000000e+02,-1.046304957018616832e+01
1.141000000000000014e+00,5.000000000000000000e+02,-1.064384800000891751e+01
1.141999999999999904e+00,4.960000000000000000e+02,-1.076311164935582276e+01
1.143000000000000016e+00,4.950000000000000000e+02,-1.081193242678400068e+01
1.143999999999999906e+00,4.950000000000000000e+02,-1.078586244918574266e+01
1.145000000000000018e+00,4.950000000000000000e+02,-1.068503788841423408e+01
1.145999999999999908e+00,4.960000000000000000e+02,-1.051386054251418400e+01
1.147000000000000020e+00,4.990000000000000000e+02,-1.028025259802742220e+01
1.147999999999999909e+00,5.010000000000000000e+02,-9.994561904100308425e+00
1.149000000000000021e+00,5.010000000000000000e+02,-9.668246197586658042e+00
1.149999999999999911e+00,5.020000000000000000e+02,-9.312494752868921921e+00
1.151000000000000023e+00,5.030000000000000000e+02,-8.936950315762697272e+00
1.151999999999999913e+00,5.040000000000000000e+02,-8.548675794031741049e+00
1.153000000000000025e+00,5.040000000000000000e+02,-8.151476086736030524e+00
1.153999999999999915e+00,5.050000000000000000e+02,-7.745641893974777759e+00
1.155000000000000027e+00,5.050000000000000000e+02,-7.328133591032830019e+00
1.155999999999999917e+00,5.030000000000000000e+02,-6.893173187478994990e+00
1.157000000000000028e+00,5.030000000000000000e+02,-6.433165765407687253e+00
1.157999999999999918e+00,5.040000000000000000e+02,-5.939834449301757857e+00
1.159000000000000030e+00,5.030000000000000000e+02,-5.405430728633590753e+00
1.159999999999999920e+00,5.010000000000000000e+02,-4.823877653684132127e+00
1.161000000000000032e+00,5.020000000000000000e+02,-4.191716027266656042e+00
1.161999999999999922e+00,5.040000000000000000e+02,-3.508751625420627906e+00
1.163000000000000034e+00,5.060000000000000000e+02,-2.778343632169832045e+00
1.163999999999999924e+00,5.070000000000000000e+02,-2.007326041292702978e+00
1.165000000000000036e+00,5.090000000000000000e+02,-1.205604183662081219e+00
1.165999999999999925e+00,5.100000000000000000e+02,-3.855066635995828550e-01
1.167000000000000037e+00,5.100000000000000000e+02,4.390069084473153804e-01
1.167999999999999927e+00,5.110000000000000000e+02,1.253179621926625797e+00
1.169000000000000039e+00,5.120000000000000000e+02,2.042240934353984461e+00
1.169999999999999929e+00,5.150000000000000000e+02,2.792068262162279435e+00
1.171000000000000041e+00,5.160000000000000000e+02,3.489678030074239157e+00
1.171999999999999931e+00,5.120000000000000000e+02,4.123525102414203225e+00
1.173000000000000043e+00,5.120000000000000000e+02,4.683621328785890547e+00
1.173999999999999932e+00,5.120000000000000000e+02,5.161515197995051984e+00
1.175000000000000044e+00,5.150000000000000000e+02,5.550193639146731250e+00
1.175999999999999934e+00,5.180000000000000000e+02,5.843964704416627853e+00
1.177000000000000046e+00,5.180000000000000000e+02,6.038359643264382015e+00
1.177999999999999936e+00,5.160000000000000000e+02,6.130069106795919431e+00
1.179000000000000048e+00,5.150000000000000000e+02,6.116914201752923219e+00
1.179999999999999938e+00,5.150000000000000000e+02,5.997850858243772620e+00
1.181000000000000050e+00,5.150000000000000000e+02,5.773007324520516015e+00
1.181999999999999940e+00,5.150000000000000000e+02,5.443751337897463571e+00
1.183000000000000052e+00,5.160000000000000000e+02,5.012775132657265154e+00
1.183999999999999941e+00,5.140000000000000000e+02,4.484178907579075002e+00
1.185000000000000053e+00,5.110000000000000000e+02,3.863533069588581004e+00
1.185999999999999943e+00,5.100000000000000000e+02,3.157908154156288116e+00
1.187000000000000055e+00,5.090000000000000000e+02,2.375873755489371852e+00
1.187999999999999945e+00,5.090000000000000000e+02,1.527475347558316265e+00
1.189000000000000057e+00,5.100000000000000000e+02,6.241949722778159515e-01
1.189999999999999947e+00,5.110000000000000000e+02,-3.211096768528703960e-01
1.191000000000000059e+00,5.100000000000000000e+02,-1.294305645975796226e+00
1.191999999999999948e+00,5.080000000000000000e+02,-2.280147519169452686e+00
1.193000000000000060e+00,5.060000000000000000e+02,-3.262519314622261302e+00
1.193999999999999950e+00,5.050000000000000000e+02,-4.224757964953417932e+00
1.195000000000000062e+00,5.050000000000000000e+02,-5.150047373667074879e+00
1.195999999999999952e+00,5.050000000000000000e+02,-6.021866645482153224e+00
1.197000000000000064e+00,5.040000000000000000e+02,-6.824479365410032194e+00
1.197999999999999954e+00,5.040000000000000000e+02,-7.543456997457497870e+00
1.199000000000000066e+00,5.020000000000000000e+02,-8.166231667896308721e+00
1.199999999999999956e+00,5.010000000000000000e+02,-8.682668246058495853e+00
1.201000000000000068e+00,4.990000000000000000e+02,-9.085633577394810700e+00
1.201999999999999957e+00,4.970000000000000000e+02,-9.371525906573133113e+00
1.203000000000000069e+00,4.970000000000000000e+02,-9.540715364069122018e+00
1.203999999999999959e+00,4.990000000000000000e+02,-9.597841849086929500e+00
1.205000000000000071e+00,4.990000000000000000e+02,-9.551921505034743021e+00
1.205999999999999961e+00,4.970000000000000000e+02,-9.416223782745811732e+00
1.207000000000000073e+00,4.950000000000000000e+02,-9.207891803525768637e+00
1.207999999999999963e+00,4.950000000000000000e+02,-8.947288202082738451e+00
1.209000000000000075e+00,4.980000000000000000e+02,-8.657064116399642018e+00
1.209999999999999964e+00,5.020000000000000000e+02,-8.360979296328084232e+00
1.211000000000000076e+00,5.040000000000000000e+02,-8.082545648431644025e+00
1.211999999999999966e+00,5.060000000000000000e+02,-7.843611606427098870e+00
1.213000000000000078e+00,5.080000000000000000e+02,-7.663033048231663535e+00
1.213999999999999968e+00,5.080000000000000000e+02,-7.555577072429532137e+00
1.215000000000000080e+00,5.040000000000000000e+02,-7.531176678183458151e+00
1.215999999999999970e+00,5.030000000000000000e+02,-7.594603666136243270e+00
1.217000000000000082e+00,5.010000000000000000e+02,-7.745565905913979421e+00
1.217999999999999972e+00,4.990000000000000000e+02,-7.979178635844187184e+00
1.219000000000000083e+00,4.970000000000000000e+02,-8.286719933743764699e+00
1.219999999999999973e+00,4.970000000000000000e+02,-8.656562774747142086e+00
1.221000000000000085e+00,4.990000000000000000e+02,-9.075178877663660160e+00
1.221999999999999975e+00,4.980000000000000000e+02,-9.528127736278158011e+00
1.223000000000000087e+00,4.980000000000000000e+02,-1.000096910102213243e+01
1.223999999999999977e+00,4.970000000000000000e+02,-1.048005878740452523e+01
1.225000000000000089e+00,4.970000000000000000e+02,-1.095320066945099313e+01
1.225999999999999979e+00,4.960000000000000000e+02,-1.141013375324116019e+01
1.227000000000000091e+00,4.950000000000000000e+02,-1.184283754131905120e+01
1.227999999999999980e+00,4.960000000000000000e+02,-1.224564605646028426e+01
1.229000000000000092e+00,4.970000000000000000e+02,-1.261517348155036444e+01
1.229999999999999982e+00,4.980000000000000000e+02,-1.295007226925113741e+01
1.231000000000000094e+00,4.990000000000000000e+02,-1.325066370404286609e+01
1.231999999999999984e+00,4.980000000000000000e+02,-1.351849425230471269e+01
1.233000000000000096e+00,4.960000000000000000e+02,-1.375587278520363732e+01
1.233999999999999986e+00,4.950000000000000000e+02,-1.396543331824476475e+01
1.235000000000000098e+00,4.940000000000000000e+02,-1.414975080564296839e+01
1.235999999999999988e+00,4.930000000000000000e+02,-1.431102216400758920e+01
1.237000000000000099e+00,4.930000000000000000e+02,-1.445081719958318800e+01
1.237999999999999989e+00,4.940000000000000000e+02,-1.456990549003084112e+01
1.239000000000000101e+00,4.940000000000000000e+02,-1.466817229275576651e+01
1.239999999999999991e+00,4.940000000000000000e+02,-1.474464379657931978e+01
1.241000000000000103e+00,4.960000000000000000e+02,-1.479764395182980330e+01
1.241999999999999993e+00,4.960000000000000000e+02,-1.482509806685331988e+01
1.243000000000000105e+00,4.940000000000000000e+02,-1.482498117165141238e+01
1.243999999999999995e+00,4.940000000000000000e+02,-1.479588277120402751e+01
1.245000000000000107e+00,4.950000000000000000e+02,-1.473762819142283931e+01
1.245999999999999996e+00,4.930000000000000000e+02,-1.465186759787519932e+01
1.247000000000000108e+00,4.890000000000000000e+02,-1.454252375854402146e+01
1.247999999999999998e+00,4.870000000000000000e+02,-1.441598328537688900e+01
1.249000000000000110e+00,4.880000000000000000e+02,-1.428092956377314060e+01
1.250000000000000000e+00,4.930000000000000000e+02,-1.414775719684323541e+01
1.250999999999999890e+00,4.970000000000000000e+02,-1.402757890502473970e+01
1.252000000000000002e+00,5.000000000000000000e+02,-1.393092156686364902e+01
1.252999999999999892e+00,4.990000000000000000e+02,-1.386628125316283899e+01
1.254000000000000004e+00,4.980000000000000000e+02,-1.383874373227777355e+01
1.254999999999999893e+00,5.010000000000000000e+02,-1.384886972509868919e+01
1.256000000000000005e+00,4.990000000000000000e+02,-1.389200235007573880e+01
1.256999999999999895e+00,4.950000000000000000e+02,-1.395809185399319752e+01
1.258000000000000007e+00,4.910000000000000000e+02,-1.403206052089126388e+01
1.258999999999999897e+00,4.910000000000000000e+02,-1.409465906319540274e+01
1.260000000000000009e+00,4.920000000000000000e+02,-1.412370977495921487e+01
1.260999999999999899e+00,4.930000000000000000e+02,-1.409560405152243234e+01
1.262000000000000011e+00,4.950000000000000000e+02,-1.398692249698654066e+01
1.262999999999999901e+00,4.950000000000000000e+02,-1.377606216752894142e+01
1.264000000000000012e+00,4.960000000000000000e+02,-1.344477292339152008e+01
1.264999999999999902e+00,4.950000000000000000e+02,-1.297951543612989944e+01
1.266000000000000014e+00,4.940000000000000000e+02,-1.237255735191193473e+01
1.266999999999999904e+00,4.950000000000000000e+02,-1.162272726395936040e+01
1.268000000000000016e+00,4.960000000000000000e+02,-1.073575621215818821e+01
1.268999999999999906e+00,4.980000000000000000e+02,-9.724158672126986147e+00
1.270000000000000018e+00,4.990000000000000000e+02,-8.606638669515820794e+00
1.270999999999999908e+00,4.990000000000000000e+02,-7.407045433031091974e+00
1.272000000000000020e+00,5.000000000000000000e+02,-6.152939826458148076e+00
1.272999999999999909e+00,5.020000000000000000e+02,-4.873864634854645494e+00
1.274000000000000021e+00,5.050000000000000000e+02,-3.599439561514467201e+00
1.274999999999999911e+00,5.080000000000000000e+02,-2.357425897944882998e+00
1.276000000000000023e+00,5.100000000000000000e+02,-1.171922142167524772e+00
1.276999999999999913e+00,5.110000000000000000e+02,-6.185295016655334432e-02
1.278000000000000025e+00,5.120000000000000000e+02,9.601057230793484942e-01
1.278999999999999915e+00,5.130000000000000000e+02,1.888061843771387638e+00
1.280000000000000027e+00,5.150000000000000000e+02,2.722852307534835425e+00
1.280999999999999917e+00,5.150000000000000000e+02,3.471405848604962596e+00
1.282000000000000028e+00,5.130000000000000000e+02,4.145591311990233230e+00
1.282999999999999918e+00,5.110000000000000000e+02,4.760675279322099662e+00
1.284000000000000030e+00,5.080000000000000000e+02,5.333560510733474480e+00
1.284999999999999920e+00,5.100000000000000000e+02,5.881004040744209682e+00
1.286000000000000032e+00,5.120000000000000000e+02,6.418009923342897771e+00
1.286999999999999922e+00,5.130000000000000000e+02,6.956553942673505020e+00
1.288000000000000034e+00,5.140000000000000000e+02,7.504736128939533124e+00
1.288999999999999924e+00,5.160000000000000000e+02,8.066388824343517783e+00
1.290000000000000036e+00,5.180000000000000000e+02,8.641107685026057084e+00
1.290999999999999925e+00,5.190000000000000000e+02,9.224627766195780509e+00
1.292000000000000037e+00,5.200000000000000000e+02,9.809440150095825928e+00
1.292999999999999927e+00,5.190000000000000000e+02,1.038553836119674045e+01
1.294000000000000039e+00,5.180000000000000000e+02,1.094119683410188415e+01
1.294999999999999929e+00,5.200000000000000000e+02,1.146370977271086389e+01
1.296000000000000041e+00,5.200000000000000000e+02,1.194004861692618569e+01
1.296999999999999931e+00,5.200000000000000000e+02,1.235742266379367038e+01
1.298000000000000043e+00,5.190000000000000000e+02,1.270374795677638957e+01
1.298999999999999932e+00,5.200000000000000000e+02,1.296804483233865035e+01
1.300000000000000044e+00,5.210000000000000000e+02,1.314079326718528584e+01
1.300999999999999934e+00,5.200000000000000000e+02,1.321427487189566641e+01
1.302000000000000046e+00,5.210000000000000000e+02,1.318292089879710360e+01
1.302999999999999936e+00,5.220000000000000000e+02,1.304366976020777003e+01
1.304000000000000048e+00,5.230000000000000000e+02,1.279631864709843114e+01
1.304999999999999938e+00,5.230000000000000000e+02,1.244383562338715166e+01
1.306000000000000050e+00,5.230000000000000000e+02,1.199258631158603450e+01
1.306999999999999940e+00,5.200000000000000000e+02,1.145242812290717893e+01
1.308000000000000052e+00,5.170000000000000000e+02,1.083663617929937928e+01
1.308999999999999941e+00,5.160000000000000000e+02,1.016164389090048559e+01
1.310000000000000053e+00,5.170000000000000000e+02,9.446598484914199290e+00
1.310999999999999943e+00,5.180000000000000000e+02,8.712740068398849402e+00
1.312000000000000055e+00,5.180000000000000000e+02,7.982612875945537034e+00
1.312999999999999945e+00,5.150000000000000000e+02,7.279118798269683666e+00
1.314000000000000057e+00,5.130000000000000000e+02,6.624435977564733236e+00
1.314999999999999947e+00,5.120000000000000000e+02,6.038849755855905777e+00
1.316000000000000059e+00,5.120000000000000000e+02,5.539569834778998114e+00
1.316999999999999948e+00,5.110000000000000000e+02,5.139624308128827757e+00
1.318000000000000060e+00,5.110000000000000000e+02,4.846922741502633691e+00
1.318999999999999950e+00,5.120000000000000000e+02,4.663568264588159096e+00
1.320000000000000062e+00,5.120000000000000000e+02,4.585476851652944497e+00
1.320999999999999952e+00,5.130000000000000000e+02,4.602334599495291556e+00
1.322000000000000064e+00,5.140000000000000000e+02,4.697895009564483360e+00
1.322999999999999954e+00,5.150000000000000000e+02,4.850592390962865430e+00
1.324000000000000066e+00,5.150000000000000000e+02,5.034428488490467757e+00
1.324999999999999956e+00,5.130000000000000000e+02,5.220080401983852703e+00
1.326000000000000068e+00,5.110000000000000000e+02,5.376179503966739048e+00
1.326999999999999957e+00,5.100000000000000000e+02,5.470719335455441978e+00
1.328000000000000069e+00,5.100000000000000000e+02,5.472556818716688198e+00
1.328999999999999959e+00,5.100000000000000000e+02,5.352967286247062084e+00
1.330000000000000071e+00,5.120000000000000000e+02,5.087197452408546816e+00
1.330999999999999961e+00,5.140000000000000000e+02,4.655936719570334503e+00
1.332000000000000073e+00,5.150000000000000000e+02,4.046606095290441907e+00
1.332999999999999963e+00,5.140000000000000000e+02,3.254356458075951419e+00
1.334000000000000075e+00,5.120000000000000000e+02,2.282681679915630202e+00
1.334999999999999964e+00,5.090000000000000000e+02,1.143587257749149932e+00
1.336000000000000076e+00,5.060000000000000000e+02,-1.426975689912966527e-01
1.336999999999999966e+00,5.050000000000000000e+02,-1.548431463793589424e+00
1.338000000000000078e+00,5.040000000000000000e+02,-3.039434780152712179e+00
1.338999999999999968e+00,5.050000000000000000e+02,-4.576456798465386555e+00
1.340000000000000080e+00,5.050000000000000000e+02,-6.116778458830522958e+00
1.340999999999999970e+00,5.050000000000000000e+02,-7.616009471291788735e+00
1.342000000000000082e+00,5.030000000000000000e+02,-9.030047699410259199e+00
1.342999999999999972e+00,4.990000000000000000e+02,-1.031715994728701347e+01
1.344000000000000083e+00,4.960000000000000000e+02,-1.144011520524002101e+01
1.344999999999999973e+00,4.940000000000000000e+02,-1.236826182267180130e+01
1.346000000000000085e+00,4.910000000000000000e+02,-1.307940209409325938e+01
1.346999999999999975e+00,4.870000000000000000e+02,-1.356129298835636199e+01
1.348000000000000087e+00,4.830000000000000000e+02,-1.381259696174052642e+01
1.348999999999999977e+00,4.830000000000000000e+02,-1.384312673753333378e+01
1.350000000000000089e+00,4.850000000000000000e+02,-1.367327831045717446e+01
1.350999999999999979e+00,4.920000000000000000e+02,-1.333262964306596210e+01
1.352000000000000091e+00,4.970000000000000000e+02,-1.285778936339692535e+01
1.352999999999999980e+00,4.980000000000000000e+02,-1.228968720557056571e+01
1.354000000000000092e+00,5.000000000000000000e+02,-1.167057832691131836e+01
1.354999999999999982e+00,5.060000000000000000e+02,-1.104106965379291516e+01
1.356000000000000094e+00,5.070000000000000000e+02,-1.043746754001416122e+01
1.356999999999999984e+00,5.070000000000000000e+02,-9.889700276553510250e+00
1.358000000000000096e+00,5.030000000000000000e+02,-9.419992642902608182e+00
1.358999999999999986e+00,5.010000000000000000e+02,-9.042369529581492316e+00
1.360000000000000098e+00,4.990000000000000000e+02,-8.762956777211217130e+00
1.360999999999999988e+00,4.970000000000000000e+02,-8.580950968719402994e+00
1.362000000000000099e+00,4.950000000000000000e+02,-8.490062462419139422e+00
1.362999999999999989e+00,4.920000000000000000e+02,-8.480203035904469999e+00
1.364000000000000101e+00,4.920000000000000000e+02,-8.539189123043737339e+00
1.364999999999999991e+00,4.920000000000000000e+02,-8.654260041143857052e+00
1.366000000000000103e+00,4.940000000000000000e+02,-8.813263439204760630e+00
1.366999999999999993e+00,4.970000000000000000e+02,-9.005429501167872886e+00
1.368000000000000105e+00,4.980000000000000000e+02,-9.221728320569244630e+00
1.368999999999999995e+00,4.990000000000000000e+02,-9.454866431003711824e+00
1.370000000000000107e+00,4.990000000000000000e+02,-9.699017379890605639e+00
1.370999999999999996e+00,4.980000000000000000e+02,-9.949394248761741721e+00
1.372000000000000108e+00,4.970000000000000000e+02,-1.020176458231708772e+01
1.372999999999999998e+00,4.990000000000000000e+02,-1.045199070146551534e+01
1.374000000000000110e+00,5.020000000000000000e+02,-1.069566064798874372e+01
1.375000000000000000e+00,5.010000000000000000e+02,-1.092786062380114132e+01
1.375999999999999890e+00,4.970000000000000000e+02,-1.114312402831864368e+01
1.377000000000000002e+00,4.950000000000000000e+02,-1.133556838601241523e+01
1.377999999999999892e+00,4.960000000000000000e+02,-1.149920151255420819e+01
1.379000000000000004e+00,4.970000000000000000e+02,-1.162835368383489865e+01
1.379999999999999893e+00,4.960000000000000000e+02,-1.171818231322922088e+01
1.381000000000000005e+00,4.940000000000000000e+02,-1.176519648692629616e+01
1.381999999999999895e+00,4.920000000000000000e+02,-1.176775075933133863e+01
1.383000000000000007e+00,4.920000000000000000e+02,-1.172645665863305275e+01
1.383999999999999897e+00,4.940000000000000000e+02,-1.164446120184815392e+01
1.385000000000000009e+00,4.940000000000000000e+02,-1.152755035136620521e+01
1.385999999999999899e+00,4.940000000000000000e+02,-1.138405096579599629e+01
1.387000000000000011e+00,4.950000000000000000e+02,-1.122452078419539845e+01
1.387999999999999901e+00,4.920000000000000000e+02,-1.106122723345712977e+01
1.389000000000000012e+00,4.910000000000000000e+02,-1.090742378211575137e+01
1.389999999999999902e+00,4.930000000000000000e+02,-1.077644437083662687e+01
1.391000000000000014e+00,5.000000000000000000e+02,-1.068066051857114118e+01
1.391999999999999904e+00,5.040000000000000000e+02,-1.063038357466630579e+01
1.393000000000000016e+00,5.030000000000000000e+02,-1.063283350471266075e+01
1.393999999999999906e+00,5.010000000000000000e+02,-1.069131285479958926e+01
1.395000000000000018e+00,4.980000000000000000e+02,-1.080470518694284543e+01
1.395999999999999908e+00,4.970000000000000000e+02,-1.096736768303330223e+01
1.397000000000000020e+00,4.970000000000000000e+02,-1.116942963626591201e+01
1.397999999999999909e+00,4.960000000000000000e+02,-1.139746180191090374e+01
1.399000000000000021e+00,4.950000000000000000e+02,-1.163545218088214916e+01
1.399999999999999911e+00,4.930000000000000000e+02,-1.186600691567370625e+01
1.401000000000000023e+00,4.930000000000000000e+02,-1.207168413438740551e+01
1.401999999999999913e+00,4.930000000000000000e+02,-1.223636165809975296e+01
1.403000000000000025e+00,4.930000000000000000e+02,-1.234653740508908548e+01
1.403999999999999915e+00,4.920000000000000000e+02,-1.239246392150637810e+01
1.405000000000000027e+00,4.910000000000000000e+02,-1.236902379250067696e+01
1.405999999999999917e+00,4.900000000000000000e+02,-1.227626030203847840e+01
1.407000000000000028e+00,4.900000000000000000e+02,-1.211949119731670521e+01
1.407999999999999918e+00,4.890000000000000000e+02,-1.190895878249223472e+01
1.409000000000000030e+00,4.910000000000000000e+02,-1.165901146432819147e+01
1.409999999999999920e+00,4.980000000000000000e+02,-1.138687072664158251e+01
1.411000000000000032e+00,5.020000000000000000e+02,-1.111110705652753339e+01
1.411999999999999922e+00,5.050000000000000000e+02,-1.085001300033088434e+01
1.413000000000000034e+00,5.060000000000000000e+02,-1.062009885603210080e+01
1.413999999999999924e+00,5.070000000000000000e+02,-1.043492810986810326e+01
1.415000000000000036e+00,5.030000000000000000e+02,-1.030445172883920080e+01
1.415999999999999925e+00,4.970000000000000000e+02,-1.023490395795051100e+01
1.417000000000000037e+00,4.920000000000000000e+02,-1.022920809596306313e+01
1.417999999999999927e+00,4.890000000000000000e+02,-1.028773530959505678e+01
1.419000000000000039e+00,4.860000000000000000e+02,-1.040918976521411921e+01
1.419999999999999929e+00,4.870000000000000000e+02,-1.059137692445474421e+01
1.421000000000000041e+00,4.880000000000000000e+02,-1.083165048284732457e+01
1.421999999999999931e+00,4.890000000000000000e+02,-1.112691454692912885e+01
1.423000000000000043e+00,4.920000000000000000e+02,-1.147316131677390061e+01
1.423999999999999932e+00,4.970000000000000000e+02,-1.186463033609026141e+01
1.425000000000000044e+00,5.000000000000000000e+02,-1.229276597648631508e+01
1.425999999999999934e+00,5.010000000000000000e+02,-1.274521074617462624e+01
1.427000000000000046e+00,5.030000000000000000e+02,-1.320509164940660085e+01
1.427999999999999936e+00,5.060000000000000000e+02,-1.365083011868266105e+01
1.429000000000000048e+00,5.040000000000000000e+02,-1.405663639989556302e+01
1.429999999999999938e+00,4.980000000000000000e+02,-1.439374481882471457e+01
1.431000000000000050e+00,4.900000000000000000e+02,-1.463231829119806804e+01
1.431999999999999940e+00,4.850000000000000000e+02,-1.474381859108478743e+01
1.433000000000000052e+00,4.800000000000000000e+02,-1.470353421803770644e+01
1.433999999999999941e+00,4.810000000000000000e+02,-1.449291166110119455e+01
1.435000000000000053e+00,4.840000000000000000e+02,-1.410136416115804359e+01
1.435999999999999943e+00,4.880000000000000000e+02,-1.352732675509185967e+01
1.437000000000000055e+00,4.920000000000000000e+02,-1.277845988395220900e+01
1.437999999999999945e+00,4.960000000000000000e+02,-1.187104061037774727e+01
1.439000000000000057e+00,4.990000000000000000e+02,-1.082869003972695232e+01
1.439999999999999947e+00,5.000000000000000000e+02,-9.680650648361691424e+00
1.441000000000000059e+00,5.000000000000000000e+02,-8.459844830105014424e+00
1.441999999999999948e+00,5.000000000000000000e+02,-7.200924367357349531e+00
1.443000000000000060e+00,5.030000000000000000e+02,-5.938475559948548366e+00
1.443999999999999950e+00,5.060000000000000000e+02,-4.705493673521493392e+00
1.445000000000000062e+00,5.070000000000000000e+02,-3.532193925351837294e+00
1.445999999999999952e+00,5.060000000000000000e+02,-2.445184824053572736e+00
1.447000000000000064e+00,5.060000000000000000e+02,-1.466988779675751919e+00
1.447999999999999954e+00,5.040000000000000000e+02,-6.158544777836661988e-01
1.449000000000000066e+00,5.040000000000000000e+02,9.422677999586277775e-02
1.449999999999999956e+00,5.030000000000000000e+02,6.534027343905002283e-01
1.451000000000000068e+00,5.040000000000000000e+02,1.055832015963736437e+00
1.451999999999999957e+00,5.070000000000000000e+02,1.299605506720729053e+00
1.453000000000000069e+00,5.090000000000000000e+02,1.386728030462579087e+00
1.453999999999999959e+00,5.110000000000000000e+02,1.323120246562824676e+00
1.455000000000000071e+00,5.110000000000000000e+02,1.118563311337251953e+00
1.455999999999999961e+00,5.100000000000000000e+02,7.864980999461493871e-01
1.457000000000000073e+00,5.070000000000000000e+02,3.436104135193713272e-01
1.457999999999999963e+00,5.050000000000000000e+02,-1.908232069494609218e-01
1.459000000000000075e+00,5.040000000000000000e+02,-7.958020344671361546e-01
1.459999999999999964e+00,5.030000000000000000e+02,-1.449607146267768654e+00
1.461000000000000076e+00,5.010000000000000000e+02,-2.130845148246625964e+00
1.461999999999999966e+00,5.020000000000000000e+02,-2.819419195763364527e+00
1.463000000000000078e+00,5.000000000000000000e+02,-3.497325859255569380e+00
1.463999999999999968e+00,5.000000000000000000e+02,-4.149199366987734727e+00
1.465000000000000080e+00,5.010000000000000000e+02,-4.762558108210441787e+00
1.465999999999999970e+00,5.010000000000000000e+02,-5.327748323780509665e+00
1.467000000000000082e+00,5.030000000000000000e+02,-5.837622100178665008e+00
1.467999999999999972e+00,5.040000000000000000e+02,-6.287024650980489682e+00
1.469000000000000083e+00,5.030000000000000000e+02,-6.672191532627483213e+00
1.469999999999999973e+00,4.990000000000000000e+02,-6.990163442940553473e+00
1.471000000000000085e+00,4.990000000000000000e+02,-7.238313783912034616e+00
1.471999999999999975e+00,5.000000000000000000e+02,-7.414059570644686126e+00
1.473000000000000087e+00,5.000000000000000000e+02,-7.514800761189733613e+00
1.473999999999999977e+00,5.010000000000000000e+02,-7.538112306162718212e+00
1.475000000000000089e+00,5.010000000000000000e+02,-7.482193229203882190e+00
1.475999999999999979e+00,4.990000000000000000e+02,-7.346550510119272737e+00
1.477000000000000091e+00,4.980000000000000000e+02,-7.132859894998807349e+00
1.477999999999999980e+00,4.970000000000000000e+02,-6.845905912079912170e+00
1.479000000000000092e+00,4.970000000000000000e+02,-6.494469244823784848e+00
1.479999999999999982e+00,4.970000000000000000e+02,-6.092011015638905569e+00
1.481000000000000094e+00,4.960000000000000000e+02,-5.657005571443942671e+00
1.481999999999999984e+00,4.960000000000000000e+02,-5.212795979017793790e+00
1.483000000000000096e+00,4.980000000000000000e+02,-4.786887537331980802e+00
1.483999999999999986e+00,5.000000000000000000e+02,-4.409651904083998097e+00
1.485000000000000098e+00,5.020000000000000000e+02,-4.112483360476121064e+00
1.485999999999999988e+00,5.020000000000000000e+02,-3.925520161708963673e+00
1.487000000000000099e+00,5.020000000000000000e+02,-3.875106587918414558e+00
1.487999999999999989e+00,5.050000000000000000e+02,-3.981217639804481845e+00
1.489000000000000101e+00,5.070000000000000000e+02,-4.255096474954396690e+00
1.489999999999999991e+00,5.080000000000000000e+02,-4.697363950647160280e+00
1.491000000000000103e+00,5.110000000000000000e+02,-5.296845217482599288e+00
1.491999999999999993e+00,5.080000000000000000e+02,-6.030312504006900554e+00
1.493000000000000105e+00,5.030000000000000000e+02,-6.863261839314942492e+00
1.493999999999999995e+00,4.990000000000000000e+02,-7.751729761808968000e+00
1.495000000000000107e+00,4.960000000000000000e+02,-8.645031316579126823e+00
1.495999999999999996e+00,4.920000000000000000e+02,-9.489187748125045729e+00
1.497000000000000108e+00,4.900000000000000000e+02,-1.023073294431191194e+01
1.497999999999999998e+00,4.900000000000000000e+02,-1.082055224641797686e+01
1.499000000000000110e+00,4.880000000000000000e+02,-1.121741542591992236e+01
1.500000000000000000e+00,4.890000000000000000e+02,-1.139091091794609767e+01
1.500999999999999890e+00,4.920000000000000000e+02,-1.132356117469197443e+01
1.502000000000000002e+00,4.940000000000000000e+02,-1.101198836703853345e+01
1.502999999999999892e+00,4.960000000000000000e+02,-1.046709355122321838e+01
1.504000000000000004e+00,4.990000000000000000e+02,-9.713297552936092316e+00
1.504999999999999893e+00,5.000000000000000000e+02,-8.786956724518107720e+00
1.506000000000000005e+00,4.980000000000000000e+02,-7.734105579416246101e+00
1.506999999999999895e+00,4.990000000000000000e+02,-6.607692217054818684e+00
1.508000000000000007e+00,4.980000000000000000e+02,-5.464469153635069354e+00
1.508999999999999897e+00,4.990000000000000000e+02,-4.361693732377298183e+00
1.510000000000000009e+00,5.020000000000000000e+02,-3.353789310822268277e+00
1.510999999999999899e+00,5.040000000000000000e+02,-2.489124451963826701e+00
1.512000000000000011e+00,5.040000000000000000e+02,-1.807077869308765905e+00
1.512999999999999901e+00,5.050000000000000000e+02,-1.335563175928517587e+00
1.514000000000000012e+00,5.090000000000000000e+02,-1.089182884407448926e+00
1.514999999999999902e+00,5.120000000000000000e+02,-1.068164009166532535e+00
1.516000000000000014e+00,5.120000000000000000e+02,-1.258197294701144830e+00
1.516999999999999904e+00,5.100000000000000000e+02,-1.631253890091011849e+00
1.518000000000000016e+00,5.080000000000000000e+02,-2.147382946876033927e+00
1.518999999999999906e+00,5.060000000000000000e+02,-2.757406035400280064e+00
1.520000000000000018e+00,5.020000000000000000e+02,-3.406334289879395349e+00
1.520999999999999908e+00,4.990000000000000000e+02,-4.037258497665967560e+00
1.522000000000000020e+00,4.970000000000000000e+02,-4.595412923713961817e+00
1.522999999999999909e+00,4.980000000000000000e+02,-5.032097012654722867e+00
1.524000000000000021e+00,4.970000000000000000e+02,-5.308156079506611391e+00
1.524999999999999911e+00,4.960000000000000000e+02,-5.396766226240105269e+00
1.526000000000000023e+00,4.950000000000000000e+02,-5.285328299419627562e+00
1.526999999999999913e+00,4.940000000000000000e+02,-4.976340896536948222e+00
1.528000000000000025e+00,4.970000000000000000e+02,-4.487190287192397875e+00
1.528999999999999915e+00,4.980000000000000000e+02,-3.848866899227977978e+00
1.530000000000000027e+00,4.980000000000000000e+02,-3.103692695457206163e+00
1.530999999999999917e+00,5.000000000000000000e+02,-2.302215882947115322e+00
1.532000000000000028e+00,5.050000000000000000e+02,-1.499493306026344674e+00
1.532999999999999918e+00,5.090000000000000000e+02,-7.510337975503889041e-01
1.534000000000000030e+00,5.120000000000000000e+02,-1.087139177900198483e-01
1.534999999999999920e+00,5.160000000000000000e+02,3.830080775254227632e-01
1.536000000000000032e+00,5.140000000000000000e+02,6.902738725439042655e-01
1.536999999999999922e+00,5.110000000000000000e+02,7.921535477269374681e-01
1.538000000000000034e+00,5.100000000000000000e+02,6.819594874984594712e-01
1.538999999999999924e+00,5.100000000000000000e+02,3.674840870626842060e-01
1.540000000000000036e+00,5.100000000000000000e+02,-1.298082397987842529e-01
1.540999999999999925e+00,5.070000000000000000e+02,-7.765305399477251402e-01
1.542000000000000037e+00,5.040000000000000000e+02,-1.529903136740716318e+00
1.542999999999999927e+00,5.000000000000000000e+02,-2.340856754392298900e+00
1.544000000000000039e+00,4.980000000000000000e+02,-3.157467476798949235e+00
1.544999999999999929e+00,4.980000000000000000e+02,-3.928466059309516645e+00
1.546000000000000041e+00,4.970000000000000000e+02,-4.606572536870672252e+00
1.546999999999999931e+00,4.960000000000000000e+02,-5.151438279572709611e+00
1.548000000000000043e+00,4.970000000000000000e+02,-5.532023081298114597e+00
1.548999999999999932e+00,4.960000000000000000e+02,-5.728285288592332769e+00
1.550000000000000044e+00,4.970000000000000000e+02,-5.732113042018045945e+00
1.550999999999999934e+00,4.980000000000000000e+02,-5.547472617192791944e+00
1.552000000000000046e+00,4.990000000000000000e+02,-5.189795171286065489e+00
1.552999999999999936e+00,5.000000000000000000e+02,-4.684665454990981637e+00
1.554000000000000048e+00,5.020000000000000000e+02,-4.065914257599643200e+00
1.554999999999999938e+00,5.040000000000000000e+02,-3.373249264863854791e+00
1.556000000000000050e+00,5.050000000000000000e+02,-2.649585248704247498e+00
1.556999999999999940e+00,5.070000000000000000e+02,-1.938252093858089609e+00
1.558000000000000052e+00,5.080000000000000000e+02,-1.280265790210020516e+00
1.558999999999999941e+00,5.100000000000000000e+02,-7.118416291938599594e-01
1.560000000000000053e+00,5.090000000000000000e+02,-2.623097677407947859e-01
1.560999999999999943e+00,5.080000000000000000e+02,4.743905472343632607e-02
1.562000000000000055e+00,5.060000000000000000e+02,2.058937445424980639e-01
1.562999999999999945e+00,5.060000000000000000e+02,2.112147797963199736e-01
1.564000000000000057e+00,5.070000000000000000e+02,7.089050737241966993e-02
1.564999999999999947e+00,5.070000000000000000e+02,-1.991913946019936155e-01
1.566000000000000059e+00,5.040000000000000000e+02,-5.761764973279503987e-01
1.566999999999999948e+00,5.020000000000000000e+02,-1.032072503935914209e+00
1.568000000000000060e+00,5.020000000000000000e+02,-1.535840945986132855e+00
1.568999999999999950e+00,5.020000000000000000e+02,-2.055598887933316021e+00
1.570000000000000062e+00,5.020000000000000000e+02,-2.560771842258118269e+00
1.570999999999999952e+00,5.010000000000000000e+02,-3.024047374371298336e+00
1.572000000000000064e+00,4.990000000000000000e+02,-3.422996530269263982e+00
1.572999999999999954e+00,4.980000000000000000e+02,-3.741253253349174912e+00
1.574000000000000066e+00,4.970000000000000000e+02,-3.969171778034812359e+00
1.574999999999999956e+00,5.000000000000000000e+02,-4.103923367844746650e+00
1.576000000000000068e+00,5.040000000000000000e+02,-4.149048663290611394e+00
1.576999999999999957e+00,5.060000000000000000e+02,-4.113543774852376878e+00
1.578000000000000069e+00,5.050000000000000000e+02,-4.010611556511718412e+00
1.578999999999999959e+00,5.040000000000000000e+02,-3.856237321478587443e+00
1.580000000000000071e+00,5.030000000000000000e+02,-3.667743823338184050e+00
1.580999999999999961e+00,5.040000000000000000e+02,-3.462451336267978519e+00
1.582000000000000073e+00,5.030000000000000000e+02,-3.256529737040763983e+00
1.582999999999999963e+00,5.020000000000000000e+02,-3.064091163283959585e+00
1.584000000000000075e+00,5.000000000000000000e+02,-2.896537503759292420e+00
1.584999999999999964e+00,4.990000000000000000e+02,-2.762148118185906220e+00
1.586000000000000076e+00,5.020000000000000000e+02,-2.665873950847039264e+00
