beat_index,peak_time_s,rr_prev_s,rr_next_s,rr_baseline_s,prematurity_index,aa_ratio,morph_index,qrs_width_ms,width_index,pause_index,pvc_score,morphology_score,is_pvc_candidate
0,0.033,,0.945,0.9420000000000002,,0.018043297721415476,0.9686126675321006,23.9999999999867,1.090909090859504,1.0031847133757958,0.0,,0
1,0.978,0.945,0.956,0.9420000000000002,1.0031847133757958,0.017571251106942593,0.9432719378327069,22.999999999987253,1.0454545454070248,1.0148619957537153,0.0,0.996993886130128,0
2,1.934,0.956,0.9549999999999998,0.9420000000000002,1.0148619957537153,0.017684070620474668,0.9493283922369523,21.999999999987807,0.9999999999545455,1.0138004246284498,0.0,0.9979303954192128,0
3,2.889,0.9549999999999998,0.9280000000000004,0.9420000000000002,1.0138004246284498,0.019175234899208898,1.0293780944617867,20.99999999998836,0.9545454545020661,0.9851380042462847,0.0,0.9974544063765337,0
4,3.817,0.9280000000000004,0.96,0.9420000000000002,0.9851380042462847,0.01885058425862309,1.011949976395509,19.999999999988916,0.9090909090495868,1.0191082802547768,0.0,0.9977454912277653,0
5,4.777,0.96,0.9639999999999995,0.9549999999999998,1.005235602094241,0.01799891762751359,0.9662302249318985,21.999999999987807,0.9999999999545455,1.009424083769633,0.0,0.9955695701825602,0
6,5.741,0.9639999999999995,0.9320000000000004,0.9554999999999999,1.0088958660387228,0.01790332573953238,0.9610985957230088,20.99999999998836,0.9545454545020661,0.9754055468341187,0.0,0.9980944580857376,0
7,6.673,0.9320000000000004,0.9639999999999995,0.9549999999999998,0.9759162303664927,0.019163465736662874,1.0287462942163808,21.999999999987807,0.9999999999545455,1.009424083769633,0.0,0.9977254645135394,0
8,7.637,0.9639999999999995,0.9630000000000001,0.9554999999999999,1.0088958660387228,0.01748282930716736,0.9385252182102387,21.999999999987807,0.9999999999545455,1.0078492935635794,0.0,0.9965205334107637,0
9,8.6,0.9630000000000001,0.9540000000000006,0.956,1.0073221757322177,0.017705933712151643,0.9505020617000793,20.99999999998836,0.9545454545020661,0.9979079497907957,0.0,0.998381069958526,0
10,9.554,0.9540000000000006,0.9350000000000005,0.9554999999999999,0.9984301412872849,0.018926847674459447,1.0160440013231524,19.999999999988916,0.9090909090495868,0.9785452642595506,0.0,0.9943333684702615,0
11,10.489,0.9350000000000005,0.956999999999999,0.9554999999999999,0.9785452642595506,0.019461765737462257,1.0447598391880508,20.99999999998836,0.9545454545020661,1.0015698587127149,0.0,0.9966681393296648,0
12,11.446,0.956999999999999,0.9260000000000002,0.9559999999999994,1.001046025104602,0.018325072235813113,0.9837390800231676,21.999999999987807,0.9999999999545455,0.9686192468619255,0.0,0.9980927894788134,0
13,12.372,0.9260000000000002,0.8800000000000008,0.9554999999999998,0.9691261119832553,0.01858029495812506,0.997440121024113,21.999999999987807,0.9999999999545455,0.9209837781266362,0.0,0.9961263920655989,0
14,13.252,0.8800000000000008,0.9179999999999993,0.9554999999999998,0.9209837781266362,0.01911521552143228,1.0261560931120655,20.99999999998836,0.9545454545020661,0.960753532182103,0.0,0.9925052924074453,0
15,14.17,0.9179999999999993,0.44700000000000095,0.9445000000000006,0.9719428268925344,0.01755370094364452,0.9423297979450745,21.999999999987807,0.9999999999545455,0.4732662784542093,0.0,0.993945040966361,0
16,14.617,0.44700000000000095,1.3059999999999992,0.9335000000000004,0.4788430637386189,0.0393508964865573,2.1124617796659453,56.99999999996841,2.5909090907913224,1.3990358864488468,1.0,0.6632430277364425,1
17,15.923,1.3059999999999992,0.8879999999999999,0.9445000000000006,1.3827421916357845,0.01919194683688502,1.030275236147416,21.999999999987807,0.9999999999545455,0.9401799894123869,0.0,0.9971366848823815,0
18,16.811,0.8879999999999999,0.8999999999999986,0.9305000000000003,0.9543256313809775,0.018956483250307226,1.0176349186055125,19.999999999988916,0.9090909090495868,0.9672219236969353,0.0,0.9957106069322743,0
19,17.711,0.8999999999999986,0.4480000000000004,0.9219999999999997,0.9761388286334044,0.017562371433048896,0.9427952530963696,21.999999999987807,0.9999999999545455,0.4859002169197403,0.0,0.9968579849403844,0
20,18.159,0.4480000000000004,1.2759999999999998,0.9089999999999989,0.4928492849284939,0.036492160050875716,1.9589971321558493,56.99999999996841,2.5909090907913224,1.4037403740374053,1.0,0.6624952508478381,1
21,19.435,1.2759999999999998,0.8640000000000008,0.9089999999999989,1.4037403740374053,0.018329252809699867,0.9839635044541549,22.999999999987253,1.0454545454070248,0.9504950495049524,0.0,0.9919935162397567,0
22,20.299,0.8640000000000008,0.902000000000001,0.8939999999999992,0.9664429530201359,0.02004007726066954,1.0758051545071852,19.999999999988916,0.9090909090495868,1.0089485458612995,0.0,0.9944020201809112,0
23,21.201,0.902000000000001,0.9319999999999986,0.8939999999999992,1.0089485458612995,0.018603235602720845,0.9986716364211269,22.999999999987253,1.0454545454070248,1.0425055928411626,0.0,0.9922834030673127,0
24,22.133,0.9319999999999986,0.9849999999999994,0.9009999999999998,1.0344062153163138,0.017682245611279825,0.9492304208432647,19.999999999988916,0.9090909090495868,1.0932297447280794,0.0,0.9963423853429916,0
25,23.118,0.9849999999999994,0.9590000000000032,0.9009999999999998,1.0932297447280794,0.018629299317724553,1.0000708066230117,20.99999999998836,0.9545454545020661,1.0643729189789162,0.0,0.9656755557908403,0
26,24.077,0.9590000000000032,0.4399999999999977,0.9169999999999998,1.0458015267175609,0.01797600561429396,0.9650002465440312,20.99999999998836,0.9545454545020661,0.4798255179934545,0.0,0.9624268820732865,0
27,24.517,0.4399999999999977,1.3560000000000016,0.9009999999999998,0.4883462819089876,0.0359194536990758,1.9282527174876212,56.99999999996841,2.5909090907913224,1.504994450610435,1.0,0.6542444961017604,1
28,25.873,1.3560000000000016,0.9819999999999993,0.9169999999999998,1.4787350054525648,0.018096551171379732,0.9714714557104913,22.999999999987253,1.0454545454070248,1.0708833151581238,0.0,0.9951651007999527,0
29,26.855,0.9819999999999993,0.9179999999999993,0.9455000000000009,1.0386039132733986,0.02048335027078495,1.0996012398681925,35.99999999998005,1.6363636362892562,0.9709148598625049,0.0,0.9602996952368592,0
30,27.773,0.9179999999999993,0.9480000000000004,0.9455000000000009,0.9709148598625049,0.018427198880377037,0.9892215125110911,23.9999999999867,1.090909090859504,1.0026441036488625,0.0,0.9959577341556678,0
31,28.721,0.9480000000000004,0.9430000000000014,0.9399999999999995,1.0085106382978732,0.018231296856348365,0.9787049658687258,21.999999999987807,0.9999999999545455,1.0031914893617042,0.0,0.9988731963707773,0
32,29.664,0.9430000000000014,0.916999999999998,0.9455000000000009,0.9973558963511375,0.01938187831748602,1.0404712679878096,20.99999999998836,0.9545454545020661,0.9698572184029584,0.0,0.9970516748456382,0
33,30.581,0.916999999999998,0.940999999999999,0.9455000000000009,0.9698572184029584,0.018422565879842513,0.9889728006028962,23.9999999999867,1.090909090859504,0.9952406134320445,0.0,0.9961829251674514,0
34,31.522,0.940999999999999,0.9450000000000003,0.9455000000000009,0.9952406134320445,0.01810678722630756,0.9720209546225932,22.999999999987253,1.0454545454070248,0.9994711792702268,0.0,0.9950623870497599,0
35,32.467,0.9450000000000003,0.9329999999999998,0.9440000000000008,1.0010593220338977,0.017959299421154602,0.9641034132405595,20.99999999998836,0.9545454545020661,0.9883474576271176,0.0,0.9974492763294391,0
36,33.4,0.9329999999999998,0.919000000000004,0.9420000000000002,0.9904458598726111,0.018348138394417235,0.9849773333491513,19.999999999988916,0.9090909090495868,0.9755838641189001,0.0,0.9963817669194676,0
37,34.319,0.919000000000004,0.9439999999999955,0.9420000000000002,0.9755838641189001,0.018573739692103814,0.9970882167433515,20.99999999998836,0.9545454545020661,1.002123142250526,0.0,0.9985754040833912,0
38,35.263,0.9439999999999955,0.42200000000000415,0.9420000000000002,1.002123142250526,0.01767156394050965,0.9486570000762772,21.999999999987807,0.9999999999545455,0.4479830148620001,0.0,0.9962229735432091,0
39,35.685,0.42200000000000415,1.2989999999999995,0.9369999999999994,0.45037353255069845,0.03755463190435976,2.016033473963782,57.999999999967855,2.6363636362438014,1.386339381003202,1.0,0.6552774398285107,1
40,36.984,1.2989999999999995,0.8919999999999959,0.9420000000000002,1.3789808917197444,0.021397575692031063,1.1486793151552739,20.99999999998836,0.9545454545020661,0.9469214437367258,0.0,0.9920338782111354,0
41,37.876,0.8919999999999959,0.8950000000000031,0.9369999999999994,0.9519743863393773,0.018627979333343623,0.999999946317315,21.999999999987807,0.9999999999545455,0.9551760939167596,0.0,0.9968930874170772,0
42,38.771,0.8950000000000031,0.4540000000000006,0.9260000000000019,0.9665226781857466,0.017584036115493067,0.9439582714191553,21.999999999987807,0.9999999999545455,0.49028077753779664,0.0,0.997876800599865,0
43,39.225,0.4540000000000006,1.2729999999999961,0.9260000000000019,0.49028077753779664,0.03507277073424892,1.8828005026110928,59.99999999996675,2.7272727271487605,1.3747300215982652,1.0,0.6518075737129632,1
44,40.498,1.2729999999999961,0.892000000000003,0.9260000000000019,1.3747300215982652,0.020141649347434776,1.0812578168434999,21.999999999987807,0.9999999999545455,0.963282937365012,0.0,0.9966917422818772,0
45,41.39,0.892000000000003,0.9009999999999962,0.9070000000000036,0.9834619625137812,0.01830845447642312,0.9828469940808044,20.99999999998836,0.9545454545020661,0.9933847850055046,0.0,0.9984202133386217,0
46,42.291,0.9009999999999962,0.9220000000000041,0.8979999999999997,1.0033407572383035,0.018332070843387137,0.9841147840688442,21.999999999987807,0.9999999999545455,1.0267260579064639,0.0,0.9970364496872477,0
47,43.213,0.9220000000000041,0.44599999999999795,0.8979999999999997,1.0267260579064639,0.019606671630655253,1.0525387766036984,21.999999999987807,0.9999999999545455,0.49665924276169054,0.0,0.9983388127105615,0
48,43.659,0.44599999999999795,1.3389999999999986,0.8935000000000031,0.4991606043648533,0.03456536195934368,1.8555614371930884,60.99999999996619,2.7727272726012395,1.4986010072747555,1.0,0.6675918988699627,1
49,44.998,1.3389999999999986,0.9590000000000032,0.8979999999999997,1.4910913140311794,0.017691299096449967,0.949716436235601,22.999999999987253,1.0454545454070248,1.0679287305122533,0.0,0.9970999510885508,0
50,45.957,0.9590000000000032,0.9489999999999981,0.8979999999999997,1.0679287305122533,0.01890104401855568,1.0146587917920056,20.99999999998836,0.9545454545020661,1.0567928730512233,0.0,0.9966735095081036,0
51,46.906,0.9489999999999981,0.9359999999999999,0.9115000000000002,1.0411409764125046,0.01885666591666079,1.0122764561280875,21.999999999987807,0.9999999999545455,1.0268787712561709,0.0,0.9975311765009445,0
52,47.842,0.9359999999999999,0.9780000000000015,0.929000000000002,1.0075349838536038,0.01893529097977042,1.0164972606223295,22.999999999987253,1.0454545454070248,1.0527448869752416,0.0,0.9973754443750049,0
53,48.82,0.9780000000000015,0.9939999999999998,0.942499999999999,1.0376657824933715,0.017899133597705626,0.9608735502939425,21.999999999987807,0.9999999999545455,1.0546419098143245,0.0,0.9972721509567171,0
54,49.814,0.9939999999999998,0.9739999999999966,0.942499999999999,1.0546419098143245,0.018064445039226888,0.9697479123322875,21.999999999987807,0.9999999999545455,1.0334217506631276,0.0,0.9971654737517943,0
55,50.788,0.9739999999999966,0.9969999999999999,0.9540000000000006,1.020964360586998,0.019516704710709803,1.0477091107818803,21.999999999987807,0.9999999999545455,1.0450733752620538,0.0,0.997739330511383,0
56,51.785,0.9969999999999999,0.49100000000000676,0.9664999999999999,1.0315571650284532,0.017399207700030332,0.9340361858169982,22.999999999987253,1.0454545454070248,0.5080186239006795,0.0,0.9971175232004659,0
57,52.276,0.49100000000000676,1.3159999999999954,0.9664999999999999,0.5080186239006795,0.040641366988523116,2.1817377010955976,75.99999999995788,3.4545454543884295,1.3616140713916145,1.0,0.6479722456217294,1
58,53.592,1.3159999999999954,0.9250000000000043,0.9759999999999991,1.3483606557377015,0.01945829187979457,1.04457335318122,21.999999999987807,0.9999999999545455,0.9477459016393495,0.0,0.9983332167577936,0
59,54.517,0.9250000000000043,0.9450000000000003,0.9664999999999999,0.9570615623383387,0.019272897699991128,1.0346208958301895,20.99999999998836,0.9545454545020661,0.9777547853078121,0.0,0.9958403518097845,0
60,55.462,0.9450000000000003,0.9439999999999955,0.9614999999999974,0.982839313572546,0.018685303750965554,1.0030772749700259,21.999999999987807,0.9999999999545455,0.9817992719708769,0.0,0.9968629162614251,0
61,56.406,0.9439999999999955,0.9179999999999993,0.9594999999999985,0.9838457529963491,0.018652478943757145,1.0013151511852132,20.99999999998836,0.9545454545020661,0.9567483064095891,0.0,0.9974577596852179,0
62,57.324,0.9179999999999993,0.9299999999999997,0.9594999999999985,0.9567483064095891,0.019341301021640247,1.0382929697976864,36.999999999979494,1.6818181817417355,0.9692548202188652,0.0,0.9943239264058101,0
63,58.254,0.9299999999999997,0.9500000000000028,0.9444999999999979,0.9846479618845969,0.01818501444570702,0.976220401798272,20.99999999998836,0.9545454545020661,1.0058231868713658,0.0,0.9981314663599719,0
64,59.204,0.9500000000000028,,0.9444999999999979,1.0058231868713658,0.018736644528079004,1.0058333857343018,21.999999999987807,0.9999999999545455,,0.0,0.995900881854245,0
