beat_index,peak_time_s,rr_prev_s,rr_next_s,rr_baseline_s,prematurity_index,aa_ratio,morph_index,qrs_width_ms,width_index,pause_index,pvc_score,morphology_score,is_pvc_candidate
0,0.21388888888888888,,0.8138888888888888,0.7972222222222172,,0.01824840912990471,0.7584243088013087,33.333333333333336,0.923076923051361,1.020905923344954,0.0,0.993550944631505,0
1,1.0277777777777777,0.8138888888888888,0.8138888888888889,0.7972222222222172,1.020905923344954,0.026791611428853012,1.113489358713605,41.666666666666664,1.153846153814201,1.0209059233449542,0.0,0.9963468004364829,0
2,1.8416666666666666,0.8138888888888889,0.788888888888889,0.7972222222222172,1.0209059233449542,0.01801999161636624,0.7489310212719518,33.333333333333336,0.923076923051361,0.9895470383275325,0.0,0.9925316149257821,0
3,2.6305555555555555,0.788888888888889,0.7888888888888888,0.7972222222222172,0.9895470383275325,0.018767975046870913,0.7800180498582241,33.333333333333336,0.923076923051361,0.9895470383275322,0.0,0.989540780647963,0
4,3.4194444444444443,0.7888888888888888,0.7888888888888888,0.7972222222222172,0.9895470383275322,0.023194399783718157,0.9639852163989446,36.111111111111114,0.9999999999723078,0.9895470383275322,0.0,0.9958943046854158,0
5,4.208333333333333,0.7888888888888888,0.8166666666666673,0.788888888888889,0.9999999999999997,0.024240755089552916,1.0074729140902368,36.111111111111114,0.9999999999723078,1.0352112676056344,0.0,0.9993051478051256,0
6,5.025,0.8166666666666673,0.6527777777777777,0.8013888888888889,1.019064124783363,0.023989669302120573,0.9970375077253532,36.111111111111114,0.9999999999723078,0.8145580589254764,0.0,0.997541401293174,0
7,5.677777777777778,0.6527777777777777,0.9972222222222218,0.788888888888889,0.8274647887323942,0.023687479061967005,0.9844781431043907,36.111111111111114,0.9999999999723078,1.2640845070422528,0.0,0.9965899995382532,0
8,6.675,0.9972222222222218,0.8416666666666668,0.8013888888888889,1.2443674176776425,0.020762391128270517,0.8629082145421637,36.111111111111114,0.9999999999723078,1.050259965337955,0.0,0.9932565832780418,0
9,7.516666666666667,0.8416666666666668,0.8111111111111109,0.8138888888888888,1.0341296928327648,0.024501152766211662,1.0182953329941253,36.111111111111114,0.9999999999723078,0.9965870307167234,0.0,0.9992043610065413,0
10,8.327777777777778,0.8111111111111109,0.7916666666666661,0.8124999999999998,0.9982905982905983,0.01817526571459311,0.7553843865918621,33.333333333333336,0.923076923051361,0.9743589743589739,0.0,0.9921474092760927,0
11,9.119444444444444,0.7916666666666661,0.7694444444444457,0.8013888888888885,0.9878682842287693,0.01750597124227469,0.7275677591840084,33.333333333333336,0.923076923051361,0.9601386481802447,0.0,0.9922083162224254,0
12,9.88888888888889,0.7694444444444457,0.8416666666666668,0.7902777777777775,0.9736379613356786,0.01794869075075201,0.7459676774902855,33.333333333333336,0.923076923051361,1.0650263620386649,0.0,0.9932389663709915,0
13,10.730555555555556,0.8416666666666668,0.8527777777777779,0.8013888888888885,1.0502599653379556,0.019550919425029404,0.8125580945606208,33.333333333333336,0.923076923051361,1.064124783362219,0.0,0.9936364317148001,0
14,11.583333333333334,0.8527777777777779,0.8222222222222211,0.8138888888888891,1.0477815699658701,0.025024646187840015,1.040052305540838,36.111111111111114,0.9999999999723078,1.0102389078498277,0.0,0.9945524658973639,0
15,12.405555555555555,0.8222222222222211,0.8305555555555557,0.8194444444444442,1.0033898305084734,0.019336752299294782,0.803657069098787,33.333333333333336,0.923076923051361,1.0135593220338988,0.0,0.9944401759265954,0
16,13.23611111111111,0.8305555555555557,0.8194444444444446,0.8263888888888884,1.0050420168067236,0.019857141781670216,0.8252850384559229,36.111111111111114,0.9999999999723078,0.991596638655463,0.0,0.9945766097227873,0
17,14.055555555555555,0.8194444444444446,0.7944444444444443,0.8263888888888884,0.991596638655463,0.02411958423842517,1.0024369178913777,36.111111111111114,0.9999999999723078,0.9613445378151264,0.0,0.9960826023262023,0
18,14.85,0.7944444444444443,0.8000000000000007,0.8208333333333329,0.9678510998307956,0.023110920527429607,0.9605157250696355,36.111111111111114,0.9999999999723078,0.974619289340103,0.0,0.9936931971186396,0
19,15.65,0.8000000000000007,0.7888888888888896,0.8152777777777778,0.9812606473594557,0.023076338943482745,0.9590784757337921,41.666666666666664,1.153846153814201,0.9676320272572412,0.0,0.9886534496203615,0
20,16.43888888888889,0.7888888888888896,0.8222222222222229,0.8097222222222227,0.9742710120068614,0.02349708194154378,0.9765650256689589,36.111111111111114,0.9999999999723078,1.0154373927958835,0.0,0.9941670894274607,0
21,17.261111111111113,0.8222222222222229,0.8694444444444436,0.8208333333333329,1.0016920473773279,0.023927639878201068,0.9944594954380026,36.111111111111114,0.9999999999723078,1.0592216582064293,0.0,0.9980398147891709,0
22,18.130555555555556,0.8694444444444436,0.8222222222222229,0.822222222222222,1.0574324324324318,0.019040308744793913,0.7913365431657903,33.333333333333336,0.923076923051361,1.000000000000001,0.0,0.9946625846773502,0
23,18.95277777777778,0.8222222222222229,0.7861111111111079,0.822222222222222,1.000000000000001,0.024737510453725946,1.0281186230413184,36.111111111111114,0.9999999999723078,0.9560810810810775,0.0,0.9953432152359583,0
24,19.738888888888887,0.7861111111111079,0.7916666666666679,0.8208333333333329,0.9576988155668325,0.01835324614175901,0.7627814523575706,33.333333333333336,0.923076923051361,0.9644670050761441,0.0,0.9945281599839214,0
25,20.530555555555555,0.7916666666666679,0.7750000000000021,0.8097222222222227,0.9777015437392805,0.027849120130436805,1.1574406040161727,41.666666666666664,1.153846153814201,0.9571183533447706,0.0,0.987744840815838,0
26,21.305555555555557,0.7750000000000021,0.7861111111111079,0.7972222222222225,0.972125435540072,0.018320212311530724,0.761408529398665,33.333333333333336,0.923076923051361,0.9860627177700304,0.0,0.9930533197947886,0
27,22.091666666666665,0.7861111111111079,0.8111111111111136,0.7930555555555561,0.9912434325744262,0.024018721264447637,0.998244939797397,36.111111111111114,0.9999999999723078,1.0227670753064824,0.0,0.9993391670667198,0
28,22.90277777777778,0.8111111111111136,0.8166666666666664,0.7958333333333343,1.0191972076788849,0.026221439980619116,1.0897923951346604,38.888888888888886,1.0769230768932543,1.0261780104712026,0.0,0.9937162560369353,0
29,23.719444444444445,0.8166666666666664,0.8277777777777757,0.8013888888888907,1.0190641247833596,0.023669533258848543,0.9837322954401305,36.111111111111114,0.9999999999723078,1.0329289428076207,0.0,0.9994820186879312,0
30,24.54722222222222,0.8277777777777757,0.844444444444445,0.81388888888889,1.0170648464163783,0.023580430635106366,0.9800290906652387,36.111111111111114,0.9999999999723078,1.0375426621160402,0.0,0.9958207185502419,0
31,25.391666666666666,0.844444444444445,0.8083333333333336,0.81388888888889,1.0375426621160402,0.02474829937107104,1.0285670225221673,36.111111111111114,0.9999999999723078,0.993174061433446,0.0,0.9950849070320833,0
32,26.2,0.8083333333333336,0.7722222222222221,0.8097222222222236,0.9982847341337894,0.021760911871252366,0.9044078542602773,36.111111111111114,0.9999999999723078,0.9536878216123482,0.0,0.9924059765968887,0
33,26.97222222222222,0.7722222222222221,0.8000000000000007,0.8000000000000007,0.9652777777777768,0.023277960137315198,0.9674580782231665,36.111111111111114,0.9999999999723078,1.0,0.0,0.9959923120607065,0
34,27.772222222222222,0.8000000000000007,0.7888888888888879,0.8041666666666671,0.9948186528497412,0.02346958475806469,0.9754222119460937,36.111111111111114,0.9999999999723078,0.9810017271157149,0.0,0.9983885771870801,0
35,28.56111111111111,0.7888888888888879,0.8583333333333343,0.8041666666666671,0.9810017271157149,0.02445512934507546,1.016382548097896,36.111111111111114,0.9999999999723078,1.0673575129533683,0.0,0.9982981732473566,0
36,29.419444444444444,0.8583333333333343,0.844444444444445,0.8097222222222236,1.0600343053173236,0.025756714212818943,1.0704778720594181,38.888888888888886,1.0769230768932543,1.0428816466552304,0.0,0.9972969206565572,0
37,30.26388888888889,0.844444444444445,0.8222222222222229,0.81388888888889,1.0375426621160402,0.020351420231008242,0.8458278040540621,36.111111111111114,0.9999999999723078,1.0102389078498288,0.0,0.9917156527202253,0
38,31.086111111111112,0.8222222222222229,0.8027777777777771,0.8194444444444446,1.0033898305084752,0.023174992952844344,0.9631786467858503,36.111111111111114,0.9999999999723078,0.9796610169491515,0.0,0.994629956311244,0
39,31.88888888888889,0.8027777777777771,0.8361111111111121,0.8152777777777782,0.9846678023850072,0.02343036658136207,0.9737922606256036,36.111111111111114,0.9999999999723078,1.0255536626916533,0.0,0.9979615900929009,0
40,32.725,0.8361111111111121,0.7916666666666643,0.8152777777777782,1.0255536626916533,0.019979271264172375,0.8303608764476944,33.333333333333336,0.923076923051361,0.9710391822827904,0.0,0.9942272846157737,0
41,33.516666666666666,0.7916666666666643,0.7888888888888914,0.8055555555555554,0.9827586206896525,0.021961232923921326,0.9127334214276547,33.333333333333336,0.923076923051361,0.9793103448275896,0.0,0.9935706811645686,0
42,34.30555555555556,0.7888888888888914,0.8194444444444429,0.8013888888888889,0.9844020797227068,0.026621900922390692,1.1064360001088225,38.888888888888886,1.0769230768932543,1.022530329289426,0.0,0.993487911046356,0
43,35.125,0.8194444444444429,0.8472222222222214,0.81111111111111,1.0102739726027392,0.019196374970283526,0.7978228301813646,33.333333333333336,0.923076923051361,1.044520547945206,0.0,0.9949346236705767,0
44,35.97222222222222,0.8472222222222214,0.87777777777778,0.8208333333333329,1.0321489001692044,0.02085260936419273,0.8666577854079576,36.111111111111114,0.9999999999723078,1.0693739424703925,0.0,0.993156275548832,0
45,36.85,0.87777777777778,0.8222222222222229,0.8291666666666675,1.058626465661643,0.02533313757622219,1.0528735529350282,36.111111111111114,0.9999999999723078,0.9916247906197653,0.0,0.9886451371582938,0
46,37.672222222222224,0.8222222222222229,0.7777777777777786,0.8222222222222229,1.0,0.023655715180062258,0.983158000619259,36.111111111111114,0.9999999999723078,0.9459459459459462,0.0,0.9963863927444306,0
47,38.45,0.7777777777777786,0.7999999999999972,0.8208333333333329,0.947546531302878,0.019132591859976185,0.7951719327248422,33.333333333333336,0.923076923051361,0.9746192893400987,0.0,0.9911572019721044,0
48,39.25,0.7999999999999972,0.81388888888889,0.81111111111111,0.9863013698630115,0.023885415443267208,0.9927046006605308,36.111111111111114,0.9999999999723078,1.0034246575342494,0.0,0.9975023374569183,0
49,40.06388888888889,0.81388888888889,0.7999999999999972,0.8166666666666664,0.996598639455784,0.018362348215303317,0.763159744721982,33.333333333333336,0.923076923051361,0.9795918367346906,0.0,0.9916935772506001,0
50,40.86388888888889,0.7999999999999972,0.8333333333333357,0.8069444444444436,0.9913941480206516,0.018785772695418135,0.7807577400526748,33.333333333333336,0.923076923051361,1.0327022375215187,0.0,0.9932297841396481,0
51,41.69722222222222,0.8333333333333357,0.8305555555555557,0.8166666666666664,1.0204081632653093,0.024258462009201884,1.0082088334901236,36.111111111111114,0.9999999999723078,1.017006802721089,0.0,0.9987640715063218,0
52,42.52777777777778,0.8305555555555557,0.8249999999999957,0.8208333333333329,1.0118443316412868,0.024199844854825646,1.0057726389443291,36.111111111111114,0.9999999999723078,1.0050761421319752,0.0,0.998616649603079,0
53,43.352777777777774,0.8249999999999957,0.8111111111111171,0.8236111111111093,1.0016863406408065,0.02333347978184456,0.9697655367926958,36.111111111111114,0.9999999999723078,0.9848229342327245,0.0,0.9983029045360109,0
54,44.16388888888889,0.8111111111111171,0.7888888888888843,0.8180555555555564,0.9915110356536565,0.023508383492949574,0.9770347307951595,36.111111111111114,0.9999999999723078,0.9643463497453244,0.0,0.9964665886767443,0
55,44.952777777777776,0.7888888888888843,0.7833333333333385,0.8125000000000036,0.970940170940161,0.02258206045438557,0.9385357084832182,38.888888888888886,1.0769230768932543,0.9641025641025663,0.0,0.9931592908205189,0
56,45.736111111111114,0.7833333333333385,0.80555555555555,0.8055555555555571,0.9724137931034529,0.020980490852488272,0.8719726831986965,36.111111111111114,0.9999999999723078,0.9999999999999912,0.0,0.9926678296270498,0
57,46.541666666666664,0.80555555555555,0.8416666666666686,0.8083333333333336,0.9965635738831544,0.02421056264298742,1.0062180822167048,36.111111111111114,0.9999999999723078,1.041237113402064,0.0,0.9966192479173557,0
58,47.38333333333333,0.8416666666666686,0.8333333333333357,0.8125000000000036,1.0358974358974338,0.02397513607409496,0.9964334905016318,36.111111111111114,0.9999999999723078,1.025641025641024,0.0,0.9994488801520364,0
59,48.21666666666667,0.8333333333333357,0.8305555555555557,0.8180555555555564,1.0186757215619713,0.023884207258854085,0.992654387164006,36.111111111111114,0.9999999999723078,1.0152801358234287,0.0,0.9986799885514506,0
60,49.047222222222224,0.8305555555555557,0.80555555555555,0.8277777777777757,1.0033557046979893,0.02720804833839126,1.1307969427899793,44.44444444444444,1.2307692307351479,0.9731543624161031,0.0,0.9909508066843845,0
61,49.852777777777774,0.80555555555555,0.7777777777777786,0.8180555555555564,0.9847198641765627,0.018064152245114255,0.750766386431513,33.333333333333336,0.923076923051361,0.9507640067911715,0.0,0.9937555226203801,0
62,50.63055555555555,0.7777777777777786,0.7972222222222243,0.8083333333333336,0.9621993127147773,0.025535923348892826,1.0613015566244253,38.888888888888886,1.0769230768932543,0.9862542955326483,0.0,0.9961728240452605,0
63,51.42777777777778,0.7972222222222243,0.7833333333333314,0.80555555555555,0.9896551724138024,0.019722937805943527,0.8197073710108137,36.111111111111114,0.9999999999723078,0.9724137931034526,0.0,0.9948653637348392,0
64,52.21111111111111,0.7833333333333314,0.7916666666666714,0.8013888888888872,0.9774696707105717,0.020949030993429634,0.8706651762433404,36.111111111111114,0.9999999999723078,0.9878682842287776,0.0,0.9889645274973922,0
65,53.00277777777778,0.7916666666666714,0.8527777777777743,0.8013888888888872,0.9878682842287776,0.019350863992718695,0.8042435668726399,33.333333333333336,0.923076923051361,1.0641247833622163,0.0,0.9934412337273475,0
66,53.855555555555554,0.8527777777777743,0.8472222222222214,0.80555555555555,1.0586206896551753,0.024938517485742905,1.0364727002782121,36.111111111111114,0.9999999999723078,1.0517241379310407,0.0,0.9976712314573584,0
67,54.702777777777776,0.8472222222222214,0.8222222222222229,0.8180555555555529,1.0356536502546714,0.026384384368304502,1.096564546269787,38.888888888888886,1.0769230768932543,1.005093378607814,0.0,0.9954835373557895,0
68,55.525,0.8222222222222229,0.7861111111111114,0.8138888888888864,1.010238907849833,0.02377156719551082,0.9879729400539423,36.111111111111114,0.9999999999723078,0.9658703071672388,0.0,0.9943450869006163,0
69,56.31111111111111,0.7861111111111114,0.7833333333333314,0.8013888888888872,0.9809358752166403,0.018119953995295177,0.7530855696276808,33.333333333333336,0.923076923051361,0.9774696707105717,0.0,0.991784794732476,0
70,57.09444444444444,0.7833333333333314,0.7888888888888914,0.7944444444444478,0.9860139860139794,0.024108084193094348,1.0019589631354795,36.111111111111114,0.9999999999723078,0.9930069930069919,0.0,0.9966780658204617,0
71,57.88333333333333,0.7888888888888914,0.81388888888889,0.7902777777777814,0.9982425307557103,0.01888817455436855,0.7850136759285954,33.333333333333336,0.923076923051361,1.0298769771528964,0.0,0.9937496345348685,0
72,58.69722222222222,0.81388888888889,0.81111111111111,0.7944444444444478,1.0244755244755215,0.02373771050507857,0.9865658181039364,36.111111111111114,0.9999999999723078,1.0209790209790153,0.0,0.9943752008301756,0
73,59.50833333333333,0.81111111111111,0.8500000000000014,0.8013888888888907,1.0121317157712268,0.0250283042491339,1.0402043386626634,36.111111111111114,0.9999999999723078,1.0606585788561518,0.0,0.9947670738216132,0
74,60.358333333333334,0.8500000000000014,0.8361111111111086,0.8125,1.046153846153848,0.01838356266023085,0.7640414407984032,33.333333333333336,0.923076923051361,1.0290598290598258,0.0,0.9938887368744467,0
75,61.19444444444444,0.8361111111111086,0.8083333333333371,0.8180555555555564,1.0220713073005052,0.019015562898488426,0.7903080780954195,33.333333333333336,0.923076923051361,0.9881154499151139,0.0,0.9923158267370826,0
76,62.00277777777778,0.8083333333333371,0.7833333333333314,0.8125,0.9948717948717996,0.017685140340022026,0.735014227429555,33.333333333333336,0.923076923051361,0.9641025641025618,0.0,0.9931839376194656,0
77,62.78611111111111,0.7833333333333314,0.7722222222222186,0.8097222222222236,0.9674099485420201,0.017903184473138024,0.7440763856576759,33.333333333333336,0.923076923051361,0.9536878216123439,0.0,0.9928916396609129,0
78,63.55833333333333,0.7722222222222186,0.7861111111111185,0.7986111111111143,0.966956521739122,0.01793356660427578,0.7453391010343441,33.333333333333336,0.923076923051361,0.9843478260869619,0.0,0.9902571825857851,0
79,64.34444444444445,0.7861111111111185,0.8055555555555571,0.7986111111111143,0.9843478260869619,0.0175696803287699,0.7302155801280441,33.333333333333336,0.923076923051361,1.008695652173911,0.0,0.9923930752132868,0
80,65.15,0.8055555555555571,0.8388888888888886,0.8069444444444471,0.9982788296041294,0.01947050379709647,0.8092159310548764,33.333333333333336,0.923076923051361,1.0395869191049876,0.0,0.9947402081842764,0
81,65.9888888888889,0.8388888888888886,0.8249999999999886,0.8097222222222236,1.0360205831903924,0.024162892409211184,1.0042368539438855,36.111111111111114,0.9999999999723078,1.0188679245282861,0.0,0.9981265951262435,0
82,66.81388888888888,0.8249999999999886,0.8111111111111171,0.8097222222222236,1.0188679245282861,0.02523703358046517,1.0488793633025952,38.888888888888886,1.0769230768932543,1.001715265866215,0.0,0.9988894082028534,0
83,67.625,0.8111111111111171,0.7777777777777715,0.8097222222222271,1.0017152658662105,0.022715586600369438,0.9440852045655239,36.111111111111114,0.9999999999723078,0.9605488850771734,0.0,0.9931504812393981,0
84,68.40277777777777,0.7777777777777715,0.8000000000000114,0.8069444444444471,0.963855421686736,0.023310304833321253,0.9688023599924513,36.111111111111114,0.9999999999723078,0.9913941480206648,0.0,0.995049094739564,0
85,69.20277777777778,0.8000000000000114,0.7888888888888772,0.8027777777777843,0.9965397923875494,0.02678424092946986,1.1131830325094743,41.666666666666664,1.153846153814201,0.9826989619376938,0.0,0.9935010772002733,0
86,69.99166666666666,0.7888888888888772,0.8000000000000114,0.7944444444444443,0.9930069930069785,0.023216348309657058,0.9648974217038521,36.111111111111114,0.9999999999723078,1.0069930069930215,0.0,0.9951998915610938,0
87,70.79166666666667,0.8000000000000114,0.8194444444444429,0.8000000000000114,1.0,0.024198829219017524,1.005730427983347,36.111111111111114,0.9999999999723078,1.024305555555539,0.0,0.9993869414309746,0
88,71.61111111111111,0.8194444444444429,0.8583333333333343,0.8027777777777843,1.0207612456747304,0.021382871069871648,0.8886960554155217,38.888888888888886,1.0769230768932543,1.0692041522491276,0.0,0.9931075740532811,0
89,72.46944444444445,0.8583333333333343,0.8277777777777686,0.8083333333333371,1.061855670103089,0.02081938385056761,0.8652768958725293,36.111111111111114,0.9999999999723078,1.0240549828178533,0.0,0.9866417431574919,0
90,73.29722222222222,0.8277777777777686,0.7861111111111114,0.81527777777778,1.0153321976149774,0.019138260493537253,0.7954075274805164,33.333333333333336,0.923076923051361,0.9642248722316843,0.0,0.9939512941593835,0
91,74.08333333333333,0.7861111111111114,0.7833333333333314,0.8055555555555642,0.9758620689655071,0.02352300638293709,0.9776424744703758,36.111111111111114,0.9999999999723078,0.9724137931034355,0.0,0.9938302434159186,0
92,74.86666666666666,0.7833333333333314,0.7916666666666714,0.8000000000000114,0.9791666666666504,0.023990019865955645,0.9970520775507232,33.333333333333336,0.923076923051361,0.9895833333333252,0.0,0.997875604658253,0
93,75.65833333333333,0.7916666666666714,0.8305555555555628,0.7958333333333414,0.994764397905755,0.024391237725588936,1.013727140878433,36.111111111111114,0.9999999999723078,1.0436300174520055,0.0,0.9967984672091581,0
94,76.4888888888889,0.8305555555555628,0.8249999999999886,0.8000000000000114,1.0381944444444389,0.0223607225518051,0.9293366575094526,36.111111111111114,0.9999999999723078,1.0312499999999711,0.0,0.9947613318361987,0
95,77.31388888888888,0.8249999999999886,0.8305555555555628,0.8097222222222271,1.0188679245282817,0.02197293044203463,0.9132195833734231,38.888888888888886,1.0769230768932543,1.0257289879931417,0.0,0.9932244043043056,0
96,78.14444444444445,0.8305555555555628,0.8305555555555486,0.8222222222222157,1.010135135135152,0.02546373304777029,1.0583012469074926,38.888888888888886,1.0769230768932543,1.0101351351351346,0.0,0.9949630545949766,0
97,78.975,0.8305555555555486,0.8222222222222229,0.8263888888888786,1.0050420168067267,0.025164170633158664,1.0458510976573667,36.111111111111114,0.9999999999723078,0.9949579831932904,0.0,0.999023901485144,0
98,79.79722222222222,0.8222222222222229,0.8000000000000114,0.8263888888888786,0.9949579831932904,0.01851220299161101,0.7693878769571085,33.333333333333336,0.923076923051361,0.9680672268907821,0.0,0.9932513771777547,0
99,80.59722222222223,0.8000000000000114,0.7749999999999915,0.8236111111111057,0.9713322091062596,0.02015496738830076,0.8376630040223536,36.111111111111114,0.9999999999723078,0.9409780775716653,0.0,0.987227509472256,0
100,81.37222222222222,0.7749999999999915,0.7944444444444514,0.8111111111111171,0.9554794520547769,0.01801564532673243,0.7487503846099882,33.333333333333336,0.923076923051361,0.9794520547945219,0.0,0.9937672573492016,0
101,82.16666666666667,0.7944444444444514,0.8138888888888829,0.8111111111111171,0.9794520547945219,0.025987727269278924,1.0800790332577728,41.666666666666664,1.153846153814201,1.0034246575342318,0.0,0.9953870832619045,0
102,82.98055555555555,0.8138888888888829,0.8583333333333343,0.8180555555555529,0.9949066213921861,0.02512417535174583,1.0441888489953102,38.888888888888886,1.0769230768932543,1.049235993208833,0.0,0.9965250875689876,0
103,83.83888888888889,0.8583333333333343,0.8472222222222285,0.8236111111111057,1.042158516020244,0.0244189012576577,1.0148768682348783,36.111111111111114,0.9999999999723078,1.028667790893775,0.0,0.9997218076852057,0
104,84.68611111111112,0.8472222222222285,0.8111111111111029,0.8236111111111057,1.028667790893775,0.024121533234657343,1.0025179203562893,36.111111111111114,0.9999999999723078,0.9848229342327115,0.0,0.9996926712593148,0
105,85.49722222222222,0.8111111111111029,0.7944444444444514,0.8180555555555529,0.9915110356536435,0.02302995035020663,0.9571505138746925,36.111111111111114,0.9999999999723078,0.9711375212224226,0.0,0.9928197538637047,0
106,86.29166666666667,0.7944444444444514,0.7861111111111114,0.8124999999999929,0.9777777777777948,0.018008243635673507,0.7484427620448998,33.333333333333336,0.923076923051361,0.9675213675213764,0.0,0.9937878068333479,0
107,87.07777777777778,0.7861111111111114,0.7972222222222172,0.8055555555555571,0.9758620689655157,0.023613882354578057,0.9814193815688417,36.111111111111114,0.9999999999723078,0.9896551724137849,0.0,0.9949627580881535,0
108,87.875,0.7972222222222172,0.8138888888888829,0.7986111111111143,0.9982608695652071,0.025846504265259695,1.0742096471404587,38.888888888888886,1.0769230768932543,1.0191304347825971,0.0,0.9954827478849074,0
109,88.68888888888888,0.8138888888888829,0.8222222222222229,0.80416666666666,1.012089810017272,0.02085216362422768,0.8666392599560954,38.888888888888886,1.0769230768932543,1.0224525043177985,0.0,0.9921534181897775,0
110,89.5111111111111,0.8222222222222229,0.8472222222222285,0.8124999999999929,1.0119658119658217,0.02575292038301143,1.0703201962462012,38.888888888888886,1.0769230768932543,1.0427350427350597,0.0,0.9963538048467364,0
111,90.35833333333333,0.8472222222222285,0.8527777777777743,0.8138888888888829,1.040955631399333,0.02716647197623935,1.1290689826427103,41.666666666666664,1.153846153814201,1.0477815699658737,0.0,0.989181159588886,0
112,91.21111111111111,0.8527777777777743,0.8083333333333371,0.8180555555555529,1.042444821731748,0.024588582841228224,1.0219290247719044,36.111111111111114,0.9999999999723078,0.9881154499151182,0.0,0.9970897339235757,0
113,92.01944444444445,0.8083333333333371,0.7666666666666657,0.8124999999999929,0.9948717948718082,0.025572588927263027,1.0628254191011084,38.888888888888886,1.0769230768932543,0.9435897435897507,0.0,0.9964581301897004,0
114,92.78611111111111,0.7666666666666657,0.7999999999999972,0.80972222222222,0.9468267581475143,0.02298304175258302,0.9552009400528724,33.333333333333336,0.923076923051361,0.9879931389365344,0.0,0.9930916374090073,0
115,93.58611111111111,0.7999999999999972,0.8027777777777771,0.8041666666666671,0.9948186528497368,0.02559020682114634,1.0635576384905283,38.888888888888886,1.0769230768932543,0.9982728842832456,0.0,0.9965021878694669,0
116,94.38888888888889,0.8027777777777771,0.8166666666666629,0.8055555555555571,0.9965517241379283,0.024988249581086405,1.0385396218255993,36.111111111111114,0.9999999999723078,1.0137931034482692,0.0,0.9920716373330389,0
117,95.20555555555555,0.8166666666666629,0.8361111111111228,0.81111111111111,1.0068493150684898,0.024826177223643758,1.0318037132434204,38.888888888888886,1.0769230768932543,1.030821917808235,0.0,0.9986753221671447,0
118,96.04166666666667,0.8361111111111228,0.8194444444444429,0.8152777777777729,1.025553662691673,0.02528917955810515,1.0510466085000716,36.111111111111114,0.9999999999723078,1.0051107325383346,0.0,0.9994124780338661,0
119,96.86111111111111,0.8194444444444429,0.8277777777777686,0.8180555555555529,1.0016977928692714,0.02397610519035178,0.9964737680579927,36.111111111111114,0.9999999999723078,1.0118845500848819,0.0,0.9968550404707988,0
120,97.68888888888888,0.8277777777777686,0.7972222222222314,0.8180555555555529,1.0118845500848819,0.02339503817836384,0.9723239726540743,36.111111111111114,0.9999999999723078,0.9745331069609652,0.0,0.9984222353161538,0
121,98.48611111111111,0.7972222222222314,0.7805555555555515,0.8125,0.9811965811965925,0.022959424143062703,0.9542193657661237,36.111111111111114,0.9999999999723078,0.9606837606837556,0.0,0.9962439605571245,0
122,99.26666666666667,0.7805555555555515,0.7777777777777857,0.8055555555555571,0.9689655172413724,0.023873170637299483,0.9921956928189557,36.111111111111114,0.9999999999723078,0.9655172413793183,0.0,0.99553218072155,0
123,100.04444444444445,0.7777777777777857,0.8166666666666629,0.8013888888888872,0.9705372616984521,0.02343219628654196,0.9738683052208607,36.111111111111114,0.9999999999723078,1.0190641247833596,0.0,0.9964658241955509,0
124,100.86111111111111,0.8166666666666629,0.8194444444444429,0.80972222222222,1.0085763293310444,0.022043694262187455,0.916160606944601,38.888888888888886,1.0769230768932543,1.0120068610634656,0.0,0.9898259703176814,0
125,101.68055555555556,0.8194444444444429,0.8638888888888943,0.8166666666666629,1.0034013605442205,0.019850331112490956,0.8250019794216814,33.333333333333336,0.923076923051361,1.0578231292517122,0.0,0.9951778781818875,0
126,102.54444444444445,0.8638888888888943,0.8305555555555486,0.8180555555555529,1.0560271646859183,0.024947122639839902,1.0368303401141938,36.111111111111114,0.9999999999723078,1.0152801358234245,0.0,0.9991165585201143,0
127,103.375,0.8305555555555486,0.7888888888888914,0.8194444444444429,1.0135593220338919,0.023220604362257903,0.9650743080137237,36.111111111111114,0.9999999999723078,0.9627118644067846,0.0,0.9992191189371475,0
128,104.16388888888889,0.7888888888888914,0.7861111111111114,0.8180555555555529,0.9643463497453373,0.022641847947413335,0.9410205436133249,33.333333333333336,0.923076923051361,0.9609507640067947,0.0,0.9963710245413573,0
129,104.95,0.7861111111111114,0.8027777777777771,0.8069444444444471,0.9741824440619593,0.023095700103151935,0.9598831472005028,36.111111111111114,0.9999999999723078,0.9948364888123883,0.0,0.9957342930666673,0
130,105.75277777777778,0.8027777777777771,0.7916666666666714,0.8000000000000043,1.003472222222216,0.023445059609632897,0.9744029193263799,36.111111111111114,0.9999999999723078,0.9895833333333339,0.0,0.9965986553773283,0
131,106.54444444444445,0.7916666666666714,0.8194444444444429,0.7972222222222243,0.9930313588850208,0.023155106384017278,0.9623521387264501,36.111111111111114,0.9999999999723078,1.0278745644599256,0.0,0.9945811529364524,0
132,107.3638888888889,0.8194444444444429,0.8305555555555486,0.80972222222222,1.0120068610634656,0.02587343086836818,1.0753287469044734,41.666666666666664,1.153846153814201,1.025728987993133,0.0,0.9940661242938411,0
133,108.19444444444444,0.8305555555555486,0.8388888888888886,0.8180555555555529,1.0152801358234245,0.02338684224466221,0.9719833404757626,36.111111111111114,0.9999999999723078,1.0254668930390523,0.0,0.9944415118511026,0
134,109.03333333333333,0.8388888888888886,0.8222222222222229,0.8194444444444429,1.0237288135593237,0.02518501905744431,1.046717581506226,36.111111111111114,0.9999999999723078,1.0033898305084772,0.0,0.9965351029715941,0
135,109.85555555555555,0.8222222222222229,0.7694444444444457,0.8208333333333329,1.0016920473773279,0.01955581502574503,0.8127615612059861,36.111111111111114,0.9999999999723078,0.9373942470389192,0.0,0.9898183246587847,0
136,110.625,0.7694444444444457,0.75277777777778,0.81111111111111,0.9486301369863043,0.02383376221090103,0.9905578345081612,36.111111111111114,0.9999999999723078,0.928082191780826,0.0,0.9950065455281875,0
137,111.37777777777778,0.75277777777778,0.7944444444444372,0.7972222222222243,0.9442508710801397,0.017522270017834032,0.7282451545394011,33.333333333333336,0.923076923051361,0.9965156794424971,0.0,0.9903193513064354,0
138,112.17222222222222,0.7944444444444372,0.8222222222222229,0.7986111111111072,0.9947826086956479,0.024281367315787845,1.009160803669643,36.111111111111114,0.9999999999723078,1.0295652173913101,0.0,0.9968259992605351,0
139,112.99444444444444,0.8222222222222229,0.8111111111111171,0.81111111111111,1.0136986301369884,0.019481561143051117,0.8096754867291893,33.333333333333336,0.923076923051361,1.0000000000000087,0.0,0.9887760226150655,0
140,113.80555555555556,0.8111111111111171,0.8388888888888886,0.81527777777778,0.9948892674616742,0.023884938877728013,0.9926847940633041,36.111111111111114,0.9999999999723078,1.028960817717203,0.0,0.9991478797075447,0
141,114.64444444444445,0.8388888888888886,0.8194444444444429,0.8208333333333329,1.0219966159052456,0.02211618736678991,0.9191735015130857,41.666666666666664,1.153846153814201,0.9983079526226721,0.0,0.9872263174430189,0
142,115.46388888888889,0.8194444444444429,0.7861111111111114,0.8208333333333329,0.9983079526226721,0.017356705840265708,0.7213641220044203,33.333333333333336,0.923076923051361,0.9576988155668368,0.0,0.9919283401785733,0
143,116.25,0.7861111111111114,0.74166666666666,0.81527777777778,0.9642248722316843,0.018396244797289737,0.7645685246096298,33.333333333333336,0.923076923051361,0.9097103918228173,0.0,0.9928219903072828,0
144,116.99166666666666,0.74166666666666,0.8277777777777828,0.8027777777777771,0.9238754325259441,0.01868049610308859,0.7763823270398414,33.333333333333336,0.923076923051361,1.0311418685121179,0.0,0.9939407991127218,0
145,117.81944444444444,0.8277777777777828,0.7861111111111114,0.8027777777777771,1.0311418685121179,0.025354852260479382,1.0537760395179057,38.888888888888886,1.0769230768932543,0.9792387543252606,0.0,0.9955557412249593,0
146,118.60555555555555,0.7861111111111114,0.8277777777777828,0.8027777777777771,0.9792387543252606,0.022048730631207006,0.9163699240782388,38.888888888888886,1.0769230768932543,1.0311418685121179,0.0,0.9918871552671202,0
147,119.43333333333334,0.8277777777777828,0.86388888888888,0.81527777777778,1.015332197614995,0.02551175024155304,1.0602968952265333,36.111111111111114,0.9999999999723078,1.0596252129471755,0.0,0.9957931336357857,0
148,120.29722222222222,0.86388888888888,0.8250000000000028,0.8208333333333329,1.0524534686971134,0.02460438340701634,1.022585713971561,36.111111111111114,0.9999999999723078,1.0050761421319838,0.0,0.9996457680166402,0
149,121.12222222222222,0.8250000000000028,0.7999999999999972,0.8222222222222229,1.0033783783783812,0.019156958031054494,0.7961846180678027,33.333333333333336,0.923076923051361,0.9729729729729688,0.0,0.9938388443048769,0
150,121.92222222222222,0.7999999999999972,0.7777777777777857,0.8222222222222229,0.9729729729729688,0.024579426275098976,1.0215484676346696,36.111111111111114,0.9999999999723078,0.9459459459459548,0.0,0.9951420076819126,0
151,122.7,0.7777777777777857,0.7888888888888914,0.80972222222222,0.9605488850771994,0.01773856946390785,0.7372348016212285,33.333333333333336,0.923076923051361,0.9742710120068668,0.0,0.9901869462158419,0
152,123.4888888888889,0.7888888888888914,0.7972222222222172,0.7944444444444443,0.9930069930069964,0.020140703923183477,0.8370701984470469,33.333333333333336,0.923076923051361,1.0034965034964973,0.0,0.9924512017943738,0
153,124.28611111111111,0.7972222222222172,0.7972222222222172,0.7986111111111072,0.998260869565216,0.024132866300269302,1.0029889352481718,36.111111111111114,0.9999999999723078,0.998260869565216,0.0,0.9996603392173196,0
154,125.08333333333333,0.7972222222222172,0.8138888888888971,0.7986111111111072,0.998260869565216,0.01867657683942439,0.776219438055143,33.333333333333336,0.923076923051361,1.019130434782624,0.0,0.994669103310558,0
155,125.89722222222223,0.8138888888888971,0.8472222222222143,0.7986111111111072,1.019130434782624,0.02444381285999765,1.0159122223115713,36.111111111111114,0.9999999999723078,1.0608695652173867,0.0,0.9988845185434789,0
156,126.74444444444444,0.8472222222222143,0.8222222222222229,0.8069444444444471,1.0499139414801932,0.019453181779876354,0.8084960086307523,33.333333333333336,0.923076923051361,1.0189328743545585,0.0,0.9949784652146928,0
157,127.56666666666666,0.8222222222222229,0.7750000000000057,0.8069444444444471,1.0189328743545585,0.022830835160640182,0.9488750637275726,33.333333333333336,0.923076923051361,0.9604130808950124,0.0,0.9894111038271387,0
158,128.34166666666667,0.7750000000000057,0.7666666666666515,0.7986111111111072,0.9704347826087075,0.024060948679667255,0.9999999584388807,33.333333333333336,0.923076923051361,0.9599999999999858,0.0,0.994663587823067,0
159,129.10833333333332,0.7666666666666515,0.7777777777777999,0.7972222222222172,0.9616724738675829,0.020300537006456128,0.8437130402883113,33.333333333333336,0.923076923051361,0.9756097560975949,0.0,0.9943606835308428,0
160,129.88611111111112,0.7777777777777999,0.7722222222222115,0.7930555555555543,0.9807355516637772,0.022309773775883217,0.9272191693554028,33.333333333333336,0.923076923051361,0.9737302977232805,0.0,0.9907620849340516,0
161,130.65833333333333,0.7722222222222115,0.8249999999999886,0.7930555555555543,0.9737302977232805,0.023847828836036294,0.9911424591934931,36.111111111111114,0.9999999999723078,1.0402802101576056,0.0,0.9990641435094583,0
162,131.48333333333332,0.8249999999999886,0.830555555555577,0.7972222222222172,1.0348432055749053,0.02489390371700037,1.0346185021132812,36.111111111111114,0.9999999999723078,1.041811846689929,0.0,0.9965892901130027,0
163,132.3138888888889,0.830555555555577,0.7972222222222172,0.8055555555555571,1.0310344827586453,0.024113123008915313,1.0021683819609226,44.44444444444444,1.2307692307351479,0.9896551724137849,0.0,0.9853625041894305,0
164,133.11111111111111,0.7972222222222172,0.7833333333333314,0.8055555555555571,0.9896551724137849,0.020929001923357213,0.8698327456726822,36.111111111111114,0.9999999999723078,0.972413793103444,0.0,0.9930056194274592,0
165,133.89444444444445,0.7833333333333314,0.7888888888888914,0.7902777777777743,0.9912126537785608,0.023663813888490218,0.983494592006373,36.111111111111114,0.9999999999723078,0.9982425307557193,0.0,0.9992576869291567,0
166,134.68333333333334,0.7888888888888914,0.7777777777777715,0.7861111111111114,1.0035335689045966,0.01876394273341977,0.7798504623978443,33.333333333333336,0.923076923051361,0.9893992932862107,0.0,0.9914580447987171,0
167,135.4611111111111,0.7777777777777715,0.76111111111112,0.7805555555555657,0.9964412811387691,0.01829858405920838,0.7605096350237426,33.333333333333336,0.923076923051361,0.975088967971529,0.0,0.9925715668146529,0
168,136.22222222222223,0.76111111111112,0.7861111111110972,0.7805555555555657,0.975088967971529,0.023523053927400818,0.9776444504715046,36.111111111111114,0.9999999999723078,1.007117437722389,0.0,0.9974607959040023,0
169,137.00833333333333,0.7861111111110972,0.8194444444444571,0.7847222222222143,1.0017699115044172,0.025111457474530106,1.0436602797831618,36.111111111111114,0.9999999999723078,1.0442477876106462,0.0,0.9973853723567869,0
170,137.82777777777778,0.8194444444444571,0.8472222222222285,0.7874999999999943,1.0405643738977308,0.024957017153876673,1.037241567192447,36.111111111111114,0.9999999999723078,1.075837742504425,0.0,0.9984036591708868,0
171,138.675,0.8472222222222285,0.8083333333333087,0.7930555555555543,1.0683012259194493,0.024897135680864713,1.034752826149006,36.111111111111114,0.9999999999723078,1.0192644483362228,0.0,0.9995270403369746,0
172,139.48333333333332,0.8083333333333087,0.7694444444444457,0.7930555555555543,1.0192644483362228,0.02425717785473023,1.0081554625929332,36.111111111111114,0.9999999999723078,0.9702276707530679,0.0,0.998923102380405,0
173,140.25277777777777,0.7694444444444457,0.7777777777777999,0.7874999999999943,0.9770723104056523,0.022725516493724243,0.9444979020478347,33.333333333333336,0.923076923051361,0.9876543209876896,0.0,0.994571836790673,0
174,141.03055555555557,0.7777777777777999,0.7916666666666572,0.7847222222222143,0.9911504424779143,0.024078661495947073,1.0007361229093457,36.111111111111114,0.9999999999723078,1.008849557522122,0.0,0.9966757650873068,0
175,141.82222222222222,0.7916666666666572,0.7861111111110972,0.7874999999999943,1.0052910052910005,0.01779371392086362,0.7395266669752536,33.333333333333336,0.923076923051361,0.9982363315696544,0.0,0.9933132253820227,0
176,142.60833333333332,0.7861111111110972,0.7972222222222456,0.7861111111110972,1.0,0.025944610637263783,1.0782870577709707,38.888888888888886,1.0769230768932543,1.0141342756184222,0.0,0.9952833257609339,0
177,143.40555555555557,0.7972222222222456,0.8194444444444287,0.7888888888888772,1.0105633802817346,0.02533241124028734,1.0528433656005913,36.111111111111114,0.9999999999723078,1.0387323943661926,0.0,0.9958485125591818,0
178,144.225,0.8194444444444287,0.8194444444444571,0.7944444444444514,1.0314685314685026,0.024234726490130684,1.0072223587504645,36.111111111111114,0.9999999999723078,1.0314685314685383,0.0,0.9995574888289377,0
179,145.04444444444445,0.8194444444444571,0.8055555555555429,0.8027777777777771,1.020761245674757,0.01876310746979215,0.7798157479065735,33.333333333333336,0.923076923051361,1.0034602076124417,0.0,0.9939599579904829,0
180,145.85,0.8055555555555429,0.7722222222222399,0.8013888888888943,1.0051993067590763,0.018196285661298117,0.7562579991044542,33.333333333333336,0.923076923051361,0.9636048526863241,0.0,0.9939461629303973,0
181,146.62222222222223,0.7722222222222399,0.7749999999999773,0.7944444444444514,0.9720279720279857,0.022971659439355214,0.9547278783749527,36.111111111111114,0.9999999999723078,0.9755244755244383,0.0,0.9959157582383511,0
182,147.3972222222222,0.7749999999999773,0.7722222222222399,0.7888888888888772,0.9823943661971688,0.017709046662764013,0.7360078009609518,33.333333333333336,0.923076923051361,0.9788732394366566,0.0,0.9922916754990815,0
183,148.16944444444445,0.7722222222222399,0.8083333333333371,0.7888888888888772,0.9788732394366566,0.017419170958099948,0.7239602422185375,33.333333333333336,0.923076923051361,1.0246478873239637,0.0,0.9922457526158386,0
184,148.9777777777778,0.8083333333333371,0.8083333333333087,0.7944444444444514,1.0174825174825133,0.019467989705926905,0.8091114426118584,33.333333333333336,0.923076923051361,1.0174825174824775,0.0,0.9920778636017535,0
185,149.7861111111111,0.8083333333333087,0.8222222222222229,0.8013888888888943,1.008665511265127,0.019522400379842913,0.8113728111214309,33.333333333333336,0.923076923051361,1.025996533795488,0.0,0.9952628453563139,0
186,150.60833333333332,0.8222222222222229,0.8027777777777771,0.8069444444444258,1.0189328743545853,0.025080828030095266,1.0423872857890502,36.111111111111114,0.9999999999723078,0.9948364888124146,0.0,0.9969028892658262,0
187,151.4111111111111,0.8027777777777771,0.7666666666666799,0.8069444444444258,0.9948364888124146,0.01901771659276553,0.7903975880401963,33.333333333333336,0.923076923051361,0.9500860585198319,0.0,0.9932203031936455,0
188,152.17777777777778,0.7666666666666799,0.7777777777777715,0.80416666666666,0.9533678756476928,0.024510582378814535,1.0186872382484238,36.111111111111114,0.9999999999723078,0.9671848013816927,0.0,0.9932976576109855,0
189,152.95555555555555,0.7777777777777715,0.7750000000000057,0.7902777777777743,0.9841827768014023,0.02346558199678928,0.9752558527072149,36.111111111111114,0.9999999999723078,0.980667838312841,0.0,0.9971242416994583,0
190,153.73055555555555,0.7750000000000057,0.7833333333333314,0.7763888888888886,0.9982110912343548,0.023630683401192766,0.9821176518714851,36.111111111111114,0.9999999999723078,1.0089445438282627,0.0,0.9906909260940528,0
191,154.51388888888889,0.7833333333333314,0.7861111111111256,0.7805555555555515,1.0035587188612127,0.027892929175073338,1.1592613569465342,44.44444444444444,1.2307692307351479,1.0071174377224439,0.0,0.9895687255032408,0
192,155.3,0.7861111111111256,0.8333333333333144,0.7847222222222285,1.0017699115044352,0.019223033156040237,0.7989307742198012,33.333333333333336,0.923076923051361,1.0619469026548345,0.0,0.9946225665526887,0
193,156.13333333333333,0.8333333333333144,0.8166666666666629,0.7944444444444514,1.0489510489510159,0.021827947883111057,0.9071939459462317,38.888888888888886,1.0769230768932543,1.0279720279720141,0.0,0.9896302015792493,0
194,156.95,0.8166666666666629,0.7861111111111256,0.7944444444444514,1.0279720279720141,0.025122639245249743,1.0441250066899759,36.111111111111114,0.9999999999723078,0.9895104895104991,0.0,0.9993962181554591,0
195,157.73611111111111,0.7861111111111256,0.75,0.7861111111111256,1.0,0.022669621976174545,0.9421748633359865,38.888888888888886,1.0769230768932543,0.954063604240265,0.0,0.9913756187957837,0
196,158.48611111111111,0.75,0.7722222222222115,0.7847222222222285,0.9557522123893728,0.024884796369822774,1.0342399905707675,36.111111111111114,0.9999999999723078,0.9840707964601554,0.0,0.9969155689718202,0
197,159.25833333333333,0.7722222222222115,0.7833333333333314,0.7805555555555515,0.9893238434163616,0.024583854052832962,1.0217324910332857,36.111111111111114,0.9999999999723078,1.0035587188612127,0.0,0.9989775209827885,0
198,160.04166666666666,0.7833333333333314,0.7916666666666856,0.7833333333333314,1.0,0.02514125947413032,1.0448988842437912,36.111111111111114,0.9999999999723078,1.0106382978723671,0.0,0.9951846510348691,0
199,160.83333333333334,0.7916666666666856,0.8111111111111029,0.7847222222222285,1.00884955752214,0.026561030640742795,1.1039061630717029,41.666666666666664,1.153846153814201,1.033628318584052,0.0,0.9921852203730281,0
200,161.64444444444445,0.8111111111111029,0.8277777777777828,0.7861111111111256,1.0318021201413132,0.025289508354505538,1.051060273646492,38.888888888888886,1.0769230768932543,1.0530035335688916,0.0,0.9974897274542549,0
201,162.47222222222223,0.8277777777777828,0.8277777777777828,0.7888888888889056,1.0492957746478715,0.025172232788075365,1.0461861698396386,36.111111111111114,0.9999999999723078,1.0492957746478715,0.0,0.9994907898866979,0
202,163.3,0.8277777777777828,0.8027777777777771,0.8013888888888943,1.032928942807625,0.01875320074295891,0.7794040132508292,33.333333333333336,0.923076923051361,1.0017331022530254,0.0,0.9946980180921821,0
203,164.1027777777778,0.8027777777777771,0.7694444444444457,0.7972222222222314,1.0069686411149703,0.023730448101564917,0.9862639844851333,36.111111111111114,0.9999999999723078,0.9651567944250776,0.0,0.9993058177774651,0
204,164.87222222222223,0.7694444444444457,0.7722222222222115,0.7888888888889056,0.9753521126760373,0.023412490994467662,0.9730493312262078,36.111111111111114,0.9999999999723078,0.9788732394365853,0.0,0.994970497175186,0
205,165.64444444444445,0.7722222222222115,0.8000000000000114,0.7875000000000085,0.9805996472662897,0.019034350562910814,0.7910889144577624,33.333333333333336,0.923076923051361,1.0158730158730194,0.0,0.9924764261601553,0
206,166.44444444444446,0.8000000000000114,0.8166666666666629,0.7958333333333485,1.005235602094236,0.01909625100570967,0.7936615661453708,33.333333333333336,0.923076923051361,1.02617801047118,0.0,0.9904277006495754,0
207,167.26111111111112,0.8166666666666629,0.8388888888888744,0.8013888888888943,1.0190641247833507,0.027304886400187793,1.1348216410286511,41.666666666666664,1.153846153814201,1.046793760831864,0.0,0.9938813755876519,0
208,168.1,0.8388888888888744,0.8388888888889028,0.80694444444444,1.0395869191049791,0.028509824288616564,1.1849002083533235,44.44444444444444,1.2307692307351479,1.0395869191050142,0.0,0.9864280942171844,0
209,168.9388888888889,0.8388888888889028,0.799999999999983,0.8138888888888829,1.0307167235495127,0.019616334551527545,0.8152768204367412,33.333333333333336,0.923076923051361,0.9829351535836041,0.0,0.9939224810730869,0
210,169.73888888888888,0.799999999999983,0.7916666666666856,0.80972222222222,0.9879931389365167,0.018142063144609036,0.7540044506198363,33.333333333333336,0.923076923051361,0.9777015437393056,0.0,0.9921136866815166,0
211,170.53055555555557,0.7916666666666856,0.8027777777777771,0.8013888888888943,0.9878682842287865,0.02400794844339786,0.997797209296598,36.111111111111114,0.9999999999723078,1.0017331022530254,0.0,0.9945602270558427,0
212,171.33333333333334,0.8027777777777771,0.7888888888888914,0.8013888888888943,1.0017331022530254,0.01882428543365727,0.7823583725610284,33.333333333333336,0.923076923051361,0.9844020797227002,0.0,0.9942350594855534,0
213,172.12222222222223,0.7888888888888914,0.788888888888863,0.7999999999999972,0.9861111111111178,0.020684336441125637,0.8596641743781613,36.111111111111114,0.9999999999723078,0.9861111111110823,0.0,0.9913062008574081,0
214,172.9111111111111,0.788888888888863,0.830555555555577,0.7999999999999972,0.9861111111110823,0.020560185809861575,0.8545043351815824,36.111111111111114,0.9999999999723078,1.038194444444475,0.0,0.9918216040350071,0
215,173.74166666666667,0.830555555555577,0.8472222222222285,0.8013888888888943,1.0363951473137114,0.02212296831506811,0.9194553253134128,38.888888888888886,1.0769230768932543,1.0571923743500875,0.0,0.9936478408844783,0
216,174.5888888888889,0.8472222222222285,0.8416666666666401,0.80972222222222,1.0463121783876608,0.01998696487438507,0.8306806314995575,33.333333333333336,0.923076923051361,1.0394511149227832,0.0,0.9927216292318006,0
217,175.43055555555554,0.8416666666666401,0.7888888888888914,0.8166666666666771,1.0306122448979136,0.024949735196238613,1.036938920882347,41.666666666666664,1.153846153814201,0.9659863945578139,0.0,0.985475917718883,0
218,176.21944444444443,0.7888888888888914,0.75555555555556,0.80138888888888,0.9844020797227176,0.017672334397753876,0.7344819981352569,33.333333333333336,0.923076923051361,0.9428076256499293,0.0,0.9917828301672993,0
219,176.975,0.75555555555556,0.7972222222222172,0.7958333333333343,0.9493891797556764,0.02315126454328586,0.9621924675254973,36.111111111111114,0.9999999999723078,1.0017452006980727,0.0,0.9943678153565529,0
220,177.7722222222222,0.7972222222222172,0.8055555555555713,0.7944444444444514,1.0034965034964884,0.024158527051188494,1.0040554247783369,36.111111111111114,0.9999999999723078,1.013986013986025,0.0,0.9959861888442758,0
221,178.57777777777778,0.8055555555555713,0.8166666666666629,0.7999999999999972,1.0069444444444677,0.018136978725140383,0.7537931364557513,33.333333333333336,0.923076923051361,1.0208333333333321,0.0,0.9925575011106269,0
222,179.39444444444445,0.8166666666666629,0.8166666666666629,0.8013888888888943,1.0190641247833507,0.020674282714940137,0.8592463302648014,36.111111111111114,0.9999999999723078,1.0190641247833507,0.0,0.9905610468626487,0
223,180.2111111111111,0.8166666666666629,0.8277777777777828,0.8111111111111171,1.006849315068481,0.018620081168342757,0.7738714147296392,33.333333333333336,0.923076923051361,1.0205479452054782,0.0,0.9940364082037991,0
224,181.0388888888889,0.8277777777777828,0.8055555555555429,0.8166666666666629,1.0136054421768816,0.022742710654718574,0.9452125106241064,36.111111111111114,0.9999999999723078,0.9863945578231184,0.0,0.9953245278784473,0
225,181.84444444444443,0.8055555555555429,0.7944444444444514,0.8111111111111171,0.993150684931484,0.017891007452742462,0.743570295060352,33.333333333333336,0.923076923051361,0.9794520547945219,0.0,0.9925808996299633,0
226,182.63888888888889,0.7944444444444514,0.7805555555555657,0.8055555555555571,0.9862068965517309,0.024248357018733124,1.0077888587757713,36.111111111111114,0.9999999999723078,0.9689655172413899,0.0,0.9972938918366266,0
227,183.41944444444445,0.7805555555555657,0.7666666666666515,0.80138888888888,0.9740034662045294,0.023464006459548072,0.9751903716159787,41.666666666666664,1.153846153814201,0.9566724436741684,0.0,0.9879677640452658,0
228,184.1861111111111,0.7666666666666515,0.825000000000017,0.80138888888888,0.9566724436741684,0.023694460639752283,0.9847683052915956,36.111111111111114,0.9999999999723078,1.0294627383015924,0.0,0.9951824013739343,0
229,185.01111111111112,0.825000000000017,0.5194444444444457,0.8055555555555571,1.024137931034502,0.023756969054546623,0.9873662249758367,36.111111111111114,0.9999999999723078,0.6448275862068968,0.0,0.994753793813742,0
230,185.53055555555557,0.5194444444444457,0.9416666666666629,0.8055555555555571,0.6448275862068968,0.023707445913057363,0.9853079877845129,38.888888888888886,1.0769230768932543,1.1689655172413722,0.0,0.996186565631147,0
231,186.47222222222223,0.9416666666666629,0.8444444444444343,0.8111111111111029,1.160958904109596,0.02502857832665705,1.0402157296312993,36.111111111111114,0.9999999999723078,1.041095890410957,0.0,0.9958759438612226,0
232,187.31666666666666,0.8444444444444343,0.8166666666666629,0.8111111111111029,1.041095890410957,0.026895017470644687,1.1177870295523857,38.888888888888886,1.0769230768932543,1.0068493150684987,0.0,0.9939713810903704,0
233,188.13333333333333,0.8166666666666629,0.7777777777777715,0.8111111111111029,1.0068493150684987,0.02492144386542989,1.0357631015075766,36.111111111111114,0.9999999999723078,0.958904109589043,0.0,0.9958264501744116,0
234,188.9111111111111,0.7777777777777715,0.8166666666666913,0.7999999999999972,0.9722222222222178,0.019338530210428306,0.8037309610755041,33.333333333333336,0.923076923051361,1.0208333333333677,0.0,0.994130946636602,0
235,189.7277777777778,0.8166666666666913,0.8111111111111029,0.8055555555555571,1.0137931034483045,0.023976428807601997,0.996487217953135,36.111111111111114,0.9999999999723078,1.0068965517241257,0.0,0.99957194936217,0
236,190.5388888888889,0.8111111111111029,0.8111111111111029,0.8138888888888829,0.9965870307167208,0.02465685457184073,1.0247664743124019,36.111111111111114,0.9999999999723078,0.9965870307167208,0.0,0.9934148760357577,0
237,191.35,0.8111111111111029,0.8472222222222285,0.8138888888888829,0.9965870307167208,0.024278982797192986,1.0090617004078597,36.111111111111114,0.9999999999723078,1.040955631399333,0.0,0.9985066737440756,0
238,192.19722222222222,0.8472222222222285,0.86944444444444,0.8166666666666771,1.0374149659863892,0.019138355783623762,0.7954114878431694,33.333333333333336,0.923076923051361,1.0646258503401171,0.0,0.9944245203233777,0
239,193.06666666666666,0.86944444444444,0.8111111111111029,0.8166666666666771,1.0646258503401171,0.02087676346261722,0.8676616567740534,38.888888888888886,1.0769230768932543,0.9931972789115419,0.0,0.9945477439393435,0
240,193.87777777777777,0.8111111111111029,0.7694444444444457,0.8166666666666771,0.9931972789115419,0.022850671332994357,0.9496994772531507,36.111111111111114,0.9999999999723078,0.9421768707482888,0.0,0.9955995359709746,0
241,194.6472222222222,0.7694444444444457,0.7888888888888914,0.8138888888888829,0.9453924914675853,0.02317785195742038,0.9632974702161012,36.111111111111114,0.9999999999723078,0.9692832764505221,0.0,0.9944478164741977,0
242,195.4361111111111,0.7888888888888914,0.7944444444444514,0.8111111111111029,0.9726027397260404,0.023737772241064548,0.9865683839206144,36.111111111111114,0.9999999999723078,0.979452054794539,0.0,0.9966287299572902,0
243,196.23055555555555,0.7944444444444514,0.8277777777777828,0.8111111111111029,0.979452054794539,0.01796868400425644,0.7467986194842886,33.333333333333336,0.923076923051361,1.020547945205496,0.0,0.9922023625651235,0
244,197.05833333333334,0.8277777777777828,0.8305555555555486,0.8111111111111029,1.020547945205496,0.023936935987759585,0.9948458521563482,36.111111111111114,0.9999999999723078,1.0239726027397278,0.0,0.9953260830324075,0
245,197.88888888888889,0.8305555555555486,0.8333333333333428,0.8111111111111029,1.0239726027397278,0.019886183534993877,0.8264920462303584,33.333333333333336,0.923076923051361,1.0273972602739947,0.0,0.9951401211979033,0
246,198.72222222222223,0.8333333333333428,0.8499999999999943,0.8194444444444429,1.0169491525423864,0.018479881512275743,0.7680445600986481,33.333333333333336,0.923076923051361,1.0372881355932153,0.0,0.993260591248564,0
247,199.57222222222222,0.8499999999999943,0.8111111111111029,0.8291666666666657,1.0251256281406977,0.019278487036557032,0.8012354995633588,33.333333333333336,0.923076923051361,0.9782244556113815,0.0,0.9943737631613119,0
248,200.38333333333333,0.8111111111111029,0.7750000000000057,0.8194444444444429,0.9898305084745681,0.01734582430097659,0.7209118730519065,33.333333333333336,0.923076923051361,0.9457627118644155,0.0,0.9881851069103536,0
249,201.15833333333333,0.7750000000000057,0.7944444444444514,0.8111111111111029,0.9554794520548112,0.0234459663533329,0.9744406046094661,36.111111111111114,0.9999999999723078,0.979452054794539,0.0,0.9957543201583312,0
250,201.95277777777778,0.7944444444444514,0.8194444444444287,0.8027777777777771,0.9896193771626391,0.02477237371833066,1.0295675793405858,36.111111111111114,0.9999999999723078,1.0207612456747217,0.0,0.9954083277251125,0
251,202.7722222222222,0.8194444444444287,0.8416666666666686,0.8152777777777658,1.005110732538326,0.017806323791675748,0.7400507473203775,33.333333333333336,0.923076923051361,1.0323679727427773,0.0,0.989707463946695,0
252,203.61388888888888,0.8416666666666686,0.8638888888889085,0.8236111111111057,1.0219224283305317,0.023801416920694703,0.989213528043248,36.111111111111114,0.9999999999723078,1.0489038785835045,0.0,0.9942119709634352,0
253,204.4777777777778,0.8638888888889085,0.8305555555555486,0.8291666666666657,1.0418760469011974,0.019652807505994793,0.8167926772484143,33.333333333333336,0.923076923051361,1.0016750418760396,0.0,0.9922176834861294,0
254,205.30833333333334,0.8305555555555486,0.7916666666666572,0.8305555555555486,1.0,0.026655241394629964,1.1078216674529278,38.888888888888886,1.0769230768932543,0.9531772575250802,0.0,0.9933928842819882,0
255,206.1,0.7916666666666572,0.7972222222222172,0.8249999999999886,0.9595959595959613,0.017914234622803466,0.7445356422461545,33.333333333333336,0.923076923051361,0.9663299663299735,0.0,0.9917853738295692,0
256,206.8972222222222,0.7972222222222172,0.7888888888888914,0.8152777777777658,0.9778534923339094,0.02366296874215999,0.9834594667789202,36.111111111111114,0.9999999999723078,0.9676320272572575,0.0,0.9951989566319458,0
257,207.6861111111111,0.7888888888888914,0.6083333333333485,0.80416666666666,0.981001727115728,0.01759306207362775,0.7311873516154184,33.333333333333336,0.923076923051361,0.756476683937849,0.0,0.9929392367904071,0
258,208.29444444444445,0.6083333333333485,0.9611111111111086,0.7958333333333343,0.7643979057591804,0.018187846661015427,0.7559072648069705,33.333333333333336,0.923076923051361,1.2076788830715486,0.0,0.9944311603636214,0
259,209.25555555555556,0.9611111111111086,0.8333333333333428,0.8083333333333229,1.189003436426129,0.02343227439985731,0.9738715516976785,36.111111111111114,0.9999999999723078,1.0309278350515714,0.0,0.9962515735212931,0
260,210.0888888888889,0.8333333333333428,0.8388888888888744,0.8249999999999886,1.0101010101010355,0.02327058189608923,0.967151430259383,36.111111111111114,0.9999999999723078,1.0168350168350133,0.0,0.9953233510068895,0
261,210.92777777777778,0.8388888888888744,0.8333333333333428,0.8319444444444457,1.0083472454089961,0.026595119211765765,1.105322922238602,41.666666666666664,1.153846153814201,1.0016694490818128,0.0,0.9913443318997924,0
262,211.76111111111112,0.8333333333333428,0.7805555555555372,0.8319444444444457,1.0016694490818128,0.01867341591059289,0.7760880663148925,33.333333333333336,0.923076923051361,0.9382303839732654,0.0,0.9925582753213513,0
263,212.54166666666666,0.7805555555555372,0.75,0.8138888888888829,0.9590443686006671,0.022884613489396657,0.9511101512645337,36.111111111111114,0.9999999999723078,0.9215017064846485,0.0,0.995252203501683,0
264,213.29166666666666,0.75,0.8027777777777771,0.7944444444444372,0.9440559440559527,0.02246055624083952,0.9334858573691234,33.333333333333336,0.923076923051361,1.0104895104895188,0.0,0.9944221280473668,0
265,214.09444444444443,0.8027777777777771,0.8138888888888971,0.7999999999999972,1.003472222222225,0.024518967432297308,1.0190357304565207,36.111111111111114,0.9999999999723078,1.017361111111125,0.0,0.9995203360315632,0
266,214.90833333333333,0.8138888888888971,0.8249999999999886,0.8083333333333371,1.0068728522336825,0.021334474214885688,0.8866846279519225,38.888888888888886,1.0769230768932543,1.020618556701012,0.0,0.9907304310202452,0
267,215.73333333333332,0.8249999999999886,0.8055555555555713,0.8194444444444429,1.0067796610169373,0.017420430258263536,0.7240125801428653,33.333333333333336,0.923076923051361,0.9830508474576483,0.0,0.9910257812155701,0
268,216.5388888888889,0.8055555555555713,0.8249999999999886,0.8194444444444429,0.9830508474576483,0.018375990832549052,0.763726747164835,33.333333333333336,0.923076923051361,1.0067796610169373,0.0,0.9944258137714348,0
269,217.36388888888888,0.8249999999999886,0.8000000000000114,0.8194444444444429,1.0067796610169373,0.024498827618269756,1.018198697243132,36.111111111111114,0.9999999999723078,0.9762711864406938,0.0,0.9976429779108069,0
270,218.1638888888889,0.8000000000000114,0.7944444444444514,0.8097222222222342,0.9879931389365345,0.022989006006469474,0.9554488211201559,36.111111111111114,0.9999999999723078,0.9811320754716921,0.0,0.9987304604709161,0
271,218.95833333333334,0.7944444444444514,0.7638888888888857,0.8041666666666742,0.9879101899827282,0.02066990534881695,0.8590644020291555,36.111111111111114,0.9999999999723078,0.9499136442141495,0.0,0.993216652657728,0
272,219.72222222222223,0.7638888888888857,0.7944444444444514,0.8013888888888943,0.9532062391681005,0.017736719025436803,0.7371578953271843,33.333333333333336,0.923076923051361,0.9913344887348374,0.0,0.9931670009384639,0
273,220.51666666666668,0.7944444444444514,0.8416666666666401,0.8013888888888943,0.9913344887348374,0.02407551058584359,1.0006051675586454,36.111111111111114,0.9999999999723078,1.0502599653379148,0.0,0.9997264375472124,0
274,221.35833333333332,0.8416666666666401,0.8388888888889028,0.8041666666666742,1.0466321243522887,0.024175355541539757,1.004754835673389,36.111111111111114,0.9999999999723078,1.0431778929188331,0.0,0.9987219129561589,0
275,222.19722222222222,0.8388888888889028,0.8333333333333428,0.8097222222222342,1.0360205831903964,0.02322525532441867,0.9652676072069263,36.111111111111114,0.9999999999723078,1.0291595197255539,0.0,0.9943436064460047,0
276,223.03055555555557,0.8333333333333428,0.8111111111111029,0.81527777777778,1.0221465076661076,0.01857068869377907,0.7718186082019972,33.333333333333336,0.923076923051361,0.9948892674616567,0.0,0.9919386947078298,0
277,223.84166666666667,0.8111111111111029,0.7916666666666572,0.8083333333333371,1.0034364261168236,0.023768345194850195,0.9878390301001159,36.111111111111114,0.9999999999723078,0.9793814432989527,0.0,0.9987388642723978,0
278,224.63333333333333,0.7916666666666572,0.7888888888888914,0.8055555555555571,0.9827586206896415,0.022121481630915672,0.9193935370559986,33.333333333333336,0.923076923051361,0.9793103448275874,0.0,0.9909536402714678,0
279,225.42222222222222,0.7888888888888914,0.7972222222222172,0.7972222222222314,0.9895470383275179,0.025370104971919088,1.0544099592776315,38.888888888888886,1.0769230768932543,0.9999999999999821,0.0,0.9961370137699482,0
280,226.21944444444443,0.7972222222222172,0.8083333333333371,0.7958333333333343,1.0017452006980727,0.026099453377810916,1.0847224953828942,38.888888888888886,1.0769230768932543,1.0157068062827261,0.0,0.9961159463489067,0
281,227.02777777777777,0.8083333333333371,0.8361111111111086,0.8027777777777771,1.006920415224919,0.024280332029935296,1.00911777603082,36.111111111111114,0.9999999999723078,1.0415224913494787,0.0,0.9957886546025404,0
282,227.86388888888888,0.8361111111111086,0.8444444444444628,0.80972222222222,1.0325900514579758,0.019369486582341958,0.8050175425415637,33.333333333333336,0.923076923051361,1.042881646655257,0.0,0.9930023879197014,0
283,228.70833333333334,0.8444444444444628,0.8361111111111086,0.8222222222222229,1.0270270270270485,0.026691647978696595,1.109334765836463,41.666666666666664,1.153846153814201,1.0168918918918881,0.0,0.9939714123022583,0
284,229.54444444444445,0.8361111111111086,0.8083333333333371,0.8222222222222229,1.0168918918918881,0.02415486857971122,1.0039033746088306,36.111111111111114,0.9999999999723078,0.983108108108112,0.0,0.9960636121376041,0
285,230.3527777777778,0.8083333333333371,0.7833333333333314,0.80972222222222,0.9982847341337981,0.025255481028934594,1.0496460599091306,38.888888888888886,1.0769230768932543,0.9674099485420243,0.0,0.9976915711777926,0
286,231.13611111111112,0.7833333333333314,0.7861111111110972,0.8083333333333371,0.9690721649484467,0.022723468087268897,0.9444127679827784,36.111111111111114,0.9999999999723078,0.9725085910652703,0.0,0.9947057151820129,0
287,231.92222222222222,0.7861111111110972,0.8388888888889028,0.8027777777777771,0.979238754325243,0.024283506231174475,1.0092496993871898,36.111111111111114,0.9999999999723078,1.044982698961956,0.0,0.9986409408001595,0
288,232.76111111111112,0.8388888888889028,0.8611111111111143,0.8083333333333371,1.0378006872852357,0.024892423076389295,1.0345569650322106,36.111111111111114,0.9999999999723078,1.0652920962199302,0.0,0.9952011021298528,0
289,233.62222222222223,0.8611111111111143,0.8416666666666686,0.8222222222222229,1.0472972972973003,0.019317712040516438,0.8028657346322827,33.333333333333336,0.923076923051361,1.0236486486486502,0.0,0.9888341482352523,0
290,234.4638888888889,0.8416666666666686,0.8388888888888744,0.8361111111111086,1.0066445182724306,0.024187241403287357,1.0052488253914111,36.111111111111114,0.9999999999723078,1.0033222591361983,0.0,0.9964949711512547,0
291,235.30277777777778,0.8388888888888744,0.8361111111111086,0.8374999999999915,1.001658374792696,0.024831528402523007,1.0320261142271925,36.111111111111114,0.9999999999723078,0.998341625207304,0.0,0.9958119641977823,0
292,236.13888888888889,0.8361111111111086,0.8138888888888971,0.8374999999999915,0.998341625207304,0.024700395860371305,1.0265760989993016,33.333333333333336,0.923076923051361,0.9718076285240661,0.0,0.9988647354646176,0
293,236.95277777777778,0.8138888888888971,0.7694444444444457,0.8361111111111086,0.9734219269103118,0.025329754406691773,1.0527329446225775,36.111111111111114,0.9999999999723078,0.9202657807309013,0.0,0.9914155784524119,0
294,237.72222222222223,0.7694444444444457,0.8055555555555429,0.8250000000000028,0.932659932659931,0.01884719831126192,0.7833106574005588,33.333333333333336,0.923076923051361,0.9764309764309578,0.0,0.9927953207275344,0
295,238.52777777777777,0.8055555555555429,0.8388888888889028,0.8250000000000028,0.9764309764309578,0.024071229339475482,1.000427234167607,36.111111111111114,0.9999999999723078,1.0168350168350302,0.0,0.9984249659593349,0
296,239.36666666666667,0.8388888888889028,0.8499999999999943,0.8374999999999915,1.00165837479273,0.01886234696666843,0.7839402524750754,33.333333333333336,0.923076923051361,1.014925373134332,0.0,0.9925093838396865,0
297,240.21666666666667,0.8499999999999943,0.8388888888888744,0.8388888888888886,1.0132450331125764,0.024232109377073947,1.0071135886025036,36.111111111111114,0.9999999999723078,0.999999999999983,0.0,0.9994460304468094,0
298,241.05555555555554,0.8388888888888744,0.830555555555577,0.8388888888888744,1.0,0.024171717693905585,1.0046036426538865,36.111111111111114,0.9999999999723078,0.9900662251656056,0.0,0.9976611048298096,0
299,241.88611111111112,0.830555555555577,0.7916666666666572,0.8374999999999915,0.99170812603652,0.026388626909918254,1.0967408710479123,41.666666666666664,1.153846153814201,0.9452736318407944,0.0,0.9948053207031297,0
300,242.67777777777778,0.7916666666666572,0.8000000000000114,0.8333333333333428,0.9499999999999779,0.023813991145429276,0.9897361268974902,36.111111111111114,0.9999999999723078,0.9600000000000027,0.0,0.9950789565248729,0
301,243.4777777777778,0.8000000000000114,0.8027777777777771,0.8222222222222371,0.9729729729729693,0.024077621598230542,1.000692903596294,36.111111111111114,0.9999999999723078,0.976351351351333,0.0,0.9996377159678883,0
302,244.28055555555557,0.8027777777777771,0.8083333333333371,0.80972222222222,0.9914236706689556,0.02418871501994287,1.0053100705490268,36.111111111111114,0.9999999999723078,0.9982847341337981,0.0,0.9984995474277559,0
303,245.0888888888889,0.8083333333333371,0.8277777777777544,0.80694444444444,1.0017211703958793,0.01853967161489804,0.7705295036864243,33.333333333333336,0.923076923051361,1.0258175559380145,0.0,0.9944831645199871,0
304,245.91666666666666,0.8277777777777544,0.8444444444444628,0.8180555555555458,1.0118845500848732,0.0246621583199304,1.0249869040194701,36.111111111111114,0.9999999999723078,1.0322580645161639,0.0,0.9959786669388384,0
305,246.76111111111112,0.8444444444444628,0.8361111111111086,0.8291666666666657,1.0184254606365393,0.024651027178283946,1.0245242813136066,36.111111111111114,0.9999999999723078,1.0083752093802325,0.0,0.9981886994333107,0
306,247.59722222222223,0.8361111111111086,0.7944444444444514,0.8291666666666657,1.0083752093802325,0.02677361532562786,1.11274142052061,41.666666666666664,1.153846153814201,0.9581239530988369,0.0,0.9913206858028596,0
307,248.39166666666668,0.7944444444444514,0.7833333333333314,0.8180555555555458,0.971137521222431,0.022602037779878643,0.9393659884912412,36.111111111111114,0.9999999999723078,0.9575551782682604,0.0,0.9926239413178988,0
308,249.175,0.7833333333333314,0.7916666666666572,0.8055555555555571,0.972413793103444,0.02272051524432752,0.944290044525031,33.333333333333336,0.923076923051361,0.9827586206896415,0.0,0.9961413817374998,0
309,249.96666666666667,0.7916666666666572,0.8277777777777828,0.8013888888888943,0.9878682842287511,0.02496786234793113,1.0376923055963274,36.111111111111114,0.9999999999723078,1.032928942807625,0.0,0.9985867712772268,0
310,250.79444444444445,0.8277777777777828,0.8444444444444343,0.8055555555555571,1.027586206896556,0.023418675383010224,0.9733063613361951,36.111111111111114,0.9999999999723078,1.048275862068951,0.0,0.9987664824612281,0
311,251.63888888888889,0.8444444444444343,0.8194444444444571,0.8180555555555458,1.032258064516129,0.019383028174280895,0.8055803462595891,33.333333333333336,0.923076923051361,1.0016977928692974,0.0,0.99491804596422,0
312,252.45833333333334,0.8194444444444571,0.8472222222222001,0.8236111111111057,0.9949409780775935,0.019723404785271632,0.8197267791943776,33.333333333333336,0.923076923051361,1.0286677908937405,0.0,0.9947727160938826,0
313,253.30555555555554,0.8472222222222001,0.8083333333333371,0.8277777777777686,1.0234899328858906,0.019265077225531346,0.80067817280759,33.333333333333336,0.923076923051361,0.9765100671141094,0.0,0.9944673658911317,0
314,254.11388888888888,0.8083333333333371,0.7777777777777999,0.82361111111112,0.9814502529510902,0.025517548407441835,1.0605378734907327,38.888888888888886,1.0769230768932543,0.9443507588533051,0.0,0.9944466756293622,0
315,254.89166666666668,0.7777777777777999,0.794444444444423,0.8138888888888971,0.9556313993174237,0.023509404981542137,0.977077185004414,36.111111111111114,0.9999999999723078,0.9761092150170286,0.0,0.9967000594580164,0
316,255.6861111111111,0.794444444444423,0.8083333333333655,0.8013888888888943,0.9913344887348019,0.02059260226493771,0.8558515993381393,38.888888888888886,1.0769230768932543,1.008665511265198,0.0,0.9936297494680792,0
317,256.49444444444447,0.8083333333333655,0.8194444444444002,0.8083333333333513,1.0000000000000175,0.01873895596482892,0.7788119843276304,33.333333333333336,0.923076923051361,1.0137457044672766,0.0,0.9933664342753117,0
318,257.31388888888887,0.8194444444444002,0.8666666666666742,0.8138888888888829,1.006825938566506,0.024786154527180974,1.0301403251812025,38.888888888888886,1.0769230768932543,1.0648464163822697,0.0,0.9959418976932257,0
319,258.18055555555554,0.8666666666666742,0.8361111111111086,0.8194444444444287,1.0576271186440975,0.01943287319816894,0.8076519612436878,33.333333333333336,0.923076923051361,1.020338983050864,0.0,0.9943755783227533,0
320,259.01666666666665,0.8361111111111086,0.8000000000000114,0.8194444444444287,1.020338983050864,0.024545223553553756,1.0201269642442974,36.111111111111114,0.9999999999723078,0.9762711864407106,0.0,0.9994039213472141,0
321,259.81666666666666,0.8000000000000114,0.8055555555555429,0.8138888888888829,0.9829351535836389,0.02386353495495858,0.9917952230756918,36.111111111111114,0.9999999999723078,0.9897610921501624,0.0,0.9991378457680167,0
322,260.6222222222222,0.8055555555555429,0.7750000000000341,0.8083333333333513,0.9965635738831237,0.024764979248179202,1.029260256884494,36.111111111111114,0.9999999999723078,0.9587628865979589,0.0,0.9958852980887434,0
323,261.39722222222224,0.7750000000000341,0.8138888888888687,0.80694444444444,0.9604130808950562,0.018595954336737008,0.7728686766030499,33.333333333333336,0.923076923051361,1.0086058519793264,0.0,0.9935346597738826,0
324,262.2111111111111,0.8138888888888687,0.8249999999999886,0.8069444444444542,1.0086058519793086,0.023289068995747574,0.9679197748137116,41.666666666666664,1.153846153814201,1.022375215146273,0.0,0.9890456071937191,0
325,263.0361111111111,0.8249999999999886,0.841666666666697,0.8111111111111171,1.0171232876712113,0.01797832387101964,0.7471992631368267,33.333333333333336,0.923076923051361,1.0376712328767421,0.0,0.9935986068375043,0
326,263.8777777777778,0.841666666666697,0.8388888888888459,0.8166666666666345,1.030612244898037,0.021925709843847667,0.9112570424589693,38.888888888888886,1.0769230768932543,1.0272108843537293,0.0,0.9939562517007527,0
327,264.71666666666664,0.8388888888888459,0.8555555555555543,0.8222222222221944,1.0202702702702524,0.024787381669684055,1.0301913265971656,36.111111111111114,0.9999999999723078,1.040540540540574,0.0,0.996987012097307,0
328,265.5722222222222,0.8555555555555543,0.797222222222274,0.8305555555555486,1.0301003344481676,0.02412942460685493,1.0028458946175987,36.111111111111114,0.9999999999723078,0.9598662207358564,0.0,0.998641837070041,0
329,266.36944444444447,0.797222222222274,0.7722222222221831,0.8194444444444287,0.9728813559322853,0.023016863023348905,0.9566065899218992,36.111111111111114,0.9999999999723078,0.9423728813559026,0.0,0.9951615292466216,0
330,267.14166666666665,0.7722222222221831,0.7750000000000341,0.8097222222222058,0.9536878216123209,0.018465424832901207,0.7674437243225459,33.333333333333336,0.923076923051361,0.95711835334483,0.0,0.9899751663837448,0
331,267.9166666666667,0.7750000000000341,0.8249999999999886,0.8097222222222058,0.95711835334483,0.023420194240831953,0.9733694867673169,36.111111111111114,0.9999999999723078,1.0188679245283085,0.0,0.9967910141456009,0
332,268.7416666666667,0.8249999999999886,0.8416666666666401,0.8194444444444287,1.0067796610169546,0.022602535799800694,0.9393866867566331,41.666666666666664,1.153846153814201,1.027118644067784,0.0,0.9885303349135908,0
333,269.5833333333333,0.8416666666666401,0.8277777777777828,0.8249999999999886,1.0202020202020021,0.02363457093388136,0.982279222081321,36.111111111111114,0.9999999999723078,1.0033670033670232,0.0,0.9988579130523256,0
334,270.4111111111111,0.8277777777777828,0.8249999999999886,0.8263888888888857,1.0016806722689175,0.02415343540439617,1.0038438102385905,36.111111111111114,0.9999999999723078,0.9983193277310825,0.0,0.9972728433578081,0
335,271.2361111111111,0.8249999999999886,0.8111111111111313,0.8263888888888857,0.9983193277310825,0.019091499925318698,0.793464105926459,33.333333333333336,0.923076923051361,0.981512605042045,0.0,0.9904122377776421,0
336,272.0472222222222,0.8111111111111313,0.8083333333333371,0.8249999999999886,0.9831649831650212,0.020572003448148805,0.8549954894562292,36.111111111111114,0.9999999999723078,0.9797979797979979,0.0,0.991957404847454,0
337,272.85555555555555,0.8083333333333371,0.7777777777777715,0.81805555555556,0.9881154499151097,0.022439066028581284,0.9325927000937728,36.111111111111114,0.9999999999723078,0.9507640067911586,0.0,0.9931912997396563,0
338,273.6333333333333,0.7777777777777715,0.7805555555555657,0.8097222222222342,0.960548885077165,0.023686424265439435,0.984434304580076,36.111111111111114,0.9999999999723078,0.9639794168096036,0.0,0.9958508787675906,0
339,274.4138888888889,0.7805555555555657,0.8194444444444571,0.8097222222222342,0.9639794168096036,0.024017312949922272,0.9981864086694027,36.111111111111114,0.9999999999723078,1.0120068610634654,0.0,0.9956032089162454,0
340,275.23333333333335,0.8194444444444571,0.8277777777777828,0.8152777777777942,1.0051107325383257,0.02666473921286879,1.1082164074097987,41.666666666666664,1.153846153814201,1.0153321976149772,0.0,0.9946456972729774,0
341,276.06111111111113,0.8277777777777828,0.5499999999999545,0.8222222222222229,1.0067567567567621,0.023365281610447153,0.9710872563850638,36.111111111111114,0.9999999999723078,0.6689189189188631,0.0,0.998100393130493,0
342,276.6111111111111,0.5499999999999545,0.9722222222222285,0.8152777777777942,0.6746166950595558,0.01973153798718469,0.8200648041693407,38.888888888888886,1.0769230768932543,1.1925042589437658,0.0,0.9880058469273112,0
343,277.5833333333333,0.9722222222222285,0.8000000000000114,0.8152777777777942,1.1925042589437658,0.023309480119224887,0.9687680839515076,36.111111111111114,0.9999999999723078,0.9812606473594491,0.0,0.996531411094363,0
344,278.3833333333333,0.8000000000000114,0.7722222222222399,0.8097222222222342,0.9879931389365345,0.02505967883387965,1.0415083015221287,36.111111111111114,0.9999999999723078,0.9536878216123577,0.0,0.9978334603192328,0
345,279.15555555555557,0.7722222222222399,0.7916666666666288,0.8041666666666742,0.9602763385146934,0.023987141503730946,0.9969324495949268,36.111111111111114,0.9999999999723078,0.9844559585491663,0.0,0.996463103958739,0
346,279.9472222222222,0.7916666666666288,0.8027777777778056,0.7958333333333201,0.9947643979057281,0.023555580629208154,0.9789962966056089,36.111111111111114,0.9999999999723078,1.008726003490453,0.0,0.99513440375848,0
347,280.75,0.8027777777778056,0.8083333333333371,0.7958333333333201,1.008726003490453,0.025488344703672748,1.0593241348745148,38.888888888888886,1.0769230768932543,1.0157068062827441,0.0,0.9967511516713798,0
348,281.55833333333334,0.8083333333333371,0.8138888888888687,0.8013888888889085,1.0086655112651448,0.027684778387498374,1.150610377232676,41.666666666666664,1.153846153814201,1.0155979202772463,0.0,0.9913585942078293,0
349,282.3722222222222,0.8138888888888687,0.8000000000000114,0.8055555555555713,1.010344827586162,0.019424058412402752,0.8072856088808948,33.333333333333336,0.923076923051361,0.9931034482758567,0.0,0.9935382015436374,0
350,283.1722222222222,0.8000000000000114,0.8111111111111313,0.8013888888889085,0.9982668977469569,0.019504675561702992,0.8106361478402264,36.111111111111114,0.9999999999723078,1.012131715771231,0.0,0.9924487463153713,0
351,283.98333333333335,0.8111111111111313,0.7861111111110972,0.8013888888889085,1.012131715771231,0.025150038061845025,1.0452637321750482,36.111111111111114,0.9999999999723078,0.9809358752165965,0.0,0.995797767190263,0
352,284.76944444444445,0.7861111111110972,0.7638888888889142,0.8013888888889085,0.9809358752165965,0.01800039173015952,0.7481164280631359,33.333333333333336,0.923076923051361,0.9532062391681192,0.0,0.9920764590999698,0
353,285.53333333333336,0.7638888888889142,0.783333333333303,0.8000000000000114,0.9548611111111291,0.024739948011748683,1.028219930681091,36.111111111111114,0.9999999999723078,0.9791666666666149,0.0,0.9950828449155771,0
354,286.31666666666666,0.783333333333303,0.8249999999999886,0.7958333333333201,0.9842931937172558,0.01899539594097633,0.7894699167684317,33.333333333333336,0.923076923051361,1.0366492146596888,0.0,0.9947805159032931,0
355,287.14166666666665,0.8249999999999886,0.8277777777777828,0.8013888888889085,1.0294627383015205,0.024667174689388744,1.0251953899489588,36.111111111111114,0.9999999999723078,1.0329289428076067,0.0,0.9993418676672443,0
356,287.96944444444443,0.8277777777777828,0.8194444444444571,0.8055555555555713,1.0275862068965378,0.024200836155587036,1.0058138385135311,36.111111111111114,0.9999999999723078,1.0172413793103405,0.0,0.9980651703912224,0
357,288.7888888888889,0.8194444444444571,0.8249999999999886,0.8097222222222342,1.0120068610634654,0.025320323632683703,1.0523409910989792,38.888888888888886,1.0769230768932543,1.0188679245282728,0.0,0.9941942664218937,0
358,289.6138888888889,0.8249999999999886,0.7916666666666856,0.8125,1.0153846153846013,0.024612284757167466,1.0229141029277875,36.111111111111114,0.9999999999723078,0.9743589743589977,0.0,0.9963418073750643,0
359,290.40555555555557,0.7916666666666856,0.7888888888888914,0.8055555555555713,0.9827586206896595,0.021062666706126703,0.8753880036549739,36.111111111111114,0.9999999999723078,0.9793103448275702,0.0,0.9913954409510133,0
360,291.19444444444446,0.7888888888888914,0.8000000000000114,0.8013888888889085,0.9844020797226828,0.024033505135795913,0.9988593740381522,36.111111111111114,0.9999999999723078,0.9982668977469569,0.0,0.9952949161330604,0
361,291.99444444444447,0.8000000000000114,0.8027777777777487,0.7958333333333485,1.005235602094236,0.02469978118840898,1.0265505525445477,36.111111111111114,0.9999999999723078,1.0087260034903456,0.0,0.99742977964589,0
362,292.7972222222222,0.8027777777777487,0.8333333333333144,0.80138888888888,1.0017331022530078,0.02461013312854968,1.022824678834124,36.111111111111114,0.9999999999723078,1.0398613518197453,0.0,0.9990090682314008,0
363,293.63055555555553,0.8333333333333144,0.8583333333333485,0.8111111111111029,1.0273972602739596,0.0240154835670319,0.9981103774688588,36.111111111111114,0.9999999999723078,1.0582191780822212,0.0,0.9980751422761982,0
364,294.4888888888889,0.8583333333333485,0.8277777777777828,0.8222222222222229,1.0439189189189366,0.020988705432748816,0.8723140903488675,36.111111111111114,0.9999999999723078,1.0067567567567621,0.0,0.991607035590936,0
365,295.31666666666666,0.8277777777777828,0.794444444444423,0.8222222222222229,1.0067567567567621,0.026366141598251618,1.0958063563273386,38.888888888888886,1.0769230768932543,0.9662162162161894,0.0,0.9957697566897508,0
366,296.1111111111111,0.794444444444423,0.7833333333333599,0.8111111111111029,0.979452054794504,0.02603117320030472,1.0818846947800405,38.888888888888886,1.0769230768932543,0.9657534246575767,0.0,0.9969057296511776,0
367,296.89444444444445,0.7833333333333599,0.7694444444444457,0.80138888888888,0.9774696707106159,0.024475381123573812,1.0172242346800124,36.111111111111114,0.9999999999723078,0.9601386481802549,0.0,0.9991963233035828,0
368,297.6638888888889,0.7694444444444457,0.8194444444444571,0.7972222222222172,0.9651567944250948,0.024997925129971132,1.038941748467047,36.111111111111114,0.9999999999723078,1.0278745644599527,0.0,0.9977580027801292,0
369,298.48333333333335,0.8194444444444571,0.8249999999999886,0.80138888888888,1.0225303292894552,0.030467499536038643,1.2662633828533065,44.44444444444444,1.2307692307351479,1.0294627383015569,0.0,0.9812297057719505,0
370,299.30833333333334,0.8249999999999886,0.8166666666666629,0.8111111111111029,1.017123287671229,0.027800489199342505,1.1554194480875106,44.44444444444444,1.2307692307351479,1.0068493150684987,0.0,0.985030234095301,0
371,300.125,0.8166666666666629,0.8249999999999886,0.81805555555556,0.99830220713072,0.024608950012386336,1.022775507202119,36.111111111111114,0.9999999999723078,1.0084889643463304,0.0,0.9996815004154762,0
372,300.95,0.8249999999999886,0.8388888888889028,0.8222222222222229,1.0033783783783639,0.02519502300643252,1.0471333568235512,36.111111111111114,0.9999999999723078,1.0202702702702864,0.0,0.9976832522265202,0
373,301.7888888888889,0.8388888888889028,0.783333333333303,0.8222222222222229,1.0202702702702864,0.01844249923692221,0.766490910893142,33.333333333333336,0.923076923051361,0.9527027027026651,0.0,0.9921346642465956,0
374,302.5722222222222,0.783333333333303,0.7583333333333826,0.81805555555556,0.957555178268209,0.017806581011974982,0.7400614376839191,33.333333333333336,0.923076923051361,0.9269949066214475,0.0,0.9921151307256693,0
375,303.3305555555556,0.7583333333333826,0.7972222222222172,0.8055555555555429,0.9413793103449035,0.024110371667643963,1.0020540331381214,36.111111111111114,0.9999999999723078,0.9896551724138023,0.0,0.9964157968750723,0
376,304.1277777777778,0.7972222222222172,0.7972222222222172,0.80694444444444,0.9879518072289148,0.019386910242367574,0.8057416893544528,33.333333333333336,0.923076923051361,0.9879518072289148,0.0,0.9943817837697009,0
377,304.925,0.7972222222222172,0.8416666666666401,0.80694444444444,0.9879518072289148,0.0209590104217027,0.8710799324522983,36.111111111111114,0.9999999999723078,1.0430292598967026,0.0,0.9917897871434649,0
378,305.76666666666665,0.8416666666666401,0.8277777777777828,0.81805555555556,1.028862478777551,0.024835334878142327,1.0321843156145025,36.111111111111114,0.9999999999723078,1.0118845500848903,0.0,0.9957045732570728,0
379,306.59444444444443,0.8277777777777828,0.830555555555577,0.8208333333333258,1.0084602368866482,0.023931547303558044,0.9946218924094022,36.111111111111114,0.9999999999723078,1.0118443316413215,0.0,0.996288019020187,0
380,307.425,0.830555555555577,0.8055555555555429,0.8208333333333258,1.0118443316413215,0.02480100078802231,1.0307573523991216,36.111111111111114,0.9999999999723078,0.9813874788494015,0.0,0.9964649452869165,0
381,308.23055555555555,0.8055555555555429,0.7805555555555657,0.8152777777777658,0.9880749574105613,0.024063876373468865,1.0001216366702301,36.111111111111114,0.9999999999723078,0.9574105621806057,0.0,0.9962017526402923,0
382,309.0111111111111,0.7805555555555657,0.7777777777777715,0.80138888888888,0.9740034662045294,0.018261188361788683,0.7589554279821437,33.333333333333336,0.923076923051361,0.970537261698443,0.0,0.9920262414833187,0
383,309.7888888888889,0.7777777777777715,0.7972222222222172,0.7972222222222172,0.9756097560975593,0.024009282892052473,0.9978526704763261,36.111111111111114,0.9999999999723078,1.0,0.0,0.9995960380947869,0
384,310.5861111111111,0.7972222222222172,0.8249999999999886,0.7972222222222172,1.0,0.01955222345165135,0.8126122913666199,33.333333333333336,0.923076923051361,1.0348432055749053,0.0,0.9937434363674863,0
385,311.4111111111111,0.8249999999999886,0.8249999999999886,0.80138888888888,1.0294627383015569,0.019263125257611705,0.8005970468360208,33.333333333333336,0.923076923051361,1.0294627383015569,0.0,0.9952682857251964,0
386,312.2361111111111,0.8249999999999886,0.8500000000000227,0.8152777777777658,1.0119250425894388,0.025474777904691638,1.0587602835236025,36.111111111111114,0.9999999999723078,1.042589437819464,0.0,0.9994265833490976,0
387,313.0861111111111,0.8500000000000227,0.8055555555555429,0.8249999999999886,1.030303030303072,0.019810671740511546,0.82335369153166,33.333333333333336,0.923076923051361,0.9764309764309745,0.0,0.9934511051561018,0
388,313.89166666666665,0.8055555555555429,0.7777777777777715,0.8152777777777658,0.9880749574105613,0.01971483948889756,0.8193707958899734,33.333333333333336,0.923076923051361,0.9540034071550318,0.0,0.9905947559229207,0
389,314.6694444444444,0.7777777777777715,0.7805555555555657,0.8055555555555429,0.9655172413793176,0.023580143347268462,0.9800171506611354,33.333333333333336,0.923076923051361,0.968965517241407,0.0,0.9962651018689757,0
390,315.45,0.7805555555555657,0.8000000000000114,0.80138888888888,0.9740034662045294,0.026405292328462643,1.0974335044961454,38.888888888888886,1.0769230768932543,0.9982668977469923,0.0,0.9954733038841188,0
391,316.25,0.8000000000000114,0.8111111111111313,0.7986111111111143,1.001739130434793,0.025568233228624476,1.0626443913903763,38.888888888888886,1.0769230768932543,1.0156521739130648,0.0,0.998847047227793,0
392,317.06111111111113,0.8111111111111313,0.794444444444423,0.8027777777777771,1.0103806228373962,0.02695876001964491,1.1204362412355842,38.888888888888886,1.0769230768932543,0.9896193771626038,0.0,0.9945670913224947,0
393,317.85555555555555,0.794444444444423,0.8000000000000114,0.8027777777777771,0.9896193771626038,0.023758377666879958,0.9874247684810635,36.111111111111114,0.9999999999723078,0.9965397923875582,0.0,0.9992677736173681,0
394,318.65555555555557,0.8000000000000114,0.7916666666666288,0.8027777777777771,0.9965397923875582,0.024327234570541718,1.0110670981162264,36.111111111111114,0.9999999999723078,0.9861591695501266,0.0,0.9982817281752825,0
395,319.4472222222222,0.7916666666666288,0.7750000000000341,0.8000000000000114,0.9895833333332719,0.022529357450859044,0.9363453126664204,38.888888888888886,1.0769230768932543,0.9687500000000289,0.0,0.989569469434233,0
396,320.22222222222223,0.7750000000000341,0.7416666666666742,0.7972222222222172,0.9721254355401187,0.023425694980479205,0.9735981036640099,36.111111111111114,0.9999999999723078,0.9303135888501897,0.0,0.9978169824934023,0
397,320.9638888888889,0.7416666666666742,0.7444444444444116,0.7930555555555259,0.9352014010508326,0.023207121211526904,0.9645139331777133,36.111111111111114,0.9999999999723078,0.9387040280210095,0.0,0.9935190456105818,0
398,321.7083333333333,0.7444444444444116,0.7472222222222626,0.7861111111110972,0.9469964664310704,0.017977253017827637,0.7471547572795659,33.333333333333336,0.923076923051361,0.9505300353357573,0.0,0.9898919870908536,0
399,322.4555555555556,0.7472222222222626,0.7916666666666288,0.7861111111110972,0.9505300353357573,0.018369941280680306,0.7634753210179337,33.333333333333336,0.923076923051361,1.007067137809157,0.0,0.9932172437632836,0
400,323.2472222222222,0.7916666666666288,0.7916666666666856,0.7916666666666288,1.0,0.024434355664951637,1.015519170700063,36.111111111111114,0.9999999999723078,1.0000000000000717,0.0,0.9960724747268908,0
401,324.0388888888889,0.7916666666666856,0.7916666666666856,0.7916666666666288,1.0000000000000717,0.024513507102569915,1.0188087930413277,36.111111111111114,0.9999999999723078,1.0000000000000717,0.0,0.9987808975787369,0
402,324.8305555555556,0.7916666666666856,0.7611111111110631,0.7916666666666288,1.0000000000000717,0.026852808023444735,1.116032757681911,38.888888888888886,1.0769230768932543,0.9614035087719152,0.0,0.9904089163698262,0
403,325.59166666666664,0.7611111111110631,0.7805555555555657,0.7833333333333314,0.9716312056737,0.023079258440450577,0.9591998132955551,36.111111111111114,0.9999999999723078,0.9964539007092351,0.0,0.992666683693697,0
404,326.3722222222222,0.7805555555555657,0.7555555555555884,0.7777777777777999,1.003571428571413,0.023559140093643887,0.9791442319316506,36.111111111111114,0.9999999999723078,0.9714285714285861,0.0,0.9963465526245929,0
405,327.1277777777778,0.7555555555555884,0.7722222222221831,0.7680555555555486,0.9837251356239215,0.02198738278486228,0.9138202389177827,33.333333333333336,0.923076923051361,1.0054249547920016,0.0,0.9915377068319357,0
406,327.9,0.7722222222221831,0.7750000000000341,0.7666666666666231,1.0072463768116005,0.016786867248556676,0.6976809923152137,33.333333333333336,0.923076923051361,1.0108695652174933,0.0,0.9872888924150369,0
407,328.675,0.7750000000000341,0.7888888888888914,0.7736111111111086,1.0017953321364925,0.02361128456701216,0.981311414609911,36.111111111111114,0.9999999999723078,1.0197486535009042,0.0,0.9991815372971314,0
408,329.4638888888889,0.7888888888888914,0.8472222222222285,0.7777777777777999,1.0142857142856887,0.02372875650568555,0.986193679866991,33.333333333333336,0.923076923051361,1.0892857142856915,0.0,0.9967073904512278,0
409,330.31111111111113,0.8472222222222285,0.8444444444444343,0.7847222222222285,1.0796460176991145,0.01910028146385785,0.7938290764972828,33.333333333333336,0.923076923051361,1.076106194690244,0.0,0.9912856313278082,0
410,331.15555555555557,0.8444444444444343,0.8138888888888687,0.7847222222222285,1.076106194690244,0.019402802343736633,0.8064021828753086,33.333333333333336,0.923076923051361,1.0371681415928862,0.0,0.9895820604762302,0
411,331.96944444444443,0.8138888888888687,0.7861111111110972,0.7847222222222285,1.0371681415928862,0.02239073815198789,0.930584139449376,33.333333333333336,0.923076923051361,1.001769911504399,0.0,0.9886566019748892,0
412,332.75555555555553,0.7861111111110972,0.7916666666666856,0.7833333333333314,1.0035460992907648,0.01896327183389313,0.7881348029216849,33.333333333333336,0.923076923051361,1.0106382978723671,0.0,0.9868330646834018,0
413,333.5472222222222,0.7916666666666856,0.830555555555577,0.7874999999999943,1.0052910052910367,0.017035417124727188,0.7080110033696215,30.555555555555557,0.8461538461304142,1.054673721340423,0.0,0.9851541491413569,0
414,334.3777777777778,0.830555555555577,0.8333333333333144,0.7902777777777885,1.0509666080843714,0.018634343564724425,0.7744641758870976,33.333333333333336,0.923076923051361,1.0544815465728967,0.0,0.9936321032157508,0
415,335.2111111111111,0.8333333333333144,0.8722222222222058,0.8027777777777771,1.0380622837370015,0.024260486962299228,1.00829299280737,33.333333333333336,0.923076923051361,1.0865051903113991,0.0,0.9982073601481118,0
416,336.0833333333333,0.8722222222222058,0.8611111111111427,0.8222222222222229,1.06081081081079,0.025820577243269,1.073132091086526,38.888888888888886,1.0769230768932543,1.047297297297335,0.0,0.9917741089256679,0
417,336.94444444444446,0.8611111111111427,0.8444444444444343,0.8319444444444457,1.0350584307178996,0.025474940449856483,1.0587670390825896,38.888888888888886,1.0769230768932543,1.0150250417362134,0.0,0.990226031338834,0
418,337.7888888888889,0.8444444444444343,0.7916666666666856,0.8388888888888744,1.0066225165562968,0.025253040471522947,1.0495446276113976,36.111111111111114,0.9999999999723078,0.9437086092715621,0.0,0.9953928211214289,0
419,338.5805555555556,0.7916666666666856,0.7805555555555088,0.8319444444444457,0.9515859766277341,0.024397536982586877,1.0139889450499977,36.111111111111114,0.9999999999723078,0.9382303839732312,0.0,0.9965179391324013,0
420,339.3611111111111,0.7805555555555088,0.8083333333333371,0.8222222222222229,0.9493243243242667,0.023343669686586244,0.9701890406392749,36.111111111111114,0.9999999999723078,0.983108108108112,0.0,0.9977511371152077,0
421,340.1694444444444,0.8083333333333371,0.8027777777778056,0.8194444444444571,0.9864406779660911,0.025837025241932432,1.0738156883211494,38.888888888888886,1.0769230768932543,0.9796610169491714,0.0,0.993733502618673,0
422,340.97222222222223,0.8027777777778056,0.8333333333333144,0.8194444444444571,0.9796610169491714,0.02363784157340841,0.9824151535208774,36.111111111111114,0.9999999999723078,1.016949152542334,0.0,0.9943417912761089,0
423,341.80555555555554,0.8333333333333144,0.8611111111111427,0.8319444444444457,1.0016694490817788,0.023055544781778736,0.9582142470985616,36.111111111111114,0.9999999999723078,1.0350584307178996,0.0,0.9968690555704598,0
424,342.6666666666667,0.8611111111111427,0.8444444444444343,0.8333333333333144,1.0333333333333947,0.0186910160159529,0.7768195463933734,33.333333333333336,0.923076923051361,1.0133333333333443,0.0,0.9933079501822506,0
425,343.5111111111111,0.8444444444444343,0.7555555555555316,0.8388888888888744,1.0066225165562968,0.01820938665510313,0.7568024910708742,33.333333333333336,0.923076923051361,0.9006622516556161,0.0,0.9916547612355315,0
426,344.26666666666665,0.7555555555555316,0.7916666666666856,0.8208333333333258,0.9204737732656307,0.022918050113220397,0.9524998147761115,33.333333333333336,0.923076923051361,0.9644670050761741,0.0,0.9925910117523453,0
427,345.05833333333334,0.7916666666666856,0.794444444444423,0.8055555555555713,0.9827586206896595,0.025596557666477535,1.0638215867309655,38.888888888888886,1.0769230768932543,0.9862068965516781,0.0,0.9941343733351956,0
428,345.85277777777776,0.794444444444423,0.7444444444444684,0.7986111111111143,0.9947826086956213,0.02405907436424663,0.9999220597920867,36.111111111111114,0.9999999999723078,0.9321739130435046,0.0,0.9959248362032658,0
429,346.59722222222223,0.7444444444444684,0.7888888888888914,0.7986111111111143,0.9321739130435046,0.023310004548191297,0.9687898798063426,33.333333333333336,0.923076923051361,0.987826086956521,0.0,0.9905175342790122,0
430,347.3861111111111,0.7888888888888914,0.8222222222221944,0.7986111111111143,0.987826086956521,0.024850045741054125,1.0327957155429197,33.333333333333336,0.923076923051361,1.0295652173912655,0.0,0.9980626430707009,0
431,348.2083333333333,0.8222222222221944,0.8166666666666629,0.7986111111111143,1.0295652173912655,0.025166344012713514,1.0459414257443203,36.111111111111114,0.9999999999723078,1.0226086956521652,0.0,0.9971205912117365,0
432,349.025,0.8166666666666629,0.7694444444444457,0.8055555555555429,1.013793103448287,0.01823287432160845,0.7577786647804751,33.333333333333336,0.923076923051361,0.95517241379312,0.0,0.9896454835988631,0
433,349.7944444444444,0.7694444444444457,0.7694444444444457,0.7930555555555543,0.9702276707530679,0.01749588419239517,0.7271485301006259,33.333333333333336,0.923076923051361,0.9702276707530679,0.0,0.9883227336801392,0
434,350.56388888888887,0.7694444444444457,0.7583333333333258,0.7902777777777885,0.973637961335665,0.022890045204018567,0.9513358994039142,33.333333333333336,0.923076923051361,0.9595782073813482,0.0,0.99469053735984,0
435,351.3222222222222,0.7583333333333258,0.75,0.7791666666666686,0.9732620320855494,0.023168622729823587,0.9629138931869455,36.111111111111114,0.9999999999723078,0.9625668449197837,0.0,0.9946970063362189,0
436,352.0722222222222,0.75,0.7750000000000341,0.7791666666666686,0.9625668449197837,0.023329782979859076,0.9696118935643653,33.333333333333336,0.923076923051361,0.9946524064171537,0.0,0.9918900841259728,0
437,352.84722222222223,0.7750000000000341,0.8000000000000114,0.7722222222222399,1.0035971223021793,0.01839828119773298,0.7646531596913849,33.333333333333336,0.923076923051361,1.0359712230215736,0.0,0.9925916728598763,0
438,353.64722222222224,0.8000000000000114,0.8055555555555429,0.7722222222222399,1.0359712230215736,0.023713326381970722,0.9855523866545346,36.111111111111114,0.9999999999723078,1.043165467625859,0.0,0.9942776127671854,0
439,354.4527777777778,0.8055555555555429,0.8027777777777487,0.7819444444444628,1.0301953818827305,0.024342965328898014,1.0117208860408813,36.111111111111114,0.9999999999723078,1.0266429840141484,0.0,0.9943713197428408,0
440,355.25555555555553,0.8027777777777487,0.5388888888888914,0.7875000000000227,1.0194003527336197,0.02771403496676903,1.1518263134139224,41.666666666666664,1.153846153814201,0.6843033509700011,0.0,0.9897865770319538,0
441,355.7944444444444,0.5388888888888914,0.9333333333333371,0.7722222222222399,0.6978417266186924,0.023209446609540472,0.9646105793219647,41.666666666666664,1.153846153814201,1.208633093525157,1.0,0.9846571883123043,1
442,356.72777777777776,0.9333333333333371,0.7666666666667084,0.7722222222222399,1.208633093525157,0.02523039562303173,1.0486034823618253,38.888888888888886,1.0769230768932543,0.9928057553957147,0.0,0.9979814464025176,0
443,357.49444444444447,0.7666666666667084,0.7222222222221717,0.7722222222222399,0.9928057553957147,0.025986277598509425,1.0800187833179824,36.111111111111114,0.9999999999723078,0.9352517985610642,0.0,0.9978587672152819,0
444,358.21666666666664,0.7222222222221717,0.7555555555555884,0.7708333333333712,0.9369369369368253,0.024781317376809588,1.0299392877975668,36.111111111111114,0.9999999999723078,0.9801801801801746,0.0,0.9960169213558839,0
445,358.97222222222223,0.7555555555555884,0.8027777777777487,0.7708333333333712,0.9801801801801746,0.02788738626658043,1.1590309874654163,41.666666666666664,1.153846153814201,1.0414414414413526,0.0,0.9872077501852007,0
446,359.775,0.8027777777777487,0.7750000000000341,0.7875000000000227,1.0194003527336197,0.025014676173485604,1.0396379405848764,36.111111111111114,0.9999999999723078,0.9841269841269991,0.0,0.9954600447033658,0
447,360.55,0.7750000000000341,0.7194444444444343,0.7875000000000227,0.9841269841269991,0.025048371842288485,1.0410383702957349,36.111111111111114,0.9999999999723078,0.913580246913541,0.0,0.9950221355414443,0
448,361.26944444444445,0.7194444444444343,0.7250000000000227,0.7708333333333712,0.9333333333332743,0.025510547870106124,1.0602469233233904,36.111111111111114,0.9999999999723078,0.9405405405405238,0.0,0.9979581027683946,0
449,361.99444444444447,0.7250000000000227,0.6944444444444002,0.7611111111111484,0.9525547445255307,0.025154398975086756,1.0454449766105252,36.111111111111114,0.9999999999723078,0.9124087591239848,0.0,0.9983738477427513,0
450,362.68888888888887,0.6944444444444002,0.6972222222222513,0.7402777777778056,0.9380863039398676,0.023599291183897707,0.9808129561835345,36.111111111111114,0.9999999999723078,0.9418386491557262,0.0,0.9992649166263938,0
451,363.3861111111111,0.6972222222222513,0.7083333333333144,0.7402777777778056,0.9418386491557262,0.02032461169202758,0.8447136111673483,36.111111111111114,0.9999999999723078,0.9568480300187002,0.0,0.9903704179041515,0
452,364.09444444444443,0.7083333333333144,0.7027777777777828,0.7236111111110972,0.9788867562379965,0.019639494200613058,0.8162393613752263,33.333333333333336,0.923076923051361,0.971209213051849,0.0,0.9936943207232878,0
453,364.7972222222222,0.7027777777777828,0.7138888888889028,0.720833333333303,0.974951830443208,0.01903435975190929,0.7910892963628242,36.111111111111114,0.9999999999723078,0.9903660886320456,0.0,0.9918528368155197,0
454,365.5111111111111,0.7138888888889028,0.7472222222222058,0.7166666666666686,0.9961240310077687,0.024124300193641177,1.0026329182687024,36.111111111111114,0.9999999999723078,1.042635658914703,0.0,0.995740082976615,0
455,366.2583333333333,0.7472222222222058,0.7472222222222058,0.7166666666666686,1.042635658914703,0.03008977917170346,1.2505649017308273,50.0,1.3846153845770415,1.042635658914703,0.0,0.9671575748640985,0
456,367.00555555555553,0.7472222222222058,0.7194444444444912,0.7166666666666686,1.042635658914703,0.025590924269847985,1.063587456461606,36.111111111111114,0.9999999999723078,1.0038759689923107,0.0,0.9981293540448275,0
457,367.725,0.7194444444444912,0.6888888888888687,0.7166666666666686,1.0038759689923107,0.019345443650410334,0.8040182913793396,33.333333333333336,0.923076923051361,0.9612403100774887,0.0,0.9929488158794306,0
458,368.4138888888889,0.6888888888888687,0.705555555555577,0.7111111111111086,0.968749999999975,0.023628482615413365,0.9820261847511635,33.333333333333336,0.923076923051361,0.9921875000000338,0.0,0.9951558310525794,0
459,369.11944444444447,0.705555555555577,0.6916666666666629,0.7069444444444457,0.9980353634577889,0.01866908994993381,0.7759082745478726,33.333333333333336,0.923076923051361,0.9783889980353564,0.0,0.9923800016068974,0
460,369.81111111111113,0.6916666666666629,0.7166666666666401,0.7069444444444457,0.9783889980353564,0.01832079132355112,0.7614325937863182,33.333333333333336,0.923076923051361,1.0137524557956386,0.0,0.9878319638668946,0
461,370.52777777777777,0.7166666666666401,0.7583333333333258,0.7111111111111086,1.0078124999999662,0.018871420395821258,0.7843173543465154,33.333333333333336,0.923076923051361,1.0664062499999931,0.0,0.993470376283726,0
462,371.2861111111111,0.7583333333333258,0.75,0.7152777777777715,1.0601941747572803,0.020871457813332737,0.8674411480512009,36.111111111111114,0.9999999999723078,1.0485436893203977,0.0,0.9911890201841109,0
463,372.0361111111111,0.75,0.7333333333333485,0.7180555555555657,1.0444874274661362,0.024910471718283974,1.0353070867911174,36.111111111111114,0.9999999999723078,1.0212765957446877,0.0,0.9991645884100359,0
464,372.76944444444445,0.7333333333333485,0.7416666666666742,0.7263888888889198,1.0095602294454846,0.024437768451529042,1.0156610099301366,36.111111111111114,0.9999999999723078,1.0210325047800817,0.0,0.9991179161534538,0
465,373.5111111111111,0.7416666666666742,0.7583333333333258,0.7263888888889198,1.0210325047800817,0.019556324149507885,0.8127827209594304,33.333333333333336,0.923076923051361,1.0439770554492758,0.0,0.9930947690518872,0
466,374.26944444444445,0.7583333333333258,0.7027777777777828,0.7263888888889198,1.0439770554492758,0.02557005644574196,1.0627201663344976,36.111111111111114,0.9999999999723078,0.967495219885243,0.0,0.9957597677410852,0
467,374.97222222222223,0.7027777777777828,0.7027777777777828,0.7249999999999943,0.969348659003846,0.01879014632393344,0.7809395129491536,33.333333333333336,0.923076923051361,0.969348659003846,0.0,0.9913834464669096,0
468,375.675,0.7027777777777828,0.7277777777777601,0.7249999999999943,0.969348659003846,0.024279844888445222,1.0090975298852374,36.111111111111114,0.9999999999723078,1.0038314176245045,0.0,0.9923154081726097,0
469,376.40277777777777,0.7277777777777601,0.7666666666666515,0.7305555555555543,0.9961977186311562,0.01967102838307395,0.8175499572943701,33.333333333333336,0.923076923051361,1.0494296577946578,0.0,0.9901476000334015,0
470,377.1694444444444,0.7666666666666515,0.7777777777777715,0.7375000000000114,1.0395480225988334,0.01937784622522105,0.8053649786565296,36.111111111111114,0.9999999999723078,1.0546139359698434,0.0,0.9912237059779069,0
471,377.9472222222222,0.7777777777777715,0.8055555555555998,0.7458333333333371,1.0428305400372302,0.024731934252656226,1.0278868698834438,36.111111111111114,0.9999999999723078,1.0800744878957707,0.0,0.9983056828068277,0
472,378.7527777777778,0.8055555555555998,0.7749999999999773,0.7458333333333371,1.0800744878957707,0.019148146867383257,0.7958184162433302,33.333333333333336,0.923076923051361,1.0391061452513608,0.0,0.9918938655060092,0
473,379.52777777777777,0.7749999999999773,0.7472222222222058,0.75,1.033333333333303,0.026168342244626754,1.08758559379476,38.888888888888886,1.0769230768932543,0.9962962962962744,0.0,0.9968776380165282,0
474,380.275,0.7472222222222058,0.7555555555555884,0.7527777777777658,0.992619926199256,0.023618346995348188,0.9816049370365008,36.111111111111114,0.9999999999723078,1.0036900369004287,0.0,0.9934423135918244,0
475,381.03055555555557,0.7555555555555884,0.7722222222222399,0.7569444444444571,0.9981651376147056,0.018693893409683797,0.7769391340974834,33.333333333333336,0.923076923051361,1.0201834862385384,0.0,0.9895329930056731,0
476,381.8027777777778,0.7722222222222399,0.7777777777777715,0.76111111111112,1.014598540145997,0.018079484366329137,0.751403606550378,33.333333333333336,0.923076923051361,1.021897810218958,0.0,0.9859717988005144,0
477,382.5805555555556,0.7777777777777715,0.7749999999999773,0.7694444444444457,1.0108303249097375,0.026259112623072157,1.0913581123218283,38.888888888888886,1.0769230768932543,1.007220216606467,0.0,0.9966347491279395,0
478,383.35555555555555,0.7749999999999773,0.8222222222222513,0.7736111111111086,1.001795332136419,0.024303228487353293,1.0100693784290142,36.111111111111114,0.9999999999723078,1.0628366247756245,0.0,0.9987242075644498,0
479,384.1777777777778,0.8222222222222513,0.8194444444444002,0.7749999999999773,1.0609318996416457,0.02424329125594603,1.007578320004254,36.111111111111114,0.9999999999723078,1.05734767025087,0.0,0.9962287044704885,0
480,384.9972222222222,0.8194444444444002,0.8027777777778056,0.7763888888888744,1.0554561717352042,0.02822824900442854,1.173197624376517,41.666666666666664,1.153846153814201,1.0339892665474613,0.0,0.9914538871320391,0
481,385.8,0.8027777777778056,0.7666666666666515,0.7763888888888744,1.0339892665474613,0.025263209743720677,1.0499672739463561,36.111111111111114,0.9999999999723078,0.9874776386404283,0.0,0.9927856280939859,0
482,386.56666666666666,0.7666666666666515,0.7666666666666515,0.7749999999999773,0.9892473118279664,0.018094060365080114,0.7520094013733186,33.333333333333336,0.923076923051361,0.9892473118279664,0.0,0.984972981080953,0
483,387.3333333333333,0.7666666666666515,0.7750000000000341,0.7736111111111086,0.9910233393177574,0.02452711184623718,1.0193742214158676,33.333333333333336,0.923076923051361,1.0017953321364925,0.0,0.9936898711114315,0
484,388.10833333333335,0.7750000000000341,0.8083333333333371,0.7750000000000057,1.0000000000000366,0.024763143722998184,1.0291839704034758,36.111111111111114,0.9999999999723078,1.0430107526881693,0.0,0.9928588916815237,0
485,388.9166666666667,0.8083333333333371,0.8111111111110745,0.7763888888889028,1.041144901610004,0.018333904034318067,0.7619775727227909,33.333333333333336,0.923076923051361,1.0447227191412578,0.0,0.9865427258927121,0
486,389.72777777777776,0.8111111111110745,0.8250000000000455,0.7902777777777885,1.0263620386642631,0.028631343939001175,1.1899507010397075,41.666666666666664,1.153846153814201,1.043936731107249,0.0,0.9893718357064281,0
487,390.5527777777778,0.8250000000000455,0.783333333333303,0.8055555555555713,1.0241379310345191,0.024890683356796367,1.0344846603386681,36.111111111111114,0.9999999999723078,0.9724137931033916,0.0,0.998637417011426,0
488,391.3361111111111,0.783333333333303,0.7527777777777942,0.8055555555555713,0.9724137931033916,0.02445379483371304,1.0163270843119614,36.111111111111114,0.9999999999723078,0.9344827586206917,0.0,0.994526308853708,0
489,392.0888888888889,0.7527777777777942,0.7527777777777374,0.7930555555555543,0.949211908931721,0.024129613670814957,1.0028537523273957,36.111111111111114,0.9999999999723078,0.9492119089316493,0.0,0.9934712371783411,0
490,392.84166666666664,0.7527777777777374,0.7250000000000227,0.7791666666666686,0.9661319073083237,0.024786722662935547,1.0301639375390743,36.111111111111114,0.9999999999723078,0.9304812834224868,0.0,0.9946182673941488,0
491,393.56666666666666,0.7250000000000227,0.7194444444444343,0.7708333333333428,0.9405405405405585,0.02761813339024915,1.1478405365515518,38.888888888888886,1.0769230768932543,0.9333333333333087,0.0,0.9935920125555391,0
492,394.2861111111111,0.7194444444444343,0.7333333333333485,0.7708333333333428,0.9333333333333087,0.017468595269927938,0.7260143719385193,30.555555555555557,0.8461538461304142,0.9513513513513593,0.0,0.9846521440040925,0
493,395.01944444444445,0.7333333333333485,0.7555555555555316,0.7638888888889142,0.9599999999999881,0.02465503042494239,1.0246906607255475,36.111111111111114,0.9999999999723078,0.989090909090845,0.0,0.996490418584443,0
494,395.775,0.7555555555555316,0.7444444444444684,0.7541666666666629,1.0018416206261243,0.02462802106542508,1.0235681215125532,36.111111111111114,0.9999999999723078,0.9871086556169797,0.0,0.9946232147229878,0
495,396.51944444444445,0.7444444444444684,0.7333333333333485,0.7527777777777658,0.9889298892989407,0.018174639267406645,0.7553583507456131,33.333333333333336,0.923076923051361,0.9741697416974526,0.0,0.99150225707061,0
496,397.2527777777778,0.7333333333333485,0.7055555555555202,0.7486111111111029,0.9795918367347248,0.02048179605106078,0.851246369064516,36.111111111111114,0.9999999999723078,0.9424860853431913,0.0,0.9904408730832167,0
497,397.9583333333333,0.7055555555555202,0.6944444444444571,0.7388888888889085,0.9548872180450396,0.01773756626600741,0.7371931075936113,33.333333333333336,0.923076923051361,0.9398496240601426,0.0,0.9853295411729222,0
498,398.65277777777777,0.6944444444444571,0.6972222222222513,0.7333333333333485,0.9469696969696946,0.01821026935386221,0.7568391770193024,33.333333333333336,0.923076923051361,0.9507575757575957,0.0,0.9887707650925058,0
499,399.35,0.6972222222222513,0.7194444444444343,0.7291666666666856,0.9561904761904911,0.024503987175636524,1.0184131342223643,36.111111111111114,0.9999999999723078,0.9866666666666272,0.0,0.9985101261986282,0
500,400.06944444444446,0.7194444444444343,0.7249999999999659,0.7222222222222285,0.9961538461538234,0.023870154705729486,0.992070347327188,36.111111111111114,0.9999999999723078,1.0038461538460979,0.0,0.992279374411476,0
501,400.7944444444444,0.7249999999999659,0.7555555555555884,0.7222222222222001,1.0038461538461374,0.018813845684154343,0.781924484886522,33.333333333333336,0.923076923051361,1.0461538461539237,0.0,0.9925856667362876,0
502,401.55,0.7555555555555884,0.76111111111112,0.7291666666666572,1.0361904761905347,0.019129133180684165,0.7950281861421817,33.333333333333336,0.923076923051361,1.0438095238095495,0.0,0.9926299335935482,0
503,402.31111111111113,0.76111111111112,0.7777777777777715,0.7291666666666572,1.0438095238095495,0.025345626522573748,1.0533926075242206,36.111111111111114,0.9999999999723078,1.0666666666666718,0.0,0.9944669978876771,0
504,403.0888888888889,0.7777777777777715,0.75,0.7291666666666572,1.0666666666666718,0.01865355890103192,0.7752627867716768,30.555555555555557,0.8461538461304142,1.028571428571442,0.0,0.9903263460849678,0
505,403.8388888888889,0.75,0.7361111111110858,0.7291666666666572,1.028571428571442,0.018507697387220884,0.7692006189955521,33.333333333333336,0.923076923051361,1.009523809523788,0.0,0.9898702457154858,0
506,404.575,0.7361111111110858,0.7111111111111086,0.7305555555555259,1.0076045627376489,0.023889101175240866,0.9928577838067792,33.333333333333336,0.923076923051361,0.973384030418287,0.0,0.9951954709067712,0
507,405.2861111111111,0.7111111111111086,0.7416666666666742,0.7305555555555259,0.973384030418287,0.01840433176145105,0.7649046278918766,33.333333333333336,0.923076923051361,1.0152091254753368,0.0,0.9873142932825592,0
508,406.02777777777777,0.7416666666666742,0.7638888888889142,0.73888888888888,1.003759398496263,0.02338393571537091,0.9718625418651511,33.333333333333336,0.923076923051361,1.033834586466212,0.0,0.9932403207205812,0
509,406.7916666666667,0.7638888888889142,0.8111111111110745,0.7458333333333371,1.024208566108036,0.02511923061585911,1.0439833402372374,36.111111111111114,0.9999999999723078,1.0875232774673569,0.0,0.9961198866352431,0
510,407.60277777777776,0.8111111111110745,0.7666666666667084,0.7527777777777942,1.077490774907677,0.02606918967529856,1.0834647020324544,36.111111111111114,0.9999999999723078,1.018450184501878,0.0,0.9959499091692089,0
511,408.36944444444447,0.7666666666667084,0.7694444444444457,0.7583333333333542,1.0109890109890383,0.025260446862466628,1.0498524455089573,33.333333333333336,0.923076923051361,1.0146520146519884,0.0,0.9982977976321308,0
512,409.1388888888889,0.7694444444444457,0.7638888888888573,0.762500000000017,1.0091074681238406,0.025440904469280327,1.0573524656335243,36.111111111111114,0.9999999999723078,1.0018214936247085,0.0,0.9961733004065282,0
513,409.90277777777777,0.7638888888888573,0.7444444444444684,0.7638888888888857,0.9999999999999628,0.02409826566931549,1.0015508942974005,33.333333333333336,0.923076923051361,0.97454545454549,0.0,0.9978449650398667,0
514,410.64722222222224,0.7444444444444684,0.73888888888888,0.7569444444444287,0.9834862385321623,0.01835349253796681,0.7627916928597568,33.333333333333336,0.923076923051361,0.9761467889908344,0.0,0.9878475756185617,0
515,411.3861111111111,0.73888888888888,0.7361111111110858,0.7541666666666629,0.979742173112332,0.025434231699458684,1.0570751378509353,36.111111111111114,0.9999999999723078,0.9760589318600082,0.0,0.9978345037295582,0
516,412.1222222222222,0.7361111111110858,0.76111111111112,0.7541666666666629,0.9760589318600082,0.02928251244968373,1.2170139931936672,44.44444444444444,1.2307692307351479,1.0092081031307718,0.0,0.9875187387999498,0
517,412.8833333333333,0.76111111111112,0.7722222222222399,0.7624999999999886,0.9981785063752542,0.019587481481096257,0.8140776545345045,36.111111111111114,0.9999999999723078,1.0127504553734445,0.0,0.9911458232627575,0
518,413.65555555555557,0.7722222222222399,0.8027777777777487,0.7638888888888857,1.0109090909091183,0.025524035382506558,1.0608074794352647,36.111111111111114,0.9999999999723078,1.0509090909090573,0.0,0.9950475419593252,0
519,414.4583333333333,0.8027777777777487,0.7861111111111541,0.7652777777777828,1.0490018148819877,0.024062292635256513,1.0000558147374536,41.666666666666664,1.153846153814201,1.0272232304900675,0.0,0.9885416397611149,0
520,415.24444444444447,0.7861111111111541,0.7805555555555088,0.7652777777777828,1.0272232304900675,0.024413920263432923,1.014669852539692,36.111111111111114,0.9999999999723078,1.019963702359279,0.0,0.9938516063078918,0
521,416.025,0.7805555555555088,0.7250000000000227,0.7666666666666515,1.0181159420289447,0.018825522854789844,0.782409801168338,33.333333333333336,0.923076923051361,0.9456521739130919,0.0,0.9916751762358278,0
522,416.75,0.7250000000000227,0.7583333333333258,0.7624999999999886,0.9508196721311916,0.024398778776528917,1.0140405553961631,33.333333333333336,0.923076923051361,0.9945355191256879,0.0,0.9940731634317737,0
523,417.5083333333333,0.7583333333333258,0.7555555555555884,0.7597222222222229,0.9981718464350897,0.02590328895251403,1.0765696823015944,36.111111111111114,0.9999999999723078,0.9945155393053441,0.0,0.9955478011046497,0
524,418.2638888888889,0.7555555555555884,0.7611111111110631,0.7597222222222229,0.9945155393053441,0.02417833516637116,1.0048786722164629,36.111111111111114,0.9999999999723078,1.0018281535648355,0.0,0.9939357061145624,0
525,419.025,0.7611111111110631,0.7583333333333826,0.7611111111110915,0.9999999999999627,0.025078697445545813,1.0422987363104212,36.111111111111114,0.9999999999723078,0.996350364963594,0.0,0.9958897315456559,0
526,419.78333333333336,0.7583333333333826,0.7916666666666288,0.7611111111110915,0.996350364963594,0.024140401558953726,1.0033021090332779,36.111111111111114,0.9999999999723078,1.0401459854014368,0.0,0.9948368531686484,0
527,420.575,0.7916666666666288,0.8138888888889255,0.7666666666666515,1.032608695652145,0.024803186745780758,1.0308482032502952,36.111111111111114,0.9999999999723078,1.0615942028986194,0.0,0.9951081528415725,0
528,421.3888888888889,0.8138888888889255,0.7611111111110631,0.770833333333286,1.0558558558559683,0.02831632864044871,1.1768583126366567,44.44444444444444,1.2307692307351479,0.9873873873873857,0.0,0.9911263258904651,0
529,422.15,0.7611111111110631,0.7305555555555543,0.7611111111110631,1.0,0.024414106278548425,1.0146775835360982,36.111111111111114,0.9999999999723078,0.959854014598599,0.0,0.9967966293973958,0
530,422.88055555555553,0.7305555555555543,0.76111111111112,0.7597222222222229,0.9616087751371091,0.02425743746709345,1.0081662523733317,33.333333333333336,0.923076923051361,1.0018281535649103,0.0,0.9969252857561302,0
531,423.64166666666665,0.76111111111112,0.75,0.7597222222222229,1.0018281535649103,0.018287590841332465,0.7600527445841601,33.333333333333336,0.923076923051361,0.9872029250457031,0.0,0.9914243786657947,0
532,424.39166666666665,0.75,0.7944444444444798,0.7597222222222229,0.9872029250457031,0.024716794063470812,1.0272576266745523,36.111111111111114,0.9999999999723078,1.045703839122532,0.0,0.9942490093810398,0
533,425.18611111111113,0.7944444444444798,0.8194444444444002,0.7611111111110631,1.0437956204380685,0.024459083283778466,1.0165468782160187,33.333333333333336,0.923076923051361,1.0766423357664332,0.0,0.9965233944221499,0
534,426.00555555555553,0.8194444444444002,0.7833333333333599,0.7611111111110915,1.076642335766393,0.02469404719328474,1.0263122412891492,36.111111111111114,0.9999999999723078,1.029197080292032,0.0,0.9953094052364128,0
535,426.7888888888889,0.7833333333333599,0.7722222222222399,0.7722222222222399,1.014388489208644,0.023709394376622336,0.9853889681111797,36.111111111111114,0.9999999999723078,1.0,0.0,0.9974997621366212,0
536,427.56111111111113,0.7722222222222399,0.7527777777777374,0.7777777777777999,0.9928571428571373,0.025089037256587815,1.042728470430631,36.111111111111114,0.9999999999723078,0.9678571428570634,0.0,0.9943093501453999,0
537,428.31388888888887,0.7527777777777374,0.7694444444444457,0.7666666666666799,0.9818840579709448,0.018730859012140944,0.7784754659110353,33.333333333333336,0.923076923051361,1.0036231884057814,0.0,0.9932372926762141,0
538,429.0833333333333,0.7694444444444457,0.7527777777777942,0.7652777777777828,1.0054446460979987,0.024136186465002964,1.0031269250107484,36.111111111111114,0.9999999999723078,0.9836660617060041,0.0,0.9950911335422474,0
539,429.8361111111111,0.7527777777777942,0.7444444444444684,0.7652777777777828,0.9836660617060041,0.023751662834924303,0.9871456925491052,36.111111111111114,0.9999999999723078,0.9727767695100068,0.0,0.9922722194671787,0
540,430.5805555555556,0.7444444444444684,0.783333333333303,0.7652777777777828,0.9727767695100068,0.023428004240435816,0.9736940790925509,33.333333333333336,0.923076923051361,1.023593466424636,0.0,0.9944084150608119,0
541,431.3638888888889,0.783333333333303,0.8249999999999886,0.7708333333333428,1.0162162162161643,0.024861669464365913,1.0332788104941388,36.111111111111114,0.9999999999723078,1.0702702702702425,0.0,0.9951173061242315,0
542,432.18888888888887,0.8249999999999886,0.7694444444444457,0.7777777777777715,1.0607142857142797,0.025857746022568216,1.0746768671570495,38.888888888888886,1.0769230768932543,0.989285714285724,0.0,0.9958550689153555,0
543,432.9583333333333,0.7694444444444457,0.7416666666666742,0.7708333333333428,0.9981981981981876,0.020263006871650856,0.8421532458784926,33.333333333333336,0.923076923051361,0.9621621621621602,0.0,0.9900247909837926,0
544,433.7,0.7416666666666742,0.7305555555555543,0.7694444444444457,0.9638989169675173,0.024179291444004995,1.0049184161852824,36.111111111111114,0.9999999999723078,0.9494584837545095,0.0,0.9957407567228369,0
545,434.43055555555554,0.7305555555555543,0.7027777777777828,0.76111111111112,0.9598540145985274,0.018940725940198716,0.7871977703442274,33.333333333333336,0.923076923051361,0.9233576642335726,0.0,0.9905505784097219,0
546,435.1333333333333,0.7027777777777828,0.716666666666697,0.7527777777777658,0.9335793357933795,0.018114588826907543,0.7528625872242818,33.333333333333336,0.923076923051361,0.9520295202952584,0.0,0.9892070321978724,0
547,435.85,0.716666666666697,0.7305555555555543,0.7486111111111313,0.9573283858998292,0.01847071676052599,0.7676636627578628,33.333333333333336,0.923076923051361,0.9758812615955192,0.0,0.9901839292931643,0
548,436.5805555555556,0.7305555555555543,0.7277777777777601,0.7430555555555713,0.9831775700934353,0.01977137770983573,0.8217205876351409,36.111111111111114,0.9999999999723078,0.9794392523364039,0.0,0.9920723022388953,0
549,437.30833333333334,0.7277777777777601,0.7333333333333485,0.7361111111111143,0.9886792452829906,0.02119926186901531,0.8810650515149775,36.111111111111114,0.9999999999723078,0.9962264150943559,0.0,0.9903149563226535,0
550,438.0416666666667,0.7333333333333485,0.7333333333332916,0.7319444444444514,1.0018975332068423,0.02449447913838315,1.0180179695518108,36.111111111111114,0.9999999999723078,1.0018975332067646,0.0,0.9958824672955688,0
551,438.775,0.7333333333332916,0.7638888888889142,0.731944444444423,1.0018975332068036,0.025301077587481617,1.0515411039183684,33.333333333333336,0.923076923051361,1.0436432637571809,0.0,0.9966269426535863,0
552,439.5388888888889,0.7638888888889142,0.7111111111111086,0.731944444444423,1.0436432637571809,0.024252849989884032,1.0079755916857656,41.666666666666664,1.153846153814201,0.9715370018975582,0.0,0.9871691440180406,0
