beat_index,peak_time_s,rr_prev_s,rr_next_s,rr_baseline_s,prematurity_index,aa_ratio,morph_index,qrs_width_ms,width_index,pause_index,pvc_score,morphology_score,is_pvc_candidate
0,0.23055555555555557,,0.8694444444444445,0.9777777777777601,,0.022415787439968943,0.7545800064870744,36.111111111111114,0.7222222222077779,0.8892045454545615,0.0,0.9838054676867463,0
1,1.1,0.8694444444444445,0.875,0.9777777777777601,0.8892045454545615,0.02913288171138237,0.9806967580163909,44.44444444444444,0.8888888888711112,0.8948863636363799,0.0,0.9931544297196462,0
2,1.975,0.875,0.8916666666666666,0.9777777777777601,0.8948863636363799,0.029217108268243346,0.9835320666573542,44.44444444444444,0.8888888888711112,0.9119318181818347,0.0,0.9943038901675143,0
3,2.8666666666666667,0.8916666666666666,0.9333333333333331,0.9777777777777601,0.9119318181818347,0.029512833305208597,0.9934870236674185,44.44444444444444,0.8888888888711112,0.9545454545454716,0.0,0.9962022480080623,0
4,3.8,0.9333333333333331,0.9555555555555557,0.9777777777777601,0.9545454545454716,0.028854200909748832,0.9713155590882863,44.44444444444444,0.8888888888711112,0.9772727272727451,0.0,0.9934900353904235,0
5,4.7555555555555555,0.9555555555555557,0.9000000000000004,0.8916666666666666,1.0716510903426795,0.023000808353609323,0.7742734964432962,38.888888888888886,0.7777777777622222,1.009345794392524,0.0,0.9840071375068813,0
6,5.655555555555556,0.9000000000000004,0.8694444444444445,0.8958333333333335,1.004651162790698,0.022790191341952627,0.7671835208424918,38.888888888888886,0.7777777777622222,0.9705426356589146,0.0,0.9854679114978274,0
7,6.525,0.8694444444444445,0.8694444444444445,0.8916666666666666,0.9750778816199378,0.022488633066182585,0.7570322002031351,38.888888888888886,0.7777777777622222,0.9750778816199378,0.0,0.9895227436742056,0
8,7.394444444444445,0.8694444444444445,0.8611111111111116,0.8833333333333333,0.9842767295597484,0.02235835607448895,0.7526467012104914,41.666666666666664,0.8333333333166667,0.974842767295598,0.0,0.9897640218804831,0
9,8.255555555555556,0.8611111111111116,0.9138888888888879,0.875,0.9841269841269847,0.023045480791962142,0.7757772994621435,41.666666666666664,0.8333333333166667,1.0444444444444432,0.0,0.9907921664654569,0
10,9.169444444444444,0.9138888888888879,0.9138888888888896,0.8833333333333333,1.0345911949685522,0.03016393604994091,1.015405018502961,44.44444444444444,0.8888888888711112,1.0345911949685545,0.0,0.9948203653687961,0
11,10.083333333333334,0.9138888888888896,0.9166666666666661,0.8958333333333335,1.0201550387596905,0.029351405453785635,0.9880528969609554,41.666666666666664,0.8333333333166667,1.0232558139534875,0.0,0.993103940696221,0
12,11.0,0.9166666666666661,0.8972222222222221,0.9069444444444441,1.0107197549770288,0.029634151058876693,0.9975709288880149,44.44444444444444,0.8888888888711112,0.9892802450229712,0.0,0.9953967168312756,0
13,11.897222222222222,0.8972222222222221,0.905555555555555,0.9069444444444441,0.9892802450229712,0.02402368377146873,0.8087064308878641,38.888888888888886,0.7777777777622222,0.9984686064318528,0.0,0.9942063682795392,0
14,12.802777777777777,0.905555555555555,0.8861111111111111,0.9027777777777777,1.0030769230769225,0.02995812636096328,1.0084768712380145,47.22222222222222,0.9444444444255556,0.9815384615384616,0.0,0.9933430154006428,0
15,13.688888888888888,0.8861111111111111,0.8666666666666671,0.8986111111111112,0.9860896445131374,0.02321785263568412,0.7815798324894686,38.888888888888886,0.7777777777622222,0.9644513137557964,0.0,0.9816005138145503,0
16,14.555555555555555,0.8666666666666671,0.9111111111111114,0.8916666666666666,0.9719626168224305,0.02981439891035025,1.0036385910345464,50.0,0.9999999999800001,1.0218068535825549,0.0,0.9945969488009524,0
17,15.466666666666667,0.9111111111111114,0.9166666666666661,0.9013888888888886,1.010785824345147,0.030891663277851342,1.039902414270479,50.0,0.9999999999800001,1.0169491525423726,0.0,0.9953781807031812,0
18,16.383333333333333,0.9166666666666661,0.9027777777777786,0.9083333333333332,1.009174311926605,0.03136073912054302,1.055692858990261,50.0,0.9999999999800001,0.9938837920489306,0.0,0.9894792586403731,0
19,17.28611111111111,0.9027777777777786,0.8472222222222214,0.9083333333333332,0.9938837920489306,0.023834730833755646,0.8023457304508561,41.666666666666664,0.8333333333166667,0.9327217125382256,0.0,0.9958837670487908,0
20,18.133333333333333,0.8472222222222214,0.8388888888888886,0.9041666666666668,0.9370199692780328,0.02390911224601624,0.8048496231513211,41.666666666666664,0.8333333333166667,0.9278033794162822,0.0,0.9910084757771969,0
21,18.97222222222222,0.8388888888888886,0.8666666666666671,0.9000000000000004,0.932098765432098,0.02394626985880456,0.8061004554842894,38.888888888888886,0.7777777777622222,0.9629629629629631,0.0,0.993344928674035,0
22,19.83888888888889,0.8666666666666671,0.8888888888888893,0.8916666666666666,0.9719626168224305,0.03038946432948771,1.0229969503545275,47.22222222222222,0.9444444444255556,0.9968847352024928,0.0,0.9931881621832782,0
23,20.727777777777778,0.8888888888888893,0.8972222222222221,0.8875000000000002,1.0015649452269173,0.03047807926157124,1.0259799843525754,47.22222222222222,0.9444444444255556,1.0109546165884191,0.0,0.9887966477912651,0
24,21.625,0.8972222222222221,0.8888888888888893,0.8875000000000002,1.0109546165884191,0.031109426455993665,1.0472329504301092,50.0,0.9999999999800001,1.0015649452269173,0.0,0.9904872340414324,0
25,22.51388888888889,0.8888888888888893,0.8583333333333343,0.8888888888888893,1.0,0.02914187975405806,0.9809996580647956,38.888888888888886,0.7777777777622222,0.9656250000000006,0.0,0.9866630968712522,0
26,23.372222222222224,0.8583333333333343,0.8527777777777779,0.8888888888888893,0.9656250000000006,0.022289132734010206,0.7503164440715264,36.111111111111114,0.7222222222077779,0.9593749999999996,0.0,0.9848769692143773,0
27,24.225,0.8527777777777779,0.8444444444444414,0.8777777777777782,0.9715189873417718,0.030539949974044165,1.0280627308429322,47.22222222222222,0.9444444444255556,0.9620253164556923,0.0,0.9935543035662858,0
28,25.069444444444443,0.8444444444444414,0.8194444444444464,0.8625000000000007,0.9790660225442791,0.029963099168608048,1.008644270274738,47.22222222222222,0.9444444444255556,0.9500805152979082,0.0,0.9905758166130947,0
29,25.88888888888889,0.8194444444444464,0.8555555555555543,0.8555555555555561,0.9577922077922095,0.029492058908550323,0.9927876976050553,47.22222222222222,0.9444444444255556,0.9999999999999979,0.0,0.9934495325417797,0
30,26.744444444444444,0.8555555555555543,0.9027777777777786,0.8569444444444443,0.998379254457049,0.02949601057048707,0.9929207219343522,38.888888888888886,0.7777777777622222,1.053484602917343,0.0,0.9921799126997806,0
31,27.647222222222222,0.9027777777777786,0.9111111111111114,0.8625000000000007,1.0466988727858293,0.02482669340277988,0.8357380493142382,41.666666666666664,0.8333333333166667,1.0563607085346212,0.0,0.9923699162193385,0
32,28.558333333333334,0.9111111111111114,0.8583333333333343,0.8736111111111118,1.0429252782193954,0.0304481429104618,1.0249722404990589,41.666666666666664,0.8333333333166667,0.9825119236883946,0.0,0.9886534970587566,0
33,29.416666666666668,0.8583333333333343,0.8388888888888886,0.8583333333333343,1.0,0.0219592445377137,0.7392114566617345,36.111111111111114,0.7222222222077779,0.9773462783171507,0.0,0.9837621200999334,0
34,30.255555555555556,0.8388888888888886,0.8138888888888864,0.8569444444444443,0.9789303079416529,0.021598929891018855,0.7270822272439185,36.111111111111114,0.7222222222077779,0.9497568881685549,0.0,0.9789548589202142,0
35,31.069444444444443,0.8138888888888864,0.7916666666666679,0.8541666666666661,0.9528455284552824,0.02176388573915783,0.732635116487365,38.888888888888886,0.7777777777622222,0.926829268292685,0.0,0.9860422793683651,0
36,31.86111111111111,0.7916666666666679,0.8055555555555536,0.8486111111111097,0.9328968903437018,0.026976989708371136,0.9081232200144664,41.666666666666664,0.8333333333166667,0.9492635024549911,0.0,0.9907930769852122,0
37,32.666666666666664,0.8055555555555536,0.8027777777777771,0.841666666666665,0.9570957095709567,0.023085582776776088,0.7771272478430375,41.666666666666664,0.8333333333166667,0.9537953795379549,0.0,0.9925181201464188,0
38,33.46944444444444,0.8027777777777771,0.8027777777777843,0.8291666666666675,0.9681742043551071,0.030341888512272597,1.0213954112357726,44.44444444444444,0.8888888888711112,0.9681742043551157,0.0,0.9913561813137277,0
39,34.272222222222226,0.8027777777777843,0.7861111111111043,0.8263888888888875,0.9714285714285809,0.022800687512436902,0.7675368521904681,38.888888888888886,0.7777777777622222,0.9512605042016741,0.0,0.9887953898575617,0
40,35.05833333333333,0.7861111111111043,0.8055555555555571,0.80972222222222,0.9708404802744368,0.029707980104041853,1.0000562273201514,44.44444444444444,0.8888888888711112,0.9948542024013769,0.0,0.995358199049317,0
41,35.86388888888889,0.8055555555555571,0.75555555555556,0.8055555555555554,1.0000000000000022,0.022386326387962546,0.7535882625711562,38.888888888888886,0.7777777777622222,0.9379310344827644,0.0,0.9857039620965736,0
42,36.61944444444445,0.75555555555556,0.7611111111111057,0.8041666666666689,0.9395509499136471,0.028815705564812232,0.9700196948359252,41.666666666666664,0.8333333333166667,0.9464594127806469,0.0,0.9866067089394768,0
43,37.38055555555555,0.7611111111111057,0.7861111111111114,0.8027777777777807,0.9480968858131387,0.028145221474282958,0.947449268044719,41.666666666666664,0.8333333333166667,0.9792387543252563,0.0,0.9892067370589321,0
44,38.166666666666664,0.7861111111111114,0.8027777777777771,0.7972222222222225,0.9860627177700348,0.0222477670573918,0.7489239561825932,38.888888888888886,0.7777777777622222,1.0069686411149814,0.0,0.9818818262967655,0
45,38.96944444444444,0.8027777777777771,0.8444444444444485,0.7972222222222225,1.0069686411149814,0.03083447227111284,1.0379772001618373,52.77777777777778,1.0555555555344445,1.0592334494773568,0.0,0.9954997235926614,0
46,39.81388888888889,0.8444444444444485,0.8527777777777743,0.8027777777777771,1.0519031141868571,0.024003826585093434,0.8080379807669833,41.666666666666664,0.8333333333166667,1.062283737024218,0.0,0.9915647823135598,0
47,40.666666666666664,0.8527777777777743,0.7861111111111114,0.8027777777777771,1.062283737024218,0.030274399979677714,1.0191235527298141,41.666666666666664,0.8333333333166667,0.9792387543252606,0.0,0.9922631256574539,0
48,41.452777777777776,0.7861111111111114,0.75555555555556,0.7944444444444443,0.9895104895104901,0.02791246271288135,0.939613937336007,41.666666666666664,0.8333333333166667,0.9510489510489568,0.0,0.9925014047123428,0
49,42.208333333333336,0.75555555555556,0.7749999999999986,0.7861111111111114,0.9611307420494752,0.027624154453767827,0.9299086504432409,38.888888888888886,0.7777777777622222,0.9858657243816232,0.0,0.9874548831745134,0
50,42.983333333333334,0.7749999999999986,0.7944444444444443,0.7861111111111114,0.9858657243816232,0.023500212364440366,0.7910848747070206,41.666666666666664,0.8333333333166667,1.0106007067137803,0.0,0.9896087669338558,0
51,43.77777777777778,0.7944444444444443,0.80833333333333,0.7861111111111114,1.0106007067137803,0.030144470806072948,1.0147497622964372,41.666666666666664,0.8333333333166667,1.0282685512367444,0.0,0.9935911139625881,0
52,44.58611111111111,0.80833333333333,0.8333333333333357,0.7902777777777779,1.0228471001757427,0.03047193276090147,1.0257730754261016,41.666666666666664,0.8333333333166667,1.0544815465729378,0.0,0.9939451916715809,0
53,45.419444444444444,0.8333333333333357,0.8444444444444414,0.7986111111111107,1.0434782608695687,0.02474311627137276,0.8329246022056658,44.44444444444444,0.8888888888711112,1.057391304347823,0.0,0.9938998715249814,0
54,46.263888888888886,0.8444444444444414,0.8361111111111157,0.8055555555555536,1.0482758620689643,0.024827710445726365,0.8357722859108875,44.44444444444444,0.8888888888711112,1.0379310344827668,0.0,0.995128245840518,0
55,47.1,0.8361111111111157,0.8166666666666629,0.8208333333333329,1.0186125211505983,0.030180690197258973,1.015969011386361,44.44444444444444,0.8888888888711112,0.9949238578680163,0.0,0.9966101834146731,0
56,47.916666666666664,0.8166666666666629,0.7833333333333385,0.8124999999999964,1.0051282051282049,0.029857625918563543,1.0050937367092347,41.666666666666664,0.8333333333166667,0.9641025641025748,0.0,0.9929600053940422,0
57,48.7,0.7833333333333385,0.7833333333333314,0.8013888888888872,0.9774696707105806,0.02290566096416522,0.771070561104253,38.888888888888886,0.7777777777622222,0.9774696707105717,0.0,0.9871275879916785,0
58,49.483333333333334,0.7833333333333314,0.7916666666666643,0.8013888888888872,0.9774696707105717,0.029612948828931753,0.9968572007242268,41.666666666666664,0.8333333333166667,0.9878682842287687,0.0,0.9867533856661634,0
59,50.275,0.7916666666666643,0.8222222222222229,0.8013888888888872,0.9878682842287687,0.02393782913652447,0.8058163164465721,41.666666666666664,0.8333333333166667,1.025996533795497,0.0,0.9923745221421377,0
60,51.09722222222222,0.8222222222222229,0.81111111111111,0.8124999999999964,1.0119658119658173,0.03075653829240068,1.035353717836281,41.666666666666664,0.8333333333166667,0.9982905982906013,0.0,0.9946881404177312,0
61,51.90833333333333,0.81111111111111,0.8027777777777771,0.8138888888888864,0.9965870307167252,0.024618475246543182,0.8287288261002609,44.44444444444444,0.8888888888711112,0.9863481228668964,0.0,0.9946648708323107,0
62,52.71111111111111,0.8027777777777771,0.8083333333333371,0.8138888888888864,0.9863481228668964,0.029323584127412598,0.9871163509354693,41.666666666666664,0.8333333333166667,0.9931740614334548,0.0,0.9890316146260714,0
63,53.519444444444446,0.8083333333333371,0.80833333333333,0.8097222222222236,0.9982847341337938,0.029411307029743535,0.9900693566412566,44.44444444444444,0.8888888888711112,0.9982847341337849,0.0,0.990021126073676,0
64,54.327777777777776,0.80833333333333,0.8388888888888886,0.8083333333333336,0.9999999999999956,0.027973394230461204,0.941665067819547,41.666666666666664,0.8333333333166667,1.0378006872852226,0.0,0.9899963800566706,0
65,55.166666666666664,0.8388888888888886,0.8694444444444471,0.8083333333333336,1.0378006872852226,0.029587097968557824,0.995986986263062,41.666666666666664,0.8333333333166667,1.0756013745704498,0.0,0.9938089454041841,0
66,56.03611111111111,0.8694444444444471,0.8888888888888857,0.8083333333333336,1.0756013745704498,0.02199343022972867,0.7403622455765342,36.111111111111114,0.7222222222077779,1.099656357388312,0.0,0.9868497574017263,0
67,56.925,0.8888888888888857,0.9138888888888914,0.8097222222222236,1.0977701543739222,0.02914555901651065,0.981123512642413,44.44444444444444,0.8888888888711112,1.128644939965696,0.0,0.9924418264434589,0
68,57.83888888888889,0.9138888888888914,0.9527777777777757,0.8166666666666664,1.1190476190476224,0.023854968871886248,0.8030270011394175,41.666666666666664,0.8333333333166667,1.1666666666666645,0.0,0.9917602389553245,0
69,58.791666666666664,0.9527777777777757,0.9250000000000043,0.8305555555555557,1.1471571906354487,0.030027003914735888,1.0107954881999097,41.666666666666664,0.8333333333166667,1.1137123745819448,0.0,0.9955498709203827,0
70,59.71666666666667,0.9250000000000043,0.8611111111111072,0.8541666666666679,1.082926829268296,0.028596210791100366,0.9626308681790461,41.666666666666664,0.8333333333166667,1.008130081300807,0.0,0.9912916788633951,0
71,60.577777777777776,0.8611111111111072,0.8944444444444457,0.8652777777777771,0.9951845906902048,0.028186763364760732,0.9488476877999986,41.666666666666664,0.8333333333166667,1.0337078651685416,0.0,0.9923733730504924,0
72,61.47222222222222,0.8944444444444457,0.8916666666666657,0.8791666666666664,1.017377567140602,0.029339270199389283,0.9876443893247351,44.44444444444444,0.8888888888711112,1.0142180094786721,0.0,0.9949552964912354,0
73,62.36388888888889,0.8916666666666657,0.9194444444444443,0.8902777777777757,1.0015600624024974,0.029206737364106526,0.9831829521356451,44.44444444444444,0.8888888888711112,1.0327613104524203,0.0,0.9930279246927545,0
74,63.28333333333333,0.9194444444444443,0.9555555555555628,0.8930555555555557,1.0295489891135299,0.024033074452198277,0.8090225482647262,41.666666666666664,0.8333333333166667,1.0699844479004745,0.0,0.9915851216513478,0
75,64.2388888888889,0.9555555555555628,0.9194444444444372,0.9041666666666686,1.0568356374808046,0.030032321101052167,1.0109744800151996,44.44444444444444,0.8888888888711112,1.0168970814132003,0.0,0.9961645520360358,0
76,65.15833333333333,0.9194444444444372,0.88055555555556,0.9166666666666643,1.0030303030302976,0.023531605752861007,0.7921416666355459,41.666666666666664,0.8333333333166667,0.9606060606060679,0.0,0.9901756531311886,0
77,66.03888888888889,0.88055555555556,0.87777777777778,0.9166666666666643,0.9606060606060679,0.028279985278101615,0.951985806064275,38.888888888888886,0.7777777777622222,0.9575757575757624,0.0,0.9884930287148178,0
78,66.91666666666667,0.87777777777778,0.86944444444444,0.9069444444444414,0.9678407350689183,0.02251642094059572,0.757967620139244,38.888888888888886,0.7777777777622222,0.958652373660029,0.0,0.9843638303306319,0
79,67.78611111111111,0.86944444444444,0.88055555555556,0.8930555555555557,0.9735614307931519,0.029072340015724608,0.9786587500621973,41.666666666666664,0.8333333333166667,0.9860031104199115,0.0,0.9914398799385854,0
80,68.66666666666667,0.88055555555556,0.8888888888888857,0.8861111111111128,0.993730407523514,0.027654050827559305,0.930915048545022,41.666666666666664,0.8333333333166667,1.003134796238239,0.0,0.9897759393059218,0
81,69.55555555555556,0.8888888888888857,0.9249999999999972,0.8902777777777757,0.9984399375975026,0.023578173856131292,0.7937092831987332,41.666666666666664,0.8333333333166667,1.0390015600624016,0.0,0.9913844817480033,0
82,70.48055555555555,0.9249999999999972,0.9194444444444514,0.8902777777777757,1.0390015600624016,0.030790122614968683,1.036484262922377,52.77777777777778,1.0555555555344445,1.0327613104524282,0.0,0.9969527191010618,0
83,71.4,0.9194444444444514,0.8444444444444343,0.9041666666666615,1.0168970814132239,0.023461397437843146,0.7897782524149434,38.888888888888886,0.7777777777622222,0.9339477726574443,0.0,0.9913363722529618,0
84,72.24444444444444,0.8444444444444343,0.8361111111111086,0.8847222222222229,0.9544740973312281,0.029861025876158475,1.0052081890804,44.44444444444444,0.8888888888711112,0.9450549450549415,0.0,0.9956276683867626,0
85,73.08055555555555,0.8361111111111086,0.9111111111111114,0.88055555555556,0.9495268138801185,0.029801530015494553,1.0032053869461468,44.44444444444444,0.8888888888711112,1.0347003154574084,0.0,0.9938412808165475,0
86,73.99166666666666,0.9111111111111114,0.9166666666666714,0.88055555555556,1.0347003154574084,0.024871229875262753,0.8372372753300559,44.44444444444444,0.8888888888711112,1.0410094637223977,0.0,0.9965504350658716,0
87,74.90833333333333,0.9166666666666714,0.9333333333333371,0.8847222222222229,1.0361067503924692,0.030995149194887283,1.0433860484795126,52.77777777777778,1.0555555555344445,1.0549450549450585,0.0,0.9946832879839727,0
88,75.84166666666667,0.9333333333333371,0.8833333333333258,0.8999999999999986,1.037037037037043,0.023291435601800994,0.7840568471916514,38.888888888888886,0.7777777777622222,0.9814814814814746,0.0,0.9901076523153293,0
89,76.725,0.8833333333333258,0.8694444444444542,0.8999999999999986,0.9814814814814746,0.02894328866530154,0.974314509686962,41.666666666666664,0.8333333333166667,0.9660493827160618,0.0,0.9913023527497036,0
90,77.59444444444445,0.8694444444444542,0.8583333333333343,0.8999999999999986,0.9660493827160618,0.022105438991862247,0.7441327833139977,38.888888888888886,0.7777777777622222,0.9537037037037063,0.0,0.9841956240406666,0
91,78.45277777777778,0.8583333333333343,0.875,0.8972222222222186,0.956656346749231,0.022375229846264368,0.753214720997878,38.888888888888886,0.7777777777622222,0.9752321981424188,0.0,0.9884591964221581,0
92,79.32777777777778,0.875,0.8416666666666686,0.8791666666666629,0.9952606635071133,0.02929028886325124,0.9859955363883939,47.22222222222222,0.9444444444255556,0.9573459715639874,0.0,0.9945731808561649,0
93,80.16944444444445,0.8416666666666686,0.8166666666666629,0.8722222222222271,0.9649681528662388,0.024097276832351213,0.8111837854089501,38.888888888888886,0.7777777777622222,0.9363057324840668,0.0,0.9918238868877314,0
94,80.98611111111111,0.8166666666666629,0.86666666666666,0.8722222222222271,0.9363057324840668,0.02459735902124888,0.8280179931008746,41.666666666666664,0.8333333333166667,0.9936305732483944,0.0,0.9951497285777725,0
95,81.85277777777777,0.86666666666666,0.875,0.8722222222222271,0.9936305732483944,0.030811789479441482,1.0372136320234278,52.77777777777778,1.0555555555344445,1.0031847133757905,0.0,0.9967831259403095,0
96,82.72777777777777,0.875,0.8500000000000085,0.8722222222222271,1.0031847133757905,0.024829370848535703,0.8358281798546535,41.666666666666664,0.8333333333166667,0.9745222929936349,0.0,0.9938565908622319,0
97,83.57777777777778,0.8500000000000085,0.8277777777777686,0.8680555555555571,0.9792000000000081,0.029007629197395017,0.9764803974236519,38.888888888888886,0.7777777777622222,0.9535999999999877,0.0,0.9896123176700928,0
98,84.40555555555555,0.8277777777777686,0.8388888888888886,0.8624999999999972,0.9597423510466914,0.02990314711403334,1.006626111338718,50.0,0.9999999999800001,0.9726247987117581,0.0,0.9910390193279865,0
99,85.24444444444444,0.8388888888888886,0.8250000000000028,0.8541666666666714,0.9821138211382056,0.030526724754433084,1.027617531836355,50.0,0.9999999999800001,0.9658536585365833,0.0,0.983306942418986,0
100,86.06944444444444,0.8250000000000028,0.9027777777777857,0.8458333333333385,0.9753694581280762,0.023508247351189882,0.7913553555174677,41.666666666666664,0.8333333333166667,1.0673234811165873,0.0,0.9920198093693613,0
101,86.97222222222223,0.9027777777777857,0.8999999999999915,0.8458333333333385,1.0673234811165873,0.02418574297068314,0.8141618105805023,38.888888888888886,0.7777777777622222,1.0640394088669785,0.0,0.9912619408052606,0
102,87.87222222222222,0.8999999999999915,0.86944444444444,0.8458333333333385,1.0640394088669785,0.030283966810151598,1.0194455998147258,47.22222222222222,0.9444444444255556,1.0279146141214992,0.0,0.9948156127293141,0
103,88.74166666666666,0.86944444444444,0.875,0.8583333333333343,1.0129449838187639,0.023273086356690748,0.7834391587195688,38.888888888888886,0.7777777777622222,1.0194174757281542,0.0,0.9884108397536334,0
104,89.61666666666666,0.875,0.8416666666666686,0.86805555555555,1.0080000000000064,0.027813348737631596,0.9362774752872295,41.666666666666664,0.8333333333166667,0.9696000000000083,0.0,0.9885251551141572,0
105,90.45833333333333,0.8416666666666686,0.8361111111111228,0.8597222222222243,0.9789983844911145,0.028518724557143122,0.9600224582323198,38.888888888888886,0.7777777777622222,0.9725363489499305,0.0,0.9865585321738677,0
106,91.29444444444445,0.8361111111111228,0.8305555555555486,0.8458333333333385,0.9885057471264445,0.02979755767589063,1.0030716665469805,52.77777777777778,1.0555555555344445,0.9819376026272435,0.0,0.994596637369741,0
107,92.125,0.8305555555555486,0.8388888888888886,0.8402777777777786,0.9884297520661065,0.028012931274341447,0.942995998660479,41.666666666666664,0.8333333333166667,0.9983471074380152,0.0,0.9920594988757602,0
108,92.96388888888889,0.8388888888888886,0.8611111111111143,0.8402777777777786,0.9983471074380152,0.022154583501386126,0.7457871291367641,38.888888888888886,0.7777777777622222,1.0247933884297549,0.0,0.9914906930753666,0
109,93.825,0.8611111111111143,0.87222222222222,0.8513888888888914,1.0114192495921703,0.026084793355346508,0.8780893195032292,44.44444444444444,0.8888888888711112,1.0244698205546436,0.0,0.9940090134197319,0
110,94.69722222222222,0.87222222222222,0.8305555555555486,0.8652777777777771,1.0080256821829838,0.024621786204278306,0.8288402824796515,47.22222222222222,0.9444444444255556,0.9598715890850649,0.0,0.9958157192075074,0
111,95.52777777777777,0.8305555555555486,0.8000000000000114,0.8513888888888914,0.9755301794453397,0.029731504003737877,1.0008481095787054,44.44444444444444,0.8888888888711112,0.9396411092985424,0.0,0.994423082455244,0
112,96.32777777777778,0.8000000000000114,0.8388888888888886,0.8402777777777786,0.952066115702492,0.029896635004272757,1.0064068949565792,47.22222222222222,0.9444444444255556,0.9983471074380152,0.0,0.9945201556765455,0
113,97.16666666666667,0.8388888888888886,0.8555555555555543,0.8388888888888886,1.0,0.02550002917812429,0.8584044720347451,47.22222222222222,0.9444444444255556,1.019867549668873,0.0,0.9976839656969385,0
114,98.02222222222223,0.8555555555555543,0.8611111111111143,0.8388888888888886,1.019867549668873,0.027624791119041148,0.9299300824311807,44.44444444444444,0.8888888888711112,1.0264900662251697,0.0,0.9950647527563592,0
115,98.88333333333334,0.8611111111111143,0.87222222222222,0.8388888888888886,1.0264900662251697,0.02437043462197284,0.8203790638356698,38.888888888888886,0.7777777777622222,1.039735099337746,0.0,0.990378461348211,0
116,99.75555555555556,0.87222222222222,0.8472222222222143,0.8472222222222214,1.0295081967213098,0.02361548921527974,0.7949654257288009,41.666666666666664,0.8333333333166667,0.9999999999999916,0.0,0.9911409552085396,0
117,100.60277777777777,0.8472222222222143,0.8666666666666742,0.8513888888888843,0.9951060358890662,0.02300308305774956,0.7743500695402482,38.888888888888886,0.7777777777622222,1.0179445350734238,0.0,0.9884437172784328,0
118,101.46944444444445,0.8666666666666742,0.8555555555555543,0.8583333333333343,1.0097087378640854,0.03042225859492741,1.0241008998407768,50.0,0.9999999999800001,0.9967637540453048,0.0,0.9971936891846991,0
119,102.325,0.8555555555555543,0.8444444444444485,0.8555555555555543,1.0,0.02500801584497847,0.8418418852814951,47.22222222222222,0.9444444444255556,0.9870129870129932,0.0,0.9958710559230961,0
120,103.16944444444445,0.8444444444444485,0.8555555555555543,0.8513888888888843,0.9918433931484604,0.031347599172744364,1.0552505304786395,47.22222222222222,0.9444444444255556,1.0048939641109338,0.0,0.9966908076180838,0
121,104.025,0.8555555555555543,0.8999999999999915,0.8555555555555543,1.0,0.03326867246042751,1.119919393785995,50.0,0.9999999999800001,1.0519480519480435,0.0,0.9855220676073031,0
122,104.925,0.8999999999999915,0.9055555555555515,0.8555555555555543,1.0519480519480435,0.03497692953860173,1.1774242501548544,52.77777777777778,1.0555555555344445,1.0584415584415552,0.0,0.9956954898651049,0
123,105.83055555555555,0.9055555555555515,0.9194444444444514,0.8583333333333343,1.0550161812297676,0.03193057479241364,1.0748751699453516,52.77777777777778,1.0555555555344445,1.0711974110032432,0.0,0.9966903432143579,0
124,106.75,0.9194444444444514,0.88333333333334,0.8638888888888943,1.064308681672027,0.03326504563192599,1.1197973042862828,52.77777777777778,1.0555555555344445,1.0225080385852103,0.0,0.9955606481696746,0
125,107.63333333333334,0.88333333333334,0.86388888888888,0.8694444444444471,1.0159744408945732,0.024440479305770743,0.8227369697578308,41.666666666666664,0.8333333333166667,0.9936102236421593,0.0,0.9907539508602319,0
126,108.49722222222222,0.86388888888888,0.87777777777778,0.8652777777777771,0.9983948635633934,0.030756397042157574,1.0353489629460213,47.22222222222222,0.9444444444255556,1.0144462279293773,0.0,0.9947526596093754,0
127,109.375,0.87777777777778,0.87777777777778,0.8722222222222271,1.0063694267515892,0.026429113654549134,0.889680133089491,50.0,0.9999999999800001,1.0063694267515892,0.0,0.9917937193104152,0
128,110.25277777777778,0.87777777777778,0.8944444444444457,0.87777777777778,1.0,0.03196822240917085,1.0761424972240812,50.0,0.9999999999800001,1.0189873417721507,0.0,0.986924358307183,0
129,111.14722222222223,0.8944444444444457,0.9055555555555515,0.88055555555556,1.015772870662457,0.03040028599051817,1.023361238652337,52.77777777777778,1.0555555555344445,1.0283911671924193,0.0,0.9960881531274368,0
130,112.05277777777778,0.9055555555555515,0.9138888888888914,0.8888888888888928,1.018749999999991,0.027962058410307352,0.9412834714438614,55.55555555555556,1.111111111088889,1.0281249999999982,0.0,0.9928851938033949,0
131,112.96666666666667,0.9138888888888914,0.8527777777777743,0.8972222222222186,1.0185758513931957,0.030503933236809933,1.026850303669065,44.44444444444444,0.8888888888711112,0.9504643962848297,0.0,0.9852414723552295,0
132,113.81944444444444,0.8527777777777743,0.8055555555555571,0.8888888888888928,0.9593749999999919,0.029230582869665424,0.9839856605743965,38.888888888888886,0.7777777777622222,0.9062499999999978,0.0,0.9829505437974255,0
133,114.625,0.8055555555555571,0.7694444444444457,0.88055555555556,0.9148264984227101,0.024957661746617416,0.8401468212124905,41.666666666666664,0.8333333333166667,0.8738170347003125,0.0,0.9934086545702613,0
134,115.39444444444445,0.7694444444444457,0.7972222222222172,0.87777777777778,0.8765822784810119,0.02923940230038804,0.9842825480297092,50.0,0.9999999999800001,0.9082278481012578,0.0,0.9890534760005704,0
135,116.19166666666666,0.7972222222222172,0.8222222222222229,0.87083333333333,0.9154704944178605,0.03177119336609987,1.0695099318057661,50.0,0.9999999999800001,0.944178628389159,0.0,0.9948735042540174,0
136,117.01388888888889,0.8222222222222229,0.8194444444444429,0.8652777777777771,0.9502407704654909,0.030126385672198164,1.0141409645696966,47.22222222222222,0.9444444444255556,0.9470304975922942,0.0,0.9962124137078403,0
137,117.83333333333333,0.8194444444444429,0.8166666666666771,0.8374999999999986,0.9784411276948588,0.02895000991739268,0.9745407664026859,44.44444444444444,0.8888888888711112,0.9751243781094668,0.0,0.9956578088042773,0
138,118.65,0.8166666666666771,0.7666666666666657,0.8208333333333329,0.9949238578680336,0.02413872803252802,0.812579152267334,41.666666666666664,0.8333333333166667,0.9340101522842633,0.0,0.9915034886306919,0
139,119.41666666666667,0.7666666666666657,0.7722222222222115,0.81805555555556,0.9371816638370056,0.02259160321805059,0.7604984722702047,41.666666666666664,0.8333333333166667,0.9439728353140735,0.0,0.9913590162367479,0
140,120.18888888888888,0.7722222222222115,0.7722222222222257,0.8111111111111171,0.9520547945205277,0.024391297925480157,0.8210813827587973,41.666666666666664,0.8333333333166667,0.9520547945205452,0.0,0.9904874504811146,0
141,120.96111111111111,0.7722222222222257,0.75,0.8013888888888872,0.9636048526863149,0.02339271635101776,0.7874662490967004,44.44444444444444,0.8888888888711112,0.9358752166377836,0.0,0.9930948442744345,0
142,121.71111111111111,0.75,0.7750000000000057,0.7847222222222214,0.9557522123893815,0.029387440632257723,0.9892659449200357,44.44444444444444,0.8888888888711112,0.9876106194690348,0.0,0.9965992279899869,0
143,122.48611111111111,0.7750000000000057,0.8111111111111029,0.7736111111111157,1.0017953321364466,0.026494200455465203,0.8918711423854615,44.44444444444444,0.8888888888711112,1.0484739676840047,0.0,0.9943804866189223,0
144,123.29722222222222,0.8111111111111029,0.8027777777777771,0.7861111111111114,1.0318021201413319,0.03284670498544404,1.105714752487398,52.77777777777778,1.0555555555344445,1.0212014134275607,0.0,0.9965484064569254,0
145,124.1,0.8027777777777771,0.8361111111111228,0.7888888888888914,1.0176056338028128,0.02524470301732281,0.8498094576240371,41.666666666666664,0.8333333333166667,1.0598591549295888,0.0,0.9926011094296507,0
146,124.93611111111112,0.8361111111111228,0.8111111111111029,0.7888888888888914,1.0598591549295888,0.03000463063355208,1.010042339076506,44.44444444444444,0.8888888888711112,1.0281690140844932,0.0,0.9963614028078754,0
147,125.74722222222222,0.8111111111111029,0.7888888888888914,0.7888888888888914,1.0281690140844932,0.029782931942013993,1.0025793221940076,44.44444444444444,0.8888888888711112,1.0,0.0,0.9953141759909317,0
148,126.53611111111111,0.7888888888888914,0.7944444444444372,0.7819444444444485,1.008880994671401,0.02269820515497041,0.7640870006887541,38.888888888888886,0.7777777777622222,1.0159857904085112,0.0,0.9785472574282947,0
149,127.33055555555555,0.7944444444444372,0.8277777777777828,0.7916666666666643,1.0035087719298184,0.02825960031663986,0.9512995895129606,44.44444444444444,0.8888888888711112,1.0456140350877288,0.0,0.9912401672373801,0
150,128.15833333333333,0.8277777777777828,0.8416666666666686,0.7986111111111072,1.0365217391304462,0.02901186292107222,0.9766229167640216,44.44444444444444,0.8888888888711112,1.0539130434782684,0.0,0.9950144615292362,0
151,129.0,0.8416666666666686,0.8611111111111143,0.80694444444444,1.043029259896738,0.029588019991098224,0.9960180241989981,44.44444444444444,0.8888888888711112,1.0671256454389082,0.0,0.9959262042816501,0
152,129.86111111111111,0.8611111111111143,0.8611111111111143,0.8111111111111029,1.061643835616453,0.02982995658276337,1.004162307124461,44.44444444444444,0.8888888888711112,1.061643835616453,0.0,0.9948701514464833,0
153,130.72222222222223,0.8611111111111143,0.8305555555555486,0.8194444444444429,1.0508474576271245,0.028108614924087793,0.9462169860667732,44.44444444444444,0.8888888888711112,1.0135593220338919,0.0,0.9937794713664415,0
154,131.55277777777778,0.8305555555555486,0.8222222222222229,0.8291666666666657,1.0016750418760396,0.029326604556555124,0.9872180272851432,44.44444444444444,0.8888888888711112,0.9916247906197674,0.0,0.9845938837156443,0
155,132.375,0.8222222222222229,0.8027777777777771,0.8291666666666657,0.9916247906197674,0.028952365692705297,0.9746200685889436,44.44444444444444,0.8888888888711112,0.9681742043551093,0.0,0.9906145350926493,0
156,133.17777777777778,0.8027777777777771,0.7861111111111256,0.8250000000000028,0.973063973063969,0.024759680636942293,0.8334822064884682,41.666666666666664,0.8333333333166667,0.9528619528619672,0.0,0.9892995004844348,0
157,133.9638888888889,0.7861111111111256,0.8027777777777771,0.8250000000000028,0.9528619528619672,0.030252805349601147,1.0183966152467165,47.22222222222222,0.9444444444255556,0.973063973063969,0.0,0.990876059472507,0
158,134.76666666666668,0.8027777777777771,0.8444444444444343,0.8250000000000028,0.973063973063969,0.03361395975270415,1.1315427591459573,58.333333333333336,1.1666666666433334,1.0235690235690078,0.0,0.9947004351789759,0
159,135.61111111111111,0.8444444444444343,0.8472222222222285,0.8291666666666657,1.0184254606365049,0.027364240117343105,0.9211591848181457,52.77777777777778,1.0555555555344445,1.0217755443886185,0.0,0.9922348394105653,0
160,136.45833333333334,0.8472222222222285,0.8249999999999886,0.8361111111111086,1.013289036544861,0.026671597251145242,0.897842829777373,47.22222222222222,0.9444444444255556,0.9867109634551389,0.0,0.9935089651826751,0
161,137.28333333333333,0.8249999999999886,0.7694444444444457,0.8277777777777686,0.9966442953020107,0.03148482387989255,1.0598699095964763,52.77777777777778,1.0555555555344445,0.9295302013422937,0.0,0.9936860400191141,0
162,138.05277777777778,0.7694444444444457,0.7722222222222115,0.8236111111111057,0.9342327150084393,0.03099898868076749,1.04351529663946,50.0,0.9999999999800001,0.9376053962900437,0.0,0.9960489337718832,0
163,138.825,0.7722222222222115,0.7527777777777942,0.8125,0.9504273504273372,0.02957949653159052,0.9957310999877544,47.22222222222222,0.9444444444255556,0.9264957264957467,0.0,0.991238984541585,0
164,139.57777777777778,0.7527777777777942,0.7750000000000057,0.8027777777777771,0.9377162629757997,0.02873128517569391,0.9671778612425641,41.666666666666664,0.8333333333166667,0.9653979238754403,0.0,0.9914960519232622,0
165,140.3527777777778,0.7750000000000057,0.799999999999983,0.7944444444444514,0.9755244755244742,0.030726972366583307,1.0343584435656439,52.77777777777778,1.0555555555344445,1.0069930069929767,0.0,0.9945745652197788,0
166,141.15277777777777,0.799999999999983,0.8305555555555486,0.7930555555555543,1.0087565674255492,0.03217882173178046,1.0832318773605818,47.22222222222222,0.9444444444255556,1.0472854640980664,0.0,0.9947237170520797,0
167,141.98333333333332,0.8305555555555486,0.7944444444444514,0.80138888888888,1.0363951473136943,0.03064848601116297,1.0317163666481663,44.44444444444444,0.8888888888711112,0.991334488734855,0.0,0.9921974364688202,0
168,142.77777777777777,0.7944444444444514,0.7972222222222172,0.7972222222222172,0.9965156794425237,0.02676781268119077,0.9010817184411036,47.22222222222222,0.9444444444255556,1.0,0.0,0.9921455465411326,0
169,143.575,0.7972222222222172,0.7722222222222399,0.7958333333333343,1.0017452006980727,0.02532515091033968,0.8525175655500742,44.44444444444444,0.8888888888711112,0.9703315881326563,0.0,0.9962976241824528,0
170,144.34722222222223,0.7722222222222399,0.7611111111110915,0.7847222222222285,0.9840707964601916,0.024055202376040828,0.8097674379529146,44.44444444444444,0.8888888888711112,0.969911504424746,0.0,0.9943839057165851,0
171,145.10833333333332,0.7611111111110915,0.75555555555556,0.7736111111111228,0.9838420107719527,0.029420990633650192,0.9903953346564511,44.44444444444444,0.8888888888711112,0.9766606822262028,0.0,0.9805032363716195,0
172,145.86388888888888,0.75555555555556,0.7833333333333314,0.7736111111111228,0.9766606822262028,0.029805243024683403,1.0033303775361635,44.44444444444444,0.8888888888711112,1.012567324955099,0.0,0.9816617040824416,0
173,146.6472222222222,0.7833333333333314,0.8166666666666913,0.7791666666666686,1.0053475935828828,0.0290772726238902,0.9788247958685986,44.44444444444444,0.8888888888711112,1.0481283422460184,0.0,0.9942191641869998,0
174,147.4638888888889,0.8166666666666913,0.8166666666666629,0.7888888888888914,1.0352112676056617,0.026362320290712185,0.8874316759673687,50.0,0.9999999999800001,1.0352112676056258,0.0,0.9962319337227337,0
175,148.28055555555557,0.8166666666666629,0.794444444444423,0.7958333333333343,1.0261780104711982,0.03164684498172108,1.0653240068213108,55.55555555555556,1.111111111088889,0.9982547993018915,0.0,0.9978485904908604,0
176,149.075,0.794444444444423,0.7777777777777999,0.7944444444444372,0.9999999999999821,0.024410682744578298,0.8217339316357885,47.22222222222222,0.9444444444255556,0.9790209790210158,0.0,0.9942275936695738,0
177,149.8527777777778,0.7777777777777999,0.7583333333333258,0.7888888888888772,0.9859154929577891,0.025257908374273455,0.8502539879962209,47.22222222222222,0.9444444444255556,0.9612676056338074,0.0,0.9951413641202671,0
178,150.61111111111111,0.7583333333333258,0.8249999999999886,0.7805555555555657,0.971530249110298,0.030082192376378932,1.0126532908693964,47.22222222222222,0.9444444444255556,1.0569395017793313,0.0,0.9895793639249412,0
179,151.4361111111111,0.8249999999999886,0.825000000000017,0.7805555555555657,1.0569395017793313,0.02541168736581636,0.8554306320354624,52.77777777777778,1.0555555555344445,1.0569395017793677,0.0,0.9978742784570729,0
180,152.26111111111112,0.825000000000017,0.8138888888888687,0.7888888888888772,1.045774647887361,0.025127634750413772,0.845868602374574,44.44444444444444,0.8888888888711112,1.03169014084506,0.0,0.9944414029593737,0
181,153.075,0.8138888888888687,0.8277777777777828,0.8041666666666458,1.0120898100172722,0.02481954917547449,0.8354975540338078,44.44444444444444,0.8888888888711112,1.0293609671848343,0.0,0.9981039689053599,0
182,153.90277777777777,0.8277777777777828,0.8444444444444628,0.8152777777777658,1.0153321976150127,0.029103231746955328,0.9796986547639571,38.888888888888886,0.7777777777622222,1.0357751277683511,0.0,0.9549002885404927,0
183,154.74722222222223,0.8444444444444628,0.8388888888888744,0.8166666666666771,1.034013605442186,0.031636642698697634,1.0649805685722362,50.0,0.9999999999800001,1.0272108843537107,0.0,0.9966062994743995,0
184,155.5861111111111,0.8388888888888744,0.8222222222222229,0.8208333333333258,1.0219966159052372,0.030659630184672677,1.0320915116454934,47.22222222222222,0.9444444444255556,1.0016920473773365,0.0,0.9955174802622324,0
185,156.40833333333333,0.8222222222222229,0.8333333333333428,0.8236111111111057,0.9983136593591978,0.030498174847290952,1.026656459682445,47.22222222222222,0.9444444444255556,1.011804384485684,0.0,0.9974105186388509,0
186,157.24166666666667,0.8333333333333428,0.86388888888888,0.8250000000000028,1.0101010101010182,0.02470891140177773,0.8317731677182525,47.22222222222222,0.9444444444255556,1.0471380471380327,0.0,0.9968828414335722,0
187,158.10555555555555,0.86388888888888,0.9277777777777771,0.8263888888888999,1.0453781512604796,0.02624081195867915,0.8833413553297704,50.0,0.9999999999800001,1.1226890756302363,0.0,0.9982290441052541,0
188,159.03333333333333,0.9277777777777771,0.9444444444444571,0.8305555555555628,1.1170568561872805,0.02744839132028832,0.9239919568291379,52.77777777777778,1.0555555555344445,1.1371237458194032,0.0,0.9980590630739617,0
189,159.9777777777778,0.9444444444444571,0.9333333333333087,0.8361111111111086,1.1295681063123109,0.034185215364005275,1.1507728693544783,55.55555555555556,1.111111111088889,1.1162790697674159,0.0,0.996115964588873,0
190,160.9111111111111,0.9333333333333087,0.88055555555556,0.8416666666666686,1.1089108910890773,0.03167668674887507,1.0663285667063003,52.77777777777778,1.0555555555344445,1.0462046204620492,0.0,0.9984151827957137,0
191,161.79166666666666,0.88055555555556,0.8222222222222229,0.8541666666666714,1.0308943089430889,0.025421571997809766,0.8557633772354105,44.44444444444444,0.8888888888711112,0.9626016260162555,0.0,0.9969657872787587,0
192,162.61388888888888,0.8222222222222229,0.8444444444444628,0.8541666666666714,0.9626016260162555,0.029772528772838716,1.0022291215381176,47.22222222222222,0.9444444444255556,0.9886178861788778,0.0,0.9964593287044438,0
193,163.45833333333334,0.8444444444444628,0.8916666666666515,0.8541666666666714,0.9886178861788778,0.02590600497272132,0.8720707872842551,50.0,0.9999999999800001,1.0439024390243667,0.0,0.9983988243421547,0
194,164.35,0.8916666666666515,0.9000000000000057,0.87222222222222,1.0222929936305585,0.03131906586575588,1.0542900171337422,50.0,0.9999999999800001,1.0318471337579709,0.0,0.9985491872699375,0
195,165.25,0.9000000000000057,0.9194444444444514,0.8861111111111057,1.0156739811912352,0.026263949938071508,0.8841202463986986,47.22222222222222,0.9444444444255556,1.0376175548589484,0.0,0.9973086482206838,0
196,166.16944444444445,0.9194444444444514,0.9305555555555429,0.8958333333333286,1.0263565891473,0.031540780406928336,1.0617535675606116,52.77777777777778,1.0555555555344445,1.038759689922472,0.0,0.9991251595012471,0
197,167.1,0.9305555555555429,0.8888888888888857,0.9097222222222285,1.0229007633587577,0.025639614687164622,0.863103322547993,50.0,0.9999999999800001,0.9770992366412111,0.0,0.9981434121411332,0
198,167.98888888888888,0.8888888888888857,0.8555555555555543,0.8958333333333286,0.9922480620155056,0.03070851855033355,1.0337372349276361,50.0,0.9999999999800001,0.9550387596899261,0.0,0.9953370116926279,0
199,168.84444444444443,0.8555555555555543,0.8472222222222285,0.8902777777777686,0.9609984399376059,0.02457171089140038,0.8271546031334558,44.44444444444444,0.8888888888711112,0.9516380655226377,0.0,0.9950127573354492,0
200,169.69166666666666,0.8472222222222285,0.8472222222222285,0.8847222222222229,0.9576138147566784,0.02354813097940521,0.7926979533859587,41.666666666666664,0.8333333333166667,0.9576138147566784,0.0,0.9941518365070569,0
201,170.5388888888889,0.8472222222222285,0.9222222222222172,0.87222222222222,0.9713375796178441,0.030609324916671097,1.0303980913471156,50.0,0.9999999999800001,1.057324840764328,0.0,0.9975888774360612,0
202,171.4611111111111,0.9222222222222172,0.9222222222222172,0.8902777777777686,1.0358814352574153,0.03415790868205442,1.149853647743424,58.333333333333336,1.1666666666433334,1.0358814352574153,0.0,0.9956847361593316,0
203,172.38333333333333,0.9222222222222172,0.8361111111111086,0.8958333333333286,1.0294573643410851,0.028103781403640282,0.9460542758385286,55.55555555555556,1.111111111088889,0.9333333333333355,0.0,0.9972978942669097,0
204,173.21944444444443,0.8361111111111086,0.8694444444444684,0.8944444444444457,0.934782608695648,0.030859492771508457,1.038819462313073,50.0,0.9999999999800001,0.9720496894410192,0.0,0.9990768732144839,0
205,174.0888888888889,0.8694444444444684,0.8944444444444173,0.8791666666666771,0.98894154818327,0.03209995228057631,1.080576904334957,52.77777777777778,1.0555555555344445,1.0173775671405574,0.0,0.9982244617988769,0
206,174.98333333333332,0.8944444444444173,0.2750000000000057,0.8791666666666771,1.0173775671405574,0.028290025241502474,0.9523237801670558,47.22222222222222,0.9444444444255556,0.3127962085308085,0.0,0.9626045767356748,0
207,175.25833333333333,0.2750000000000057,0.9194444444444514,0.8625000000000114,0.31884057971014734,0.05676633335423379,1.9109183786382526,238.88888888888889,4.777777777682222,1.066022544283408,1.0,0.7389019778480543,1
208,176.17777777777778,0.9194444444444514,0.5749999999999886,0.8625000000000114,1.066022544283408,0.039213695310595556,1.320045996202235,216.66666666666666,4.333333333246666,0.6666666666666446,0.0,0.6735373149326324,0
209,176.75277777777777,0.5749999999999886,0.9333333333333371,0.8583333333333485,0.6699029126213342,0.027190127047037622,0.9152980370858856,41.666666666666664,0.8333333333166667,1.0873786407766843,0.0,0.949829361575147,0
210,177.6861111111111,0.9333333333333371,0.9027777777777999,0.8819444444444429,1.0582677165354393,0.032669341773230345,1.0997441956117495,55.55555555555556,1.111111111088889,1.0236220472441213,0.0,0.9916134669923888,0
211,178.5888888888889,0.9027777777777999,0.9305555555555429,0.8986111111111086,1.0046367851623148,0.03080580926906547,1.0370123209074829,50.0,0.9999999999800001,1.035548686244193,0.0,0.9959059049482792,0
212,179.51944444444445,0.9305555555555429,0.8388888888888744,0.8986111111111086,1.035548686244193,0.02484893816218282,0.8364868720241041,50.0,0.9999999999800001,0.9335394126738659,0.0,0.9981684286247781,0
213,180.35833333333332,0.8388888888888744,0.875,0.8819444444444429,0.95118110236219,0.02385120410060484,0.8029002680881895,41.666666666666664,0.8333333333166667,0.9921259842519703,0.0,0.9949263900010941,0
214,181.23333333333332,0.875,0.9194444444444514,0.8847222222222086,0.9890109890110041,0.030713659632071916,1.0339102985553084,50.0,0.9999999999800001,1.0392464678179203,0.0,0.9974242727528345,0
215,182.15277777777777,0.9194444444444514,0.9194444444444514,0.8986111111111086,1.023183925811448,0.030587504375248334,1.029663549037039,50.0,0.9999999999800001,1.023183925811448,0.0,0.9986637397669189,0
216,183.07222222222222,0.9194444444444514,0.8833333333333258,0.9111111111111256,1.009146341463406,0.02444311402523121,0.8228256620080093,47.22222222222222,0.9444444444255556,0.9695121951219274,0.0,0.9977459229410277,0
217,183.95555555555555,0.8833333333333258,0.9444444444444571,0.9111111111111256,0.9695121951219274,0.028958675922596083,0.9748324891128567,44.44444444444444,0.8888888888711112,1.036585365853656,0.0,0.9981568465971838,0
218,184.9,0.9444444444444571,0.9027777777777715,0.9111111111111256,1.036585365853656,0.02895682177898928,0.974770073295496,47.22222222222222,0.9444444444255556,0.9908536585365626,0.0,0.9988099550217258,0
219,185.80277777777778,0.9027777777777715,0.8583333333333201,0.9111111111111256,0.9908536585365626,0.029205360247282895,0.9831365944145749,44.44444444444444,0.8888888888711112,0.9420731707316777,0.0,0.9952574138403392,0
220,186.6611111111111,0.8583333333333201,0.8666666666666742,0.9027777777777857,0.9507692307692077,0.02779943548171435,0.935809114995698,44.44444444444444,0.8888888888711112,0.96,0.0,0.9948829922265232,0
221,187.52777777777777,0.8666666666666742,0.8916666666666799,0.8930555555555486,0.9704510108864857,0.029462317314891663,0.9917865098486139,44.44444444444444,0.8888888888711112,0.998444790046679,0.0,0.9941508590489752,0
222,188.41944444444445,0.8916666666666799,0.9222222222222172,0.8875000000000028,1.004694835680763,0.02885783177270917,0.9714377843995097,44.44444444444444,0.8888888888711112,1.0391236306729175,0.0,0.9954320684582671,0
223,189.34166666666667,0.9222222222222172,0.9499999999999886,0.8972222222222257,1.0278637770897736,0.029497016471162027,0.9929545834500302,47.22222222222222,0.9444444444255556,1.0588235294117478,0.0,0.9960803965264616,0
224,190.29166666666666,0.9499999999999886,0.9027777777777999,0.9111111111111114,1.0426829268292555,0.023965060304887834,0.8067329960526448,44.44444444444444,0.8888888888711112,0.9908536585366093,0.0,0.9964302992478424,0
225,191.19444444444446,0.9027777777777999,0.8499999999999943,0.9027777777777857,1.0000000000000158,0.028340639428526493,0.9540275995700191,44.44444444444444,0.8888888888711112,0.941538461538447,0.0,0.9974781510776148,0
226,192.04444444444445,0.8499999999999943,0.8583333333333201,0.8972222222222257,0.9473684210526215,0.02273156626151908,0.7652100316803411,41.666666666666664,0.8333333333166667,0.9566563467492075,0.0,0.9936510794506656,0
227,192.90277777777777,0.8583333333333201,0.8666666666666742,0.8972222222222257,0.9566563467492075,0.02952012292526055,0.9937324132867135,47.22222222222222,0.9444444444255556,0.9659442724458251,0.0,0.9957233290978675,0
228,193.76944444444445,0.8666666666666742,0.9027777777777715,0.8791666666666771,0.985781990521324,0.024178895849506207,0.8139313167486016,41.666666666666664,0.8333333333166667,1.026856240126363,0.0,0.9976614946111417,0
229,194.67222222222222,0.9027777777777715,0.9305555555555713,0.8791666666666771,1.026856240126363,0.02483540637723606,0.8360313531448208,44.44444444444444,0.8888888888711112,1.058451816745661,0.0,0.9974330209097915,0
230,195.6027777777778,0.9305555555555713,0.9277777777777771,0.8972222222222257,1.0371517027863912,0.024608551690623315,0.8283947706087711,47.22222222222222,0.9444444444255556,1.0340557275541749,0.0,0.9976971563491733,0
231,196.53055555555557,0.9277777777777771,0.9333333333333371,0.9027777777777857,1.027692307692298,0.030016357533628097,1.010437100329446,47.22222222222222,0.9444444444255556,1.033846153846149,0.0,0.9961135767204454,0
232,197.4638888888889,0.9333333333333371,0.86944444444444,0.9125000000000085,1.0228310502283051,0.030842408441685856,1.0382443545349997,50.0,0.9999999999800001,0.9528158295281446,0.0,0.9984904282637792,0
233,198.33333333333334,0.86944444444444,0.8611111111111143,0.9027777777777857,0.9630769230769097,0.02887671816171979,0.9720735546833025,44.44444444444444,0.8888888888711112,0.953846153846149,0.0,0.9947599723665725,0
234,199.19444444444446,0.8611111111111143,0.86388888888888,0.8861111111111057,0.9717868338558088,0.028579395509537597,0.9620648173407832,44.44444444444444,0.8888888888711112,0.9749216300940398,0.0,0.9949785758953957,0
235,200.05833333333334,0.86388888888888,0.9111111111110972,0.8680555555555571,0.995199999999988,0.029020096535129002,0.9769000839420658,44.44444444444444,0.8888888888711112,1.049599999999982,0.0,0.9967250411541309,0
236,200.96944444444443,0.9111111111110972,0.9194444444444514,0.8861111111111057,1.0282131661441911,0.029625968772637356,0.9972954895522301,47.22222222222222,0.9444444444255556,1.0376175548589484,0.0,0.996953652475074,0
237,201.88888888888889,0.9194444444444514,0.8944444444444457,0.9069444444444343,1.0137825421133422,0.030109103662254156,1.0135592023090318,47.22222222222222,0.9444444444255556,0.9862174578866892,0.0,0.9960337346189587,0
238,202.78333333333333,0.8944444444444457,0.8472222222222285,0.9069444444444343,0.9862174578866892,0.027133498455206198,0.9133917554838699,41.666666666666664,0.8333333333166667,0.9341500765696957,0.0,0.9881683410062743,0
239,203.63055555555556,0.8472222222222285,0.8138888888888971,0.9027777777777715,0.938461538461552,0.023536324368361405,0.7923005088321199,44.44444444444444,0.8888888888711112,0.9015384615384769,0.0,0.9950703935786491,0
240,204.44444444444446,0.8138888888888971,0.8666666666666458,0.8819444444444429,0.9228346456693023,0.029940398179539644,1.0078800895595,47.22222222222222,0.9444444444255556,0.9826771653543088,0.0,0.9979611442261815,0
241,205.3111111111111,0.8666666666666458,0.88055555555556,0.8680555555555429,0.9983999999999905,0.030446802711060976,1.024927125524835,47.22222222222222,0.9444444444255556,1.01440000000002,0.0,0.9988491334308318,0
242,206.19166666666666,0.88055555555556,0.9083333333333314,0.8680555555555429,1.01440000000002,0.029743836027950412,1.00126324105402,47.22222222222222,0.9444444444255556,1.046400000000013,0.0,0.9985236782939965,0
243,207.1,0.9083333333333314,0.9444444444444571,0.8736111111111029,1.0397456279809296,0.03071644450249276,1.0340040453195412,50.0,0.9999999999800001,1.0810810810811058,0.0,0.9995160618183325,0
244,208.04444444444445,0.9444444444444571,0.88055555555556,0.8875000000000028,1.0641627543036103,0.024717188106986178,0.8320517854686486,44.44444444444444,0.8888888888711112,0.9921752738654165,0.0,0.9966782835294302,0
245,208.925,0.88055555555556,0.8972222222222115,0.8875000000000028,0.9921752738654165,0.029875155513487607,1.0056838333938567,47.22222222222222,0.9444444444255556,1.010954616588404,0.0,0.9990504288323419,0
246,209.82222222222222,0.8972222222222115,0.88055555555556,0.8875000000000028,1.010954616588404,0.029700886540880024,0.9998174375408049,50.0,0.9999999999800001,0.9921752738654165,0.0,0.9968149163709499,0
247,210.70277777777778,0.88055555555556,0.8722222222222058,0.88055555555556,1.0,0.029242439956606758,0.9843848042924153,44.44444444444444,0.8888888888711112,0.9905362776025001,0.0,0.9950624431358278,0
248,211.575,0.8722222222222058,0.9055555555555657,0.88055555555556,0.9905362776025001,0.029179917644410112,0.9822801230774779,47.22222222222222,0.9444444444255556,1.0283911671924353,0.0,0.9984641317492966,0
249,212.48055555555555,0.9055555555555657,0.9388888888888971,0.88055555555556,1.0283911671924353,0.030483421492422086,1.026159819239076,50.0,0.9999999999800001,1.0662460567823384,0.0,0.9993786164074954,0
250,213.41944444444445,0.9388888888888971,0.9166666666666572,0.8888888888888857,1.056250000000013,0.023519557742925218,0.7917360958993025,44.44444444444444,0.8888888888711112,1.031249999999993,0.0,0.9949418910518859,0
251,214.3361111111111,0.9166666666666572,0.9361111111111029,0.9013888888888886,1.0169491525423626,0.030774000308684088,1.0359415396290999,47.22222222222222,0.9444444444255556,1.038520801232657,0.0,0.9993624325554811,0
252,215.2722222222222,0.9361111111111029,0.9138888888888914,0.9069444444444485,1.0321592649310736,0.03112409729316037,1.0477268130898116,47.22222222222222,0.9444444444255556,1.0076569678407332,0.0,0.9983888739184934,0
253,216.1861111111111,0.9138888888888914,0.8888888888888857,0.9097222222222285,1.0045801526717515,0.02876067615706857,0.9681672463790776,44.44444444444444,0.8888888888711112,0.9770992366412111,0.0,0.9944615017238265,0
254,217.075,0.8888888888888857,0.9083333333333314,0.9013888888888886,0.9861325115562372,0.02889266344825256,0.9726103189815704,44.44444444444444,0.8888888888711112,1.0077041602465313,0.0,0.9968290212602147,0
255,217.98333333333332,0.9083333333333314,0.9444444444444571,0.9069444444444485,1.0015313935681405,0.030440822519016794,1.0247258150259921,47.22222222222222,0.9444444444255556,1.0413476263399786,0.0,0.9991706450336237,0
256,218.92777777777778,0.9444444444444571,0.9583333333333428,0.9111111111111114,1.0365853658536721,0.030734289282440794,1.0346047520404185,50.0,0.9999999999800001,1.0518292682926929,0.0,0.9991027482933685,0
257,219.88611111111112,0.9583333333333428,0.98888888888888,0.9152777777777743,1.0470409711684514,0.02423668541178639,0.8158766799617856,44.44444444444444,0.8888888888711112,1.0804248861911931,0.0,0.9955159193632681,0
258,220.875,0.98888888888888,0.9388888888888971,0.92638888888888,1.0674662668665673,0.031461237289908364,1.0590759170021524,50.0,0.9999999999800001,1.0134932533733318,0.0,0.9972434678514026,0
259,221.8138888888889,0.9388888888888971,0.8555555555555543,0.9375,1.0014814814814903,0.03176327564362457,1.0692433984487393,52.77777777777778,1.0555555555344445,0.9125925925925913,0.0,0.9971795526603248,0
260,222.66944444444445,0.8555555555555543,0.8416666666666686,0.92638888888888,0.9235382308845652,0.023599676472991025,0.7944331232517744,41.666666666666664,0.8333333333166667,0.9085457271364425,0.0,0.9928751291171343,0
261,223.51111111111112,0.8416666666666686,0.8583333333333201,0.9249999999999972,0.9099099099099147,0.030549182031819222,1.0283735085140022,50.0,0.9999999999800001,0.9279279279279165,0.0,0.9994002593162954,0
262,224.36944444444444,0.8583333333333201,0.9277777777777771,0.9111111111111114,0.9420731707316924,0.030498075637065105,1.0266531199803237,50.0,0.9999999999800001,1.0182926829268282,0.0,0.9975246412862859,0
263,225.29722222222222,0.9277777777777771,0.9583333333333428,0.9180555555555543,1.0105900151285938,0.03231364172309294,1.0877703068131095,52.77777777777778,1.0555555555344445,1.0438729198184686,0.0,0.9994524661434202,0
264,226.25555555555556,0.9583333333333428,0.9388888888888971,0.9333333333333371,1.0267857142857202,0.03182192097385223,1.0712175692773187,52.77777777777778,1.0555555555344445,1.0059523809523856,0.0,0.999250447054722,0
265,227.19444444444446,0.9388888888888971,0.8972222222222115,0.9388888888888971,1.0,0.03037297823450677,1.0224419808853096,47.22222222222222,0.9444444444255556,0.9556213017751282,0.0,0.9977747371407175,0
266,228.09166666666667,0.8972222222222115,0.9166666666666572,0.9333333333333371,0.9613095238095084,0.024375992522811203,0.820566158795501,44.44444444444444,0.8888888888711112,0.982142857142843,0.0,0.9956566828152121,0
267,229.00833333333333,0.9166666666666572,0.9166666666666856,0.9222222222222172,0.993975903614453,0.023558354709609867,0.7930421136089628,44.44444444444444,0.8888888888711112,0.9939759036144838,0.0,0.9956924924267455,0
268,229.925,0.9166666666666856,0.9277777777777771,0.9166666666666714,1.0000000000000155,0.02348797479038681,0.7906729226962581,41.666666666666664,0.8333333333166667,1.0121212121212062,0.0,0.9958203888717543,0
269,230.8527777777778,0.9277777777777771,0.9055555555555372,0.9166666666666714,1.0121212121212062,0.02270431020933328,0.7642925144130914,41.666666666666664,0.8333333333166667,0.9878787878787628,0.0,0.9952416165518464,0
270,231.75833333333333,0.9055555555555372,0.9527777777777828,0.9166666666666714,0.9878787878787628,0.02377895775092844,0.8004682477474594,44.44444444444444,0.8888888888711112,1.0393939393939395,0.0,0.9970848060872581,0
271,232.7111111111111,0.9527777777777828,0.9499999999999886,0.9222222222222314,1.0331325301204772,0.030711224447877446,1.0338283232372347,47.22222222222222,0.9444444444255556,1.0301204819276883,0.0,0.9961889608810359,0
272,233.6611111111111,0.9499999999999886,0.8583333333333485,0.9277777777777771,1.0239520958083717,0.023406020040848283,0.7879140896370116,44.44444444444444,0.8888888888711112,0.9251497005988194,0.0,0.9948885072876534,0
273,234.51944444444445,0.8583333333333485,0.8555555555555543,0.9222222222222314,0.9307228915662723,0.026899062342773398,0.9054999603054003,41.666666666666664,0.8333333333166667,0.9277108433734834,0.0,0.9895873114264273,0
274,235.375,0.8555555555555543,0.9361111111111029,0.9166666666666714,0.9333333333333271,0.02964520661178983,0.9979430906606609,44.44444444444444,0.8888888888711112,1.021212121212107,0.0,0.9963641975698263,0
275,236.3111111111111,0.9361111111111029,0.9611111111111086,0.9166666666666714,1.021212121212107,0.031088972956218028,1.0465444266816255,50.0,0.9999999999800001,1.0484848484848404,0.0,0.9995191533491045,0
276,237.2722222222222,0.9611111111111086,0.9277777777777771,0.9222222222222314,1.0421686746987822,0.03133483955864911,1.0548210050955782,50.0,0.9999999999800001,1.0060240963855316,0.0,0.9992258465531396,0
277,238.2,0.9277777777777771,0.8777777777777942,0.9277777777777771,1.0,0.024887322803189577,0.8377790096631432,47.22222222222222,0.9444444444255556,0.9461077844311561,0.0,0.9980564262285039,0
278,239.07777777777778,0.8777777777777942,0.8444444444444343,0.9277777777777771,0.9461077844311561,0.02970463749165881,0.9999437053540846,47.22222222222222,0.9444444444255556,0.9101796407185526,0.0,0.9979227030444046,0
279,239.92222222222222,0.8444444444444343,0.86388888888888,0.9166666666666572,0.9212121212121197,0.030058434965577162,1.011853547954055,47.22222222222222,0.9444444444255556,0.9424242424242425,0.0,0.997723583465207,0
280,240.7861111111111,0.86388888888888,0.8583333333333485,0.9027777777777857,0.9569230769230588,0.029773908883800382,1.002275580050503,47.22222222222222,0.9444444444255556,0.9507692307692392,0.0,0.9982303079069159,0
281,241.64444444444445,0.8583333333333485,0.86944444444444,0.8708333333333371,0.9856459330143672,0.028899783443200974,0.9728499985310286,47.22222222222222,0.9444444444255556,0.9984051036682522,0.0,0.9977819147325595,0
282,242.51388888888889,0.86944444444444,0.9694444444444343,0.86666666666666,1.0032051282051309,0.02874332616022785,0.9675831954835344,47.22222222222222,0.9444444444255556,1.1185897435897405,0.0,0.9982726535134949,0
283,243.48333333333332,0.9694444444444343,0.961111111111137,0.8736111111111171,1.1096979332273258,0.03129892981262783,1.0536121795542828,52.77777777777778,1.0555555555344445,1.1001589825119458,0.0,0.9994413985315111,0
284,244.44444444444446,0.961111111111137,0.9388888888888687,0.9027777777777857,1.064615384615404,0.027900061800503608,0.9391964868865189,44.44444444444444,0.8888888888711112,1.0399999999999685,0.0,0.9957497340518917,0
285,245.38333333333333,0.9388888888888687,0.9138888888888914,0.9027777777777857,1.0399999999999685,0.023837921960413087,0.8024531529708243,44.44444444444444,0.8888888888711112,1.0123076923076864,0.0,0.99697353187166,0
286,246.29722222222222,0.9138888888888914,0.9194444444444514,0.8958333333333428,1.020155038759682,0.02927714692075188,0.9855531407293979,47.22222222222222,0.9444444444255556,1.0263565891472837,0.0,0.9982745680305618,0
287,247.21666666666667,0.9194444444444514,0.9638888888888744,0.8958333333333428,1.0263565891472837,0.02941691598076938,0.9902581700975228,50.0,0.9999999999800001,1.0759689922480344,0.0,0.9968296158697676,0
288,248.18055555555554,0.9638888888888744,0.9805555555555543,0.9166666666666714,1.0515151515151302,0.02984121817263586,1.0045414046949477,50.0,0.9999999999800001,1.0696969696969627,0.0,0.999265054370915,0
289,249.1611111111111,0.9805555555555543,1.00555555555556,0.92916666666666,1.0553064275037431,0.03000163980636088,1.0099416592138253,50.0,0.9999999999800001,1.082212257100162,0.0,0.9971539995109711,0
290,250.16666666666666,1.00555555555556,0.9416666666666629,0.9500000000000028,1.0584795321637441,0.02863979558273155,0.9640980578746957,44.44444444444444,0.8888888888711112,0.9912280701754317,0.0,0.9960568651140215,0
291,251.10833333333332,0.9416666666666629,0.9361111111111313,0.9513888888888999,0.9897810218977947,0.030056292254028887,1.0117814181081448,50.0,0.9999999999800001,0.9839416058394259,0.0,0.9964626203674942,0
292,252.04444444444445,0.9361111111111313,0.9222222222222172,0.9513888888888999,0.9839416058394259,0.02972731181512003,1.0007069884281359,44.44444444444444,0.8888888888711112,0.9693430656934141,0.0,0.9954628907555771,0
293,252.96666666666667,0.9222222222222172,0.9138888888888914,0.9402777777777658,0.980797636632208,0.028665032953069925,0.9649476204932139,44.44444444444444,0.8888888888711112,0.9719350073855395,0.0,0.9949965630330848,0
294,253.88055555555556,0.9138888888888914,0.9611111111111086,0.9375,0.9748148148148175,0.028856818620783303,0.9714036787858281,47.22222222222222,0.9444444444255556,1.0251851851851825,0.0,0.996965022299666,0
295,254.84166666666667,0.9611111111111086,0.9749999999999943,0.9388888888888971,1.0236686390532428,0.024278188835064107,0.8172738048002507,44.44444444444444,0.8888888888711112,1.0384615384615232,0.0,0.9961727457398981,0
296,255.81666666666666,0.9749999999999943,0.9805555555555543,0.9513888888888857,1.0248175182481727,0.022721586788351268,0.7648740938531347,41.666666666666664,0.8333333333166667,1.0306569343065715,0.0,0.990506355678263,0
297,256.7972222222222,0.9805555555555543,0.955555555555577,0.9624999999999915,1.0187590187590265,0.02993771065362678,1.0077896196919482,47.22222222222222,0.9444444444255556,0.9927849927850239,0.0,0.9984812146504787,0
298,257.7527777777778,0.955555555555577,0.9416666666666629,0.9583333333333428,0.9971014492753749,0.028474484084792077,0.9585331964339983,47.22222222222222,0.9444444444255556,0.9826086956521602,0.0,0.9963158096625251,0
299,258.69444444444446,0.9416666666666629,0.9472222222221944,0.94861111111112,0.9926793557832957,0.030430038063613506,1.0243627791768182,44.44444444444444,0.8888888888711112,0.9985358711566232,0.0,0.9956911169813395,0
300,259.64166666666665,0.9472222222221944,0.9611111111111086,0.9444444444444287,1.0029411764705756,0.02386076385017887,0.8032220768096052,44.44444444444444,0.8888888888711112,1.0176470588235438,0.0,0.9968674967446953,0
301,260.60277777777776,0.9611111111111086,0.9444444444444571,0.9513888888888857,1.0102189781021904,0.02378563556608622,0.8006930422508233,47.22222222222222,0.9444444444255556,0.9927007299270239,0.0,0.9972263808917611,0
302,261.5472222222222,0.9444444444444571,0.9972222222222058,0.9513888888888857,0.9927007299270239,0.028894296599478113,0.9726652955584885,47.22222222222222,0.9444444444255556,1.048175182481738,0.0,0.9990833162986337,0
303,262.5444444444444,0.9972222222222058,0.9777777777778169,0.9583333333333428,1.0405797101449001,0.030000654180318963,1.0099084802007259,50.0,0.9999999999800001,1.0202898550724946,0.0,0.9972308839570979,0
304,263.52222222222224,0.9777777777778169,0.919444444444423,0.9611111111111086,1.0173410404624712,0.0296528776441234,0.9982013197165676,44.44444444444444,0.8888888888711112,0.9566473988439108,0.0,0.995087574538527,0
305,264.44166666666666,0.919444444444423,0.9138888888888914,0.9583333333333428,0.9594202898550406,0.022607429212740338,0.7610312208612429,41.666666666666664,0.8333333333166667,0.9536231884057903,0.0,0.9887796137947983,0
306,265.35555555555555,0.9138888888888914,0.9305555555555429,0.9513888888888857,0.9605839416058453,0.024035634759562878,0.8091087355893055,41.666666666666664,0.8333333333166667,0.9781021897810118,0.0,0.9947725064917702,0
307,266.2861111111111,0.9305555555555429,1.0083333333333258,0.9458333333333258,0.9838472834067493,0.030018447409796714,1.0105074515842076,50.0,0.9999999999800001,1.0660792951541855,0.0,0.9971052363087392,0
308,267.2944444444444,1.0083333333333258,1.0083333333333826,0.9458333333333258,1.0660792951541855,0.030144203275170128,1.0147407564352366,47.22222222222222,0.9444444444255556,1.0660792951542457,0.0,0.9965180381058454,0
309,268.3027777777778,1.0083333333333826,0.9777777777777601,0.9541666666666515,1.0567685589520335,0.02962327255643784,0.9972047271445846,47.22222222222222,0.9444444444255556,1.0247452692867518,0.0,0.9966382088730319,0
310,269.28055555555557,0.9777777777777601,0.9527777777777828,0.9694444444444343,1.0085959885386742,0.023946262760280595,0.8061002165275151,44.44444444444444,0.8888888888711112,0.9828080229226516,0.0,0.9966759867107244,0
311,270.23333333333335,0.9527777777777828,0.9111111111110972,0.9652777777777715,0.9870503597122419,0.022978497919912924,0.7735224629474423,41.666666666666664,0.8333333333166667,0.9438848920863228,0.0,0.9916368284131898,0
312,271.14444444444445,0.9111111111110972,0.9361111111111313,0.9652777777777715,0.9438848920863228,0.028944730792966448,0.9743630558603077,47.22222222222222,0.9444444444255556,0.9697841726618978,0.0,0.9973127265021049,0
313,272.0805555555556,0.9361111111111313,0.9472222222221944,0.9444444444444571,0.9911764705882434,0.028657476215318778,0.9646932389223434,44.44444444444444,0.8888888888711112,1.0029411764705454,0.0,0.9950230108302741,0
314,273.02777777777777,0.9472222222221944,0.9916666666666742,0.9416666666666629,1.0058997050147238,0.02382055092167324,0.8018683937443146,44.44444444444444,0.8888888888711112,1.0530973451327557,0.0,0.9971345197124517,0
315,274.01944444444445,0.9916666666666742,1.01111111111112,0.9499999999999886,1.0438596491228276,0.024740066803379115,0.8328219483245747,44.44444444444444,0.8888888888711112,1.064327485380139,0.0,0.9964085572796424,0
316,275.03055555555557,1.01111111111112,0.9638888888889028,0.9652777777777715,1.0474820143885053,0.028755743918305154,0.9680012130078182,47.22222222222222,0.9444444444255556,0.9985611510791577,0.0,0.9945539496421605,0
317,275.99444444444447,0.9638888888889028,0.9277777777777487,0.9708333333333314,0.9928469241774125,0.02279235937753775,0.7672565031684648,38.888888888888886,0.7777777777622222,0.9556509298998289,0.0,0.9920895640666119,0
318,276.9222222222222,0.9277777777777487,0.8999999999999773,0.9583333333333428,0.9681159420289456,0.02810499760917831,0.9460952168219865,41.666666666666664,0.8333333333166667,0.9391304347825757,0.0,0.9901959412826891,0
319,277.8222222222222,0.8999999999999773,0.955555555555577,0.9499999999999886,0.947368421052619,0.027937807581661103,0.9404671186618675,41.666666666666664,0.8333333333166667,1.0058479532164089,0.0,0.9923020165487932,0
320,278.77777777777777,0.955555555555577,1.0055555555555884,0.9499999999999886,1.0058479532164089,0.030004894944645085,1.010051236549629,47.22222222222222,0.9444444444255556,1.0584795321637899,0.0,0.9966571872652141,0
321,279.78333333333336,1.0055555555555884,1.011111111111063,0.9513888888888857,1.056934306569381,0.023916179100715574,0.8050875138468476,41.666666666666664,0.8333333333166667,1.0627737226276903,0.0,0.9968874093077034,0
322,280.7944444444444,1.011111111111063,0.9444444444444571,0.9597222222222399,1.0535455861070218,0.030053670716968114,1.0116931696155314,47.22222222222222,0.9444444444255556,0.9840810419681572,0.0,0.9977544847574528,0
323,281.7388888888889,0.9444444444444571,0.9583333333333144,0.9597222222222399,0.9840810419681572,0.02824914089778244,0.9509474953306608,41.666666666666664,0.8333333333166667,0.9985528219970675,0.0,0.9929262349912448,0
324,282.6972222222222,0.9583333333333144,0.9500000000000455,0.9611111111111086,0.9971098265895783,0.023647656366769954,0.7960482647521974,41.666666666666664,0.8333333333166667,0.9884393063584315,0.0,0.9964516131763133,0
325,283.64722222222224,0.9500000000000455,0.9499999999999886,0.9569444444444457,0.9927431059506994,0.028668040256989675,0.9650488550100629,47.22222222222222,0.9444444444255556,0.99274310595064,0.0,0.9970172051544177,0
326,284.59722222222223,0.9499999999999886,1.0277777777777715,0.9527777777778113,0.9970845481049093,0.030232353442499704,1.017708145112236,47.22222222222222,0.9444444444255556,1.0787172011661361,0.0,0.9963575224409504,0
327,285.625,1.0277777777777715,1.0333333333333599,0.9527777777778113,1.0787172011661361,0.0240988131447813,0.8112355021129278,47.22222222222222,0.9444444444255556,1.084548104956258,0.0,0.9976405266356856,0
328,286.65833333333336,1.0333333333333599,0.9944444444444116,0.9569444444444457,1.079825834542842,0.025372513502764503,0.8541119269078841,47.22222222222222,0.9444444444255556,1.0391872278664374,0.0,0.9983243806631246,0
329,287.65277777777777,0.9944444444444116,0.9055555555555657,0.976388888888863,1.0184921763869066,0.023618463273381293,0.7950655410955965,41.666666666666664,0.8333333333166667,0.9274537695590677,0.0,0.9911354804529355,0
330,288.55833333333334,0.9055555555555657,0.9138888888888914,0.976388888888863,0.9274537695590677,0.02305237012419014,0.7760092142396732,41.666666666666664,0.8333333333166667,0.935988620199174,0.0,0.993417600003299,0
331,289.47222222222223,0.9138888888888914,0.9388888888888687,0.9541666666666799,0.9577874818049383,0.024640084504678646,0.8294562560059783,44.44444444444444,0.8888888888711112,0.9839883551673596,0.0,0.9970986766328784,0
332,290.4111111111111,0.9388888888888687,0.9277777777778056,0.950000000000017,0.9883040935672125,0.030430298342694683,1.0243715409208027,50.0,0.9999999999800001,0.9766081871345147,0.0,0.9975778342150516,0
333,291.3388888888889,0.9277777777778056,0.8777777777777374,0.950000000000017,0.9766081871345147,0.03100332247095997,1.0436611845071209,47.22222222222222,0.9444444444255556,0.9239766081870754,0.0,0.9964495761725132,0
334,292.21666666666664,0.8777777777777374,0.9250000000000114,0.9444444444444287,0.9294117647058551,0.030459051449273626,1.0253394533533668,41.666666666666664,0.8333333333166667,0.9794117647059107,0.0,0.9885787977912461,0
335,293.14166666666665,0.9250000000000114,0.8916666666667084,0.9333333333333371,0.9910714285714367,0.028924511110897937,0.9736824030896976,47.22222222222222,0.9444444444255556,0.9553571428571836,0.0,0.9956062247070119,0
336,294.03333333333336,0.8916666666667084,0.9166666666666288,0.9263888888889085,0.9625187406297098,0.02926871472514828,0.9852692887241848,44.44444444444444,0.8888888888711112,0.98950524737625,0.0,0.9960475580652041,0
337,294.95,0.9166666666666288,0.8972222222222399,0.9208333333333201,0.9954751131221451,0.022958058936798927,0.7728344278716256,41.666666666666664,0.8333333333166667,0.9743589743590076,0.0,0.9950902406747195,0
338,295.84722222222223,0.8972222222222399,0.9361111111111313,0.9152777777777601,0.9802731411229517,0.028870610015491047,0.9718679368778494,44.44444444444444,0.8888888888711112,1.022761760242834,0.0,0.9962462921019487,0
339,296.78333333333336,0.9361111111111313,1.0166666666666515,0.9152777777777601,1.022761760242834,0.029314718153014896,0.9868178966859165,47.22222222222222,0.9444444444255556,1.11077389984826,0.0,0.9980400722539771,0
340,297.8,1.0166666666666515,0.9972222222222058,0.9208333333333201,1.1040723981900447,0.030400873986180306,1.0233810322809007,50.0,0.9999999999800001,1.0829562594268454,0.0,0.999366482566195,0
341,298.7972222222222,0.9972222222222058,0.9750000000000227,0.9263888888889085,1.0764617691154017,0.026082852279059158,0.8780239772813053,47.22222222222222,0.9444444444255556,1.052473763118443,0.0,0.9985567321622435,0
342,299.77222222222224,0.9750000000000227,0.9277777777777487,0.9263888888889085,1.052473763118443,0.029430014780478242,0.990699113445855,44.44444444444444,0.8888888888711112,1.0014992503747602,0.0,0.9972264702579863,0
343,300.7,0.9277777777777487,0.8944444444444457,0.92638888888888,1.0014992503747908,0.028364764736439264,0.9548397269623793,41.666666666666664,0.8333333333166667,0.9655172413793209,0.0,0.9922882288388458,0
344,301.59444444444443,0.8944444444444457,0.955555555555577,0.92638888888888,0.9655172413793209,0.02342537555255385,0.7885656519427063,41.666666666666664,0.8333333333166667,1.0314842578710974,0.0,0.9932237709129057,0
345,302.55,0.955555555555577,0.98888888888888,0.93194444444444,1.0253353204173155,0.030727429034818763,1.034373816334546,50.0,0.9999999999800001,1.0611028315946305,0.0,0.9995991683619045,0
346,303.5388888888889,0.98888888888888,1.0,0.9458333333333542,1.0455212922172952,0.031041402291347577,1.0449430610056405,50.0,0.9999999999800001,1.057268722466937,0.0,0.9993942020701392,0
347,304.5388888888889,1.0,1.01111111111112,0.9652777777777999,1.035971223021559,0.031851316339916884,1.072207102015134,52.77777777777778,1.0555555555344445,1.0474820143884744,0.0,0.9996530342423156,0
348,305.55,1.01111111111112,0.9666666666666401,0.9819444444444514,1.0297029702970315,0.02486616926845295,0.8370669207204042,47.22222222222222,0.9444444444255556,0.9844413012729505,0.0,0.9980676595322775,0
349,306.51666666666665,0.9666666666666401,0.9583333333333712,0.9819444444444514,0.9844413012729505,0.02483698969582706,0.8360846522116444,47.22222222222222,0.9444444444255556,0.9759547383310077,0.0,0.9981400424751103,0
350,307.475,0.9583333333333712,0.98888888888888,0.9708333333333314,0.9871244635193542,0.02469479902157289,0.8312981043293336,44.44444444444444,0.8888888888711112,1.0185979971387626,0.0,0.9977765407804403,0
351,308.4638888888889,0.98888888888888,1.0055555555555316,0.9708333333333314,1.0185979971387626,0.024824494132302137,0.8356640155317622,44.44444444444444,0.8888888888711112,1.035765379112996,0.0,0.997140176981679,0
352,309.46944444444443,1.0055555555555316,1.0611111111111313,0.9777777777777601,1.028409090909085,0.030397355561371103,1.023262591961886,50.0,0.9999999999800001,1.0852272727273131,0.0,0.9973874519695773,0
353,310.53055555555557,1.0611111111111313,1.0388888888888914,0.98888888888888,1.0730337078651986,0.025863083092535655,0.8706259130983416,50.0,0.9999999999800001,1.050561797752821,0.0,0.9986332503820993,0
354,311.56944444444446,1.0388888888888914,0.9916666666666742,0.99444444444444,1.0446927374301749,0.030234182873465788,1.0177697290308894,50.0,0.9999999999800001,0.9972067039106266,0.0,0.9966958075202691,0
355,312.56111111111113,0.9916666666666742,0.9944444444444116,0.9958333333333371,0.9958158995815938,0.03059680985424745,1.0299767982781072,47.22222222222222,0.9444444444255556,0.9986052998604932,0.0,0.9981563202950504,0
356,313.55555555555554,0.9944444444444116,1.0138888888889142,0.9972222222222058,0.9972144846796492,0.024817792219399434,0.8354384098288556,47.22222222222222,0.9444444444255556,1.0167130919220477,0.0,0.9976657567840082,0
357,314.56944444444446,1.0138888888889142,1.0277777777777715,0.9999999999999716,1.013888888888943,0.025535737339019517,0.8596065116397388,50.0,0.9999999999800001,1.0277777777778008,0.0,0.9981766973108566,0
358,315.59722222222223,1.0277777777777715,1.0277777777777715,0.9999999999999716,1.0277777777778008,0.026436900067600504,0.8899422461928808,50.0,0.9999999999800001,1.0277777777778008,0.0,0.9979550859768309,0
359,316.625,1.0277777777777715,1.02222222222224,1.0097222222222229,1.017881705639608,0.030919077384008304,1.0408252520899022,47.22222222222222,0.9444444444255556,1.0123796423659042,0.0,0.9975290136564325,0
360,317.64722222222224,1.02222222222224,0.9444444444444002,1.018055555555577,1.004092769440651,0.034027876228139145,1.1454763805971464,58.333333333333336,1.1666666666433334,0.9276944065483681,0.0,0.9952131460361094,0
361,318.59166666666664,0.9444444444444002,1.02222222222224,1.018055555555577,0.9276944065483681,0.046033537696730395,1.5496215453883662,86.11111111111111,1.7222222221877779,1.004092769440651,0.0,0.5253049754407537,0
362,319.6138888888889,1.02222222222224,0.3777777777777942,1.02222222222224,1.0,0.025078201217761834,0.8442045272003659,50.0,0.9999999999800001,0.36956521739131404,0.0,0.9908415414939351,0
363,319.9916666666667,0.3777777777777942,0.15833333333330302,1.018055555555577,0.37107776261938075,0.014186329176503412,0.47755272442253976,172.22222222222223,3.4444444443755557,0.15552523874485097,1.0,0.4235137532638422,1
364,320.15,0.15833333333330302,1.3555555555555543,1.0041666666666629,0.15767634854768825,0.025320914536606672,0.8523749570011889,169.44444444444446,3.3888888888211115,1.3499308437067812,1.0,0.418763458084218,1
365,321.50555555555553,1.3555555555555543,0.966666666666697,1.018055555555577,1.331514324693013,0.03241745290117367,1.091264890246298,55.55555555555556,1.111111111088889,0.9495225102319333,0.0,0.9944476940829424,0
366,322.47222222222223,0.966666666666697,0.9611111111111086,1.018055555555577,0.9495225102319333,0.02647478201467677,0.8912174617054789,47.22222222222222,0.9444444444255556,0.9440654843110281,0.0,0.9929952710237462,0
367,323.43333333333334,0.9611111111111086,0.9250000000000114,0.9944444444444684,0.9664804469273485,0.03376081532877193,1.1364863410673447,55.55555555555556,1.111111111088889,0.9301675977653521,0.0,0.997462431309178,0
368,324.35833333333335,0.9250000000000114,0.9111111111110972,0.9638888888889028,0.9596541786743495,0.03373107282018115,1.1354851225116513,52.77777777777778,1.0555555555344445,0.9452449567723062,0.0,0.9979222677828691,0
369,325.26944444444445,0.9111111111110972,0.9305555555555429,0.9527777777777544,0.9562682215743529,0.030051774433635544,1.0116293352535566,52.77777777777778,1.0555555555344445,0.9766763848396608,0.0,0.9849652696407974,0
370,326.2,0.9305555555555429,0.9638888888889028,0.9374999999999716,0.9925925925926092,0.02893974128738084,0.9741950947227729,55.55555555555556,1.111111111088889,1.0281481481481942,0.0,0.9931548513113839,0
371,327.1638888888889,0.9638888888889028,1.0138888888889142,0.9458333333333258,1.0190895741556762,0.026563045892427656,0.8941886782029677,52.77777777777778,1.0555555555344445,1.0719530102790367,0.0,0.9983134774786265,0
372,328.1777777777778,1.0138888888889142,1.022222222222183,0.9458333333333258,1.0719530102790367,0.03329537119973579,1.1208181502956378,58.333333333333336,1.1666666666433334,1.0807635829661935,0.0,0.9961849437269226,0
373,329.2,1.022222222222183,0.9444444444444571,0.9625000000000057,1.062049062049015,0.03278340393001349,1.1035838565309055,55.55555555555556,1.111111111088889,0.9812409812409886,0.0,0.9985476797027577,0
374,330.14444444444445,0.9444444444444571,0.9027777777777715,0.9625000000000057,0.9812409812409886,0.028381226684295595,0.9553938835697922,44.44444444444444,0.8888888888711112,0.9379509379509259,0.0,0.9936630730594513,0
375,331.0472222222222,0.9027777777777715,0.9305555555555429,0.9527777777777828,0.9475218658892012,0.031139112099993895,1.0482322547598035,50.0,0.9999999999800001,0.9766763848396317,0.0,0.9930343347617705,0
376,331.97777777777776,0.9305555555555429,0.9250000000000114,0.9375,0.9925925925925791,0.026098911839600045,0.8785645883720188,50.0,0.9999999999800001,0.9866666666666788,0.0,0.9977096844775506,0
377,332.90277777777777,0.9250000000000114,0.9055555555555657,0.9305555555555429,0.9940298507462944,0.02916162160114625,0.9816642255328699,44.44444444444444,0.8888888888711112,0.973134328358233,0.0,0.9930524030763681,0
378,333.80833333333334,0.9055555555555657,0.919444444444423,0.9305555555555429,0.973134328358233,0.031456556202937226,1.0589183381240288,55.55555555555556,1.111111111088889,0.9880597014925276,0.0,0.9984093133708674,0
379,334.72777777777776,0.919444444444423,0.8916666666667084,0.9305555555555429,0.9880597014925276,0.026098677078679734,0.878556685642871,52.77777777777778,1.0555555555344445,0.9582089552239385,0.0,0.9980145036233976,0
380,335.61944444444447,0.8916666666667084,0.8999999999999773,0.9277777777777771,0.9610778443114228,0.03083553241664147,1.0380128877156212,52.77777777777778,1.0555555555344445,0.9700598802394971,0.0,0.9973826950224812,0
381,336.51944444444445,0.8999999999999773,0.86388888888888,0.9222222222222172,0.975903614457812,0.029554744267746607,0.9948978674518942,47.22222222222222,0.9444444444255556,0.9367469879518028,0.0,0.9974346635046553,0
382,337.3833333333333,0.86388888888888,0.8388888888889028,0.9124999999999943,0.9467275494672717,0.02794335513576988,0.9406538653209621,44.44444444444444,0.8888888888711112,0.9193302891933238,0.0,0.994707859604114,0
383,338.22222222222223,0.8388888888889028,0.919444444444423,0.9041666666666686,0.9278033794162961,0.027310889372690512,0.9193632449987725,41.666666666666664,0.8333333333166667,1.0168970814131846,0.0,0.9917653619179098,0
384,339.14166666666665,0.919444444444423,0.9833333333333485,0.9041666666666686,1.0168970814131846,0.029589859984361602,0.9960799636750184,47.22222222222222,0.9444444444255556,1.0875576036866503,0.0,0.9984875372430955,0
385,340.125,0.9833333333333485,0.9916666666666742,0.9124999999999943,1.077625570776279,0.031025641427175458,1.0444125048955288,50.0,0.9999999999800001,1.086757990867595,0.0,0.9994916068957145,0
386,341.1166666666667,0.9916666666666742,0.9499999999999886,0.9124999999999943,1.086757990867595,0.03037899157121518,1.0226444071290715,47.22222222222222,0.9444444444255556,1.0410958904109529,0.0,0.9994299710128478,0
387,342.06666666666666,0.9499999999999886,0.919444444444423,0.9124999999999943,1.0410958904109529,0.0298335488112957,1.004283231889495,50.0,0.9999999999800001,1.0076103500760862,0.0,0.99687673013047,0
388,342.9861111111111,0.919444444444423,0.966666666666697,0.919444444444423,1.0,0.030217793543633464,1.0172180169554466,50.0,0.9999999999800001,1.0513595166163718,0.0,0.9994382249239022,0
389,343.9527777777778,0.966666666666697,0.98888888888888,0.919444444444423,1.0513595166163718,0.025532617160050074,0.8595014774234165,47.22222222222222,0.9444444444255556,1.0755287009063599,0.0,0.9982947067756502,0
390,344.94166666666666,0.98888888888888,0.9916666666666742,0.9347222222222058,1.0579494799405738,0.030562889255166988,1.0288349331554687,50.0,0.9999999999800001,1.0609212481426715,0.0,0.9978583468211063,0
391,345.93333333333334,0.9916666666666742,0.9916666666666742,0.9583333333333428,1.0347826086956498,0.03132935351602217,1.0546363290902354,52.77777777777778,1.0555555555344445,1.0347826086956498,0.0,0.9970695059602517,0
392,346.925,0.9916666666666742,0.9444444444444571,0.9750000000000227,1.017094017094001,0.030500115431299504,1.0267217853328459,50.0,0.9999999999800001,0.9686609686609591,0.0,0.9991345307018046,0
393,347.86944444444447,0.9444444444444571,0.9166666666666288,0.9750000000000227,0.9686609686609591,0.022932487153448904,0.7719736079473726,44.44444444444444,0.8888888888711112,0.9401709401708794,0.0,0.9949528385043536,0
394,348.7861111111111,0.9166666666666288,0.9055555555555657,0.9750000000000227,0.9401709401708794,0.029392554886941393,0.9894381054717324,44.44444444444444,0.8888888888711112,0.9287749287749175,0.0,0.9955469413708772,0
395,349.69166666666666,0.9055555555555657,0.9388888888888687,0.9583333333333428,0.9449275362318853,0.023029394512241688,0.7752357889268423,44.44444444444444,0.8888888888711112,0.9797101449275054,0.0,0.9950132514571377,0
396,350.63055555555553,0.9388888888888687,1.01111111111112,0.9472222222222229,0.9912023460410337,0.025398492878231278,0.8549864675574486,47.22222222222222,0.9444444444255556,1.0674486803519148,0.0,0.9975286573989253,0
397,351.64166666666665,1.01111111111112,1.0027777777777942,0.955555555555577,1.0581395348837064,0.03164757063542387,1.0653484344162472,52.77777777777778,1.0555555555344445,1.0494186046511564,0.0,0.9990030955431686,0
398,352.64444444444445,1.0027777777777942,0.9611111111111086,0.9777777777777885,1.0255681818181874,0.031619624887076966,1.0644076999885421,52.77777777777778,1.0555555555344445,0.9829545454545321,0.0,0.9985298857868763,0
399,353.60555555555555,0.9611111111111086,0.9388888888888687,0.9749999999999943,0.9857549857549889,0.029962363781593313,1.008619515028471,50.0,0.9999999999800001,0.9629629629629478,0.0,0.9991487395860128,0
400,354.5444444444444,0.9388888888888687,0.9194444444444798,0.9527777777777828,0.9854227405247549,0.02988760308620316,1.0061028545647885,50.0,0.9999999999800001,0.9650145772595072,0.0,0.9995687870816263,0
401,355.4638888888889,0.9194444444444798,0.8972222222221831,0.9416666666666629,0.9764011799410445,0.030368325625540402,1.0222853606588986,52.77777777777778,1.0555555555344445,0.9528023598819682,0.0,0.9963397131051981,0
402,356.3611111111111,0.8972222222221831,0.9472222222222513,0.9388888888888687,0.9556213017751268,0.024745065155496997,0.8329902072618811,47.22222222222222,0.9444444444255556,1.008875739645023,0.0,0.9980778017119388,0
403,357.30833333333334,0.9472222222222513,0.9805555555555543,0.9388888888888687,1.008875739645023,0.025859056521259735,0.8704903671048028,47.22222222222222,0.9444444444255556,1.0443786982248733,0.0,0.9983169499213775,0
404,358.2888888888889,0.9805555555555543,1.02222222222224,0.94305555555556,1.039764359351982,0.030624393552661354,1.030905345061656,52.77777777777778,1.0555555555344445,1.083946980854211,0.0,0.9986430463116227,0
405,359.31111111111113,1.02222222222224,0.9499999999999886,0.9541666666666799,1.0713245997088827,0.03211699206682563,1.0811505126479812,55.55555555555556,1.111111111088889,0.9956331877729,0.0,0.9975895923933303,0
406,360.2611111111111,0.9499999999999886,0.8694444444444116,0.9555555555555486,0.9941860465116232,0.03011341217266438,1.0137042391863667,47.22222222222222,0.9444444444255556,0.9098837209302048,0.0,0.9929895057617993,0
407,361.13055555555553,0.8694444444444116,0.9027777777778283,0.94861111111112,0.9165446559296786,0.0254958051909593,0.8582622804534369,50.0,0.9999999999800001,0.9516837481698833,0.0,0.9975298970917018,0
408,362.03333333333336,0.9027777777778283,0.8805555555555316,0.94305555555556,0.9572901325479136,0.03166048750944859,1.0657832536217497,52.77777777777778,1.0555555555344445,0.9337260677466565,0.0,0.998797710226591,0
409,362.9138888888889,0.8805555555555316,0.9416666666666629,0.9291666666666742,0.9476831091180531,0.02561295926886188,0.8622060243482459,47.22222222222222,0.9444444444255556,1.0134529147981939,0.0,0.9982296866605395,0
410,363.85555555555555,0.9416666666666629,0.919444444444423,0.9305555555555713,1.0119402985074415,0.03218933346233592,1.0835857325053975,55.55555555555556,1.111111111088889,0.9880597014924974,0.0,0.998208206791934,0
411,364.775,0.919444444444423,0.9111111111111541,0.9305555555555429,0.9880597014925276,0.025569098617616536,0.860729548422969,50.0,0.9999999999800001,0.9791044776119997,0.0,0.9983502947184314,0
412,365.68611111111113,0.9111111111111541,0.8583333333332916,0.9305555555555429,0.9791044776119997,0.02475538752275256,0.8333376878922861,47.22222222222222,0.9444444444255556,0.9223880597014603,0.0,0.9979995951263805,0
413,366.5444444444444,0.8583333333332916,0.8611111111111427,0.9152777777777885,0.9377845220029783,0.029819594523504935,1.003813490346849,47.22222222222222,0.9444444444255556,0.940819423368764,0.0,0.9969123372555011,0
414,367.40555555555557,0.8611111111111427,0.8583333333333485,0.9069444444444912,0.9494640122511344,0.028770960203714162,0.9685134370273129,47.22222222222222,0.9444444444255556,0.9464012251148225,0.0,0.9958635579388865,0
415,368.2638888888889,0.8583333333333485,0.9305555555555429,0.8916666666666799,0.9626168224299092,0.02854357032979625,0.9608588385441863,44.44444444444444,0.8888888888711112,1.0436137071650793,0.0,0.9932713962411694,0
416,369.19444444444446,0.9305555555555429,1.0083333333333258,0.8916666666666799,1.0436137071650793,0.03152773175737861,1.061314312411166,55.55555555555556,1.111111111088889,1.1308411214953018,0.0,0.9984693640512661,0
417,370.2027777777778,1.0083333333333258,1.0416666666666856,0.9069444444444912,1.1117917304746663,0.030798806488263754,1.0367765871240082,50.0,0.9999999999800001,1.148545176110222,0.0,0.9986312997200505,0
418,371.24444444444447,1.0416666666666856,1.0249999999999773,0.9152777777777885,1.1380880121396129,0.030779116556686675,1.036113767281656,52.77777777777778,1.0555555555344445,1.119878603945334,0.0,0.9967945858060628,0
419,372.26944444444445,1.0249999999999773,0.9638888888889028,0.924999999999983,1.108108108108104,0.029564626757505343,0.9952305405380496,44.44444444444444,0.8888888888711112,1.0420420420420762,0.0,0.9953464612316816,0
420,373.23333333333335,0.9638888888889028,0.9916666666666742,0.924999999999983,1.0420420420420762,0.0275954952242653,0.9289438981836182,41.666666666666664,0.8333333333166667,1.0720720720721,0.0,0.9935039572967557,0
421,374.225,0.9916666666666742,1.0638888888888687,0.9472222222222229,1.0469208211143768,0.026053331574143992,0.8770302252765612,50.0,0.9999999999800001,1.1231671554251978,0.0,0.9984657137528337,0
422,375.2888888888889,1.0638888888888687,0.5416666666666856,0.9777777777777885,1.0880681818181492,0.03113592941984281,1.0481251165735816,52.77777777777778,1.0555555555344445,0.553977272727286,0.0,0.9992762586342958,0
423,375.8305555555556,0.5416666666666856,1.180555555555543,0.9777777777777885,0.553977272727286,0.03161029023345201,1.0640934686454881,52.77777777777778,1.0555555555344445,1.2073863636363376,0.0,0.998793662452039,0
424,377.0111111111111,1.180555555555543,1.0083333333333258,1.0,1.180555555555543,0.028945860122053076,0.9744010723320375,44.44444444444444,0.8888888888711112,1.0083333333333258,0.0,0.9968965660857689,0
425,378.01944444444445,1.0083333333333258,0.9638888888889028,1.0083333333333258,1.0,0.024853774477853495,0.836649676347616,47.22222222222222,0.9444444444255556,0.9559228650137951,0.0,0.997827332433983,0
426,378.98333333333335,0.9638888888889028,0.9749999999999659,1.0083333333333258,0.9559228650137951,0.024724040406504423,0.8322824536184416,47.22222222222222,0.9444444444255556,0.966942148760304,0.0,0.9981657492994971,0
427,379.9583333333333,0.9749999999999659,0.9777777777778169,1.0,0.9749999999999659,0.02997175889070089,1.0089357814772997,50.0,0.9999999999800001,0.9777777777778169,0.0,0.9992359136743916,0
428,380.93611111111113,0.9777777777778169,1.0277777777777715,0.9847222222222456,0.9929478138223011,0.0244743298652044,0.8238764771441071,44.44444444444444,0.8888888888711112,1.0437235543018024,0.0,0.9978799676564379,0
429,381.9638888888889,1.0277777777777715,1.0527777777777487,0.9847222222222456,1.0437235543018024,0.031296285142864685,1.0535231523482398,52.77777777777778,1.0555555555344445,1.069111424541553,0.0,0.9992647316766248,0
430,383.01666666666665,1.0527777777777487,0.9611111111111086,1.0,1.0527777777777487,0.02947066075781065,0.9920673741826818,47.22222222222222,0.9444444444255556,0.9611111111111086,0.0,0.9960439120786118,0
431,383.97777777777776,0.9611111111111086,0.9694444444444343,0.9930555555555713,0.9678321678321499,0.022820849883399143,0.7682155757040732,38.888888888888886,0.7777777777622222,0.9762237762237506,0.0,0.994307688121142,0
432,384.9472222222222,0.9694444444444343,0.9805555555556111,0.9763888888888914,0.9928876244665589,0.024923443761300512,0.83899494521208,47.22222222222222,0.9444444444255556,1.0042674253201112,0.0,0.9983051103178202,0
433,385.9277777777778,0.9805555555556111,1.044444444444423,0.979166666666714,1.0014184397163204,0.0253880814938866,0.8546359903552809,50.0,0.9999999999800001,1.0666666666665932,0.0,0.9983468851199453,0
434,386.97222222222223,1.044444444444423,1.0527777777777487,0.979166666666714,1.0666666666665932,0.025305344381290788,0.8518508207007921,47.22222222222222,0.9444444444255556,1.0751773049644573,0.0,0.9985092146074845,0
435,388.025,1.0527777777777487,1.036111111111154,0.979166666666714,1.0751773049644573,0.032170104322301336,1.0829384242343456,52.77777777777778,1.0555555555344445,1.058156028368787,0.0,0.9992145945173708,0
436,389.06111111111113,1.036111111111154,1.0305555555555088,1.0041666666666913,1.0318118948824517,0.03132998790789861,1.0546576845490843,52.77777777777778,1.0555555555344445,1.0262793914245478,0.0,0.9970131071045706,0
437,390.09166666666664,1.0305555555555088,0.9500000000000455,1.0291666666666401,1.0013495276652975,0.03058722866677542,1.0296542678952616,50.0,0.9999999999800001,0.9230769230769911,0.0,0.9989803660205038,0
438,391.0416666666667,0.9500000000000455,0.9749999999999659,1.0291666666666401,0.9230769230769911,0.024900163040590263,0.8382112490590178,44.44444444444444,0.8888888888711112,0.9473684210526229,0.0,0.9979064421438439,0
439,392.01666666666665,0.9749999999999659,1.02222222222224,1.00555555555556,0.9696132596684701,0.03140647973170413,1.0572326197842596,52.77777777777778,1.0555555555344445,1.0165745856353723,0.0,0.9994329140842895,0
440,393.0388888888889,1.02222222222224,1.0527777777777487,1.0013888888889255,1.0208044382801467,0.026949848674036554,0.9072095745795647,50.0,0.9999999999800001,1.051317614424343,0.0,0.998621504367736,0
441,394.09166666666664,1.0527777777777487,1.0500000000000114,1.0263888888888744,1.0257104194857778,0.025000596695759065,0.8415921353371266,47.22222222222222,0.9444444444255556,1.0230040595399443,0.0,0.9984583807241872,0
442,395.14166666666665,1.0500000000000114,0.9944444444444684,1.0333333333333314,1.0161290322580774,0.030986162639095295,1.0430835351127181,50.0,0.9999999999800001,0.9623655913978745,0.0,0.9992632377033729,0
443,396.1361111111111,0.9944444444444684,0.9388888888888687,1.0333333333333314,0.9623655913978745,0.02948972031160378,0.9927089736921069,44.44444444444444,0.8888888888711112,0.9086021505376165,0.0,0.9927477243154128,0
444,397.075,0.9388888888888687,0.9972222222222058,1.0263888888888744,0.914749661705,0.028330672149199102,0.9536920722226234,41.666666666666664,0.8333333333166667,0.9715832205683334,0.0,0.9953381656993655,0
445,398.0722222222222,0.9972222222222058,1.0388888888888914,1.0097222222222229,0.987620357634096,0.030346612881879512,1.021554447132155,50.0,0.9999999999800001,1.028885832187072,0.0,0.9977577701900762,0
446,399.1111111111111,1.0388888888888914,1.0527777777778056,1.0097222222222229,1.028885832187072,0.02570377484706475,0.8652631384368307,47.22222222222222,0.9444444444255556,1.0426409903714162,0.0,0.9979178532545889,0
447,400.1638888888889,1.0527777777778056,1.055555555555543,1.0097222222222229,1.0426409903714162,0.03130170544328884,1.053705615281571,50.0,0.9999999999800001,1.04539202200824,0.0,0.9993835563373689,0
448,401.21944444444443,1.055555555555543,1.025000000000034,1.0305555555555657,1.0242587601077944,0.030918347041860788,1.0408006666684047,50.0,0.9999999999800001,0.9946091644205085,0.0,0.9988570942226445,0
449,402.24444444444447,1.025000000000034,0.9666666666666401,1.0319444444444628,0.9932705248990733,0.029211495237223165,0.9833431158567204,47.22222222222222,0.9444444444255556,0.9367429340511017,0.0,0.9964938754899422,0
450,403.2111111111111,0.9666666666666401,0.9750000000000227,1.0319444444444628,0.9367429340511017,0.02831355778463156,0.9531159533884765,41.666666666666664,0.8333333333166667,0.9448183041722799,0.0,0.9942664256412417,0
451,404.18611111111113,0.9750000000000227,1.0277777777777715,1.01111111111112,0.9642857142857283,0.03054389408406939,1.028195500953123,52.77777777777778,1.0555555555344445,1.0164835164835013,0.0,0.9989775672202481,0
452,405.2138888888889,1.0277777777777715,1.033333333333303,1.01111111111112,1.0164835164835013,0.03347032267160441,1.1267075210407473,58.333333333333336,1.1666666666433334,1.021978021977983,0.0,0.9963464094615779,0
453,406.2472222222222,1.033333333333303,0.9861111111111427,1.0263888888889028,1.006765899864639,0.029301991394103503,0.9863894773030312,47.22222222222222,0.9444444444255556,0.9607577807848622,0.0,0.9991058295301907,0
454,407.23333333333335,0.9861111111111427,0.98888888888888,1.0263888888889028,0.9607577807848622,0.026355086471069267,0.887188164750656,50.0,0.9999999999800001,0.9634641407306955,0.0,0.9982519904406668,0
455,408.22222222222223,0.98888888888888,0.9833333333333485,1.0263888888889028,0.9634641407306955,0.03107879902916163,1.046201942976122,52.77777777777778,1.0555555555344445,0.9580514208389734,0.0,0.9969869120588531,0
456,409.2055555555556,0.9833333333333485,0.98888888888888,1.006944444444457,0.9765517241379338,0.03058020696851148,1.0294178972954893,50.0,0.9999999999800001,0.9820689655172202,0.0,0.9972863153468412,0
457,410.19444444444446,0.98888888888888,1.0583333333333371,0.98888888888888,1.0,0.03151081991152319,1.060745010940519,52.77777777777778,1.0555555555344445,1.070224719101137,0.0,0.9979524867629983,0
458,411.2527777777778,1.0583333333333371,1.0666666666666629,0.98888888888888,1.070224719101137,0.026208560870233183,0.882255690746541,50.0,0.9999999999800001,1.0786516853932642,0.0,0.9984950612074919,0
459,412.31944444444446,1.0666666666666629,1.0416666666666288,0.98888888888888,1.0786516853932642,0.03207905377781772,1.079873400503589,52.77777777777778,1.0555555555344445,1.053370786516825,0.0,0.9972965570085726,0
460,413.3611111111111,1.0416666666666288,0.9888888888889369,1.0083333333333258,1.0330578512396396,0.02893054808950765,0.9738856251879924,47.22222222222222,0.9444444444255556,0.9807162534435812,0.0,0.9958739296734831,0
461,414.35,0.9888888888889369,0.9861111111110858,1.0083333333333542,0.9807162534435535,0.031136397821190893,1.048140884312869,50.0,0.9999999999800001,0.9779614325068418,0.0,0.9988366844529188,0
462,415.3361111111111,0.9861111111110858,1.0,0.9888888888889085,0.9971910112359098,0.03033243802242565,1.0210772805116517,50.0,0.9999999999800001,1.0112359550561598,0.0,0.9991497682499095,0
463,416.3361111111111,1.0,1.0500000000000114,0.9888888888889085,1.0112359550561598,0.02422648459203535,0.8155332909706772,41.666666666666664,0.8333333333166667,1.0617977528089793,0.0,0.9955735961763826,0
464,417.3861111111111,1.0500000000000114,1.0805555555555202,0.9944444444444684,1.0558659217876953,0.03125330384372479,1.0520762779490842,52.77777777777778,1.0555555555344445,1.0865921787708879,0.0,0.9990483602197653,0
465,418.46666666666664,1.0805555555555202,1.01111111111112,1.0208333333333144,1.0585034013605292,0.029817999714355337,1.0037598044747076,47.22222222222222,0.9444444444255556,0.9904761904762175,0.0,0.99568164776266,0
466,419.47777777777776,1.01111111111112,0.9833333333333485,1.0263888888888744,0.9851150202977221,0.028716814189961245,0.9666907261580941,47.22222222222222,0.9444444444255556,0.9580514208389999,0.0,0.995794588507309,0
467,420.4611111111111,0.9833333333333485,1.0055555555555316,1.0263888888888744,0.9580514208389999,0.030661784631304777,1.0321640365281448,50.0,0.9999999999800001,0.9797023004059445,0.0,0.9965617165580123,0
468,421.46666666666664,1.0055555555555316,1.01111111111112,1.0083333333333258,0.9972451790633445,0.029781982556428787,1.0025473631391244,47.22222222222222,0.9444444444255556,1.0027548209366555,0.0,0.9959965174802461,0
469,422.47777777777776,1.01111111111112,1.0500000000000114,1.0083333333333258,1.0027548209366555,0.023836311249918935,0.8023989318135983,41.666666666666664,0.8333333333166667,1.041322314049606,0.0,0.9967220021787864,0
470,423.52777777777777,1.0500000000000114,1.0861111111111086,1.0083333333333258,1.041322314049606,0.03139636665143448,1.0568921843569559,52.77777777777778,1.0555555555344445,1.077134986225901,0.0,0.9989053919465297,0
471,424.6138888888889,1.0861111111111086,1.0611111111111313,1.01111111111112,1.0741758241758124,0.026195606077311046,0.8818195950816707,50.0,0.9999999999800001,1.0494505494505602,0.0,0.9983889261686418,0
472,425.675,1.0611111111111313,0.9861111111110858,1.0305555555555657,1.029649595687341,0.030238042944276906,1.0178996701389365,50.0,0.9999999999800001,0.9568733153638475,0.0,0.9995951369888841,0
473,426.6611111111111,0.9861111111110858,1.0055555555555884,1.0305555555555657,0.9568733153638475,0.024562532460586758,0.8268456307004582,47.22222222222222,0.9444444444255556,0.9757412398922056,0.0,0.998200968538374,0
474,427.6666666666667,1.0055555555555884,1.0666666666666629,1.01111111111112,0.9945054945055183,0.031020229917229452,1.0442303378750262,52.77777777777778,1.0555555555344445,1.0549450549450419,0.0,0.9995316414219642,0
475,428.73333333333335,1.0666666666666629,1.0500000000000114,1.01111111111112,1.0549450549450419,0.024789104122808388,0.8344726858198398,47.22222222222222,0.9444444444255556,1.0384615384615405,0.0,0.9979036796665315,0
476,429.78333333333336,1.0500000000000114,1.0527777777777487,1.0305555555555657,1.018867924528303,0.02471898666259591,0.8321123300338259,47.22222222222222,0.9444444444255556,1.021563342318021,0.0,0.9980142575258621,0
477,430.8361111111111,1.0527777777777487,1.044444444444423,1.0500000000000114,1.0026455026454641,0.026431824234205908,0.8897713790125027,50.0,0.9999999999800001,0.9947089947089635,0.0,0.9986024944549066,0
478,431.88055555555553,1.044444444444423,1.0,1.0500000000000114,0.9947089947089635,0.03075720348570015,1.0353761101597974,50.0,0.9999999999800001,0.9523809523809421,0.0,0.9980905850286688,0
479,432.88055555555553,1.0,0.9722222222222285,1.0500000000000114,0.9523809523809421,0.029475530940819734,0.9922313185784086,47.22222222222222,0.9444444444255556,0.9259259259259219,0.0,0.9989678649791672,0
480,433.85277777777776,0.9722222222222285,1.02222222222224,1.0472222222222172,0.928381962864732,0.030349356974747582,1.0216468212064422,47.22222222222222,0.9444444444255556,0.9761273209549287,0.0,0.9978347167702011,0
481,434.875,1.02222222222224,1.080555555555577,1.0333333333333314,0.9892473118279759,0.030645965416274113,1.03163151615997,50.0,0.9999999999800001,1.0456989247312054,0.0,0.9995934771075135,0
482,435.9555555555556,1.080555555555577,1.0527777777777487,1.0333333333333314,1.0456989247312054,0.031462726249509826,1.05912603967345,52.77777777777778,1.0555555555344445,1.018817204301049,0.0,0.9995025020193216,0
483,437.0083333333333,1.0527777777777487,0.9694444444444343,1.0472222222222172,1.0053050397877754,0.023702354498129394,0.7978895614912288,44.44444444444444,0.8888888888711112,0.925729442970817,0.0,0.9970814556372855,0
484,437.97777777777776,0.9694444444444343,0.9861111111111427,1.0472222222222172,0.925729442970817,0.029827582000093857,1.0040823718283682,47.22222222222222,0.9444444444255556,0.9416445623342522,0.0,0.99933030859149,0
485,438.9638888888889,0.9861111111111427,0.9944444444444116,1.0333333333333314,0.9543010752688496,0.030754296871819936,1.035278265159863,52.77777777777778,1.0555555555344445,0.9623655913978194,0.0,0.9993881373002389,0
486,439.9583333333333,0.9944444444444116,1.025000000000034,1.01111111111112,0.9835164835164424,0.025318509035459392,0.852293980900029,47.22222222222222,0.9444444444255556,1.0137362637362886,0.0,0.9985665484203137,0
487,440.98333333333335,1.025000000000034,1.01111111111112,1.01111111111112,1.0137362637362886,0.0315551415578483,1.0622370052887469,52.77777777777778,1.0555555555344445,1.0,0.0,0.9986899934565636,0
488,441.99444444444447,1.01111111111112,1.0277777777777715,1.00555555555556,1.0055248618784574,0.025598455509987374,0.861717786025371,47.22222222222222,0.9444444444255556,1.0220994475138014,0.0,0.9977067564182454,0
489,443.02222222222224,1.0277777777777715,1.0499999999999545,1.01666666666668,1.0109289617486146,0.031846351728840074,1.0720399788985102,52.77777777777778,1.0555555555344445,1.0327868852458435,0.0,0.9991074311147936,0
490,444.0722222222222,1.0499999999999545,0.9722222222222285,1.023611111111137,1.025780189959224,0.03026254343328869,1.0187244272083438,50.0,0.9999999999800001,0.949796472184514,0.0,0.9992357269830454,0
491,445.0444444444444,0.9722222222222285,0.9916666666666742,1.018055555555577,0.9549795361527827,0.02408738883082696,0.8108509267808828,44.44444444444444,0.8888888888711112,0.9740791268758395,0.0,0.9954687218274059,0
492,446.0361111111111,0.9916666666666742,1.0472222222222172,1.0027777777777658,0.9889196675900471,0.030844079784338802,1.0383006167454298,52.77777777777778,1.0555555555344445,1.0443213296398965,0.0,0.9995957558275528,0
493,447.0833333333333,1.0472222222222172,1.0666666666666629,1.0027777777777658,1.0443213296398965,0.03020797805192661,1.0168875992168027,50.0,0.9999999999800001,1.0637119113573497,0.0,0.9961727819919599,0
494,448.15,1.0666666666666629,1.0611111111111313,1.018055555555577,1.047748976807614,0.030665627163391305,1.0322933872321762,50.0,0.9999999999800001,1.0422919508867645,0.0,0.9974143989742494,0
495,449.2111111111111,1.0611111111111313,1.0277777777777715,1.0263888888889028,1.0338294993234156,0.030960305349645875,1.042213104230344,52.77777777777778,1.0555555555344445,1.0013531799729167,0.0,0.9970891963489772,0
496,450.2388888888889,1.0277777777777715,1.025000000000034,1.0277777777777715,1.0,0.02979523165643928,1.0029933660287682,47.22222222222222,0.9444444444255556,0.9972972972973366,0.0,0.9961999821821244,0
497,451.2638888888889,1.025000000000034,1.011111111111063,1.0277777777777715,0.9972972972973366,0.023864619922370704,0.8033518833126033,44.44444444444444,0.8888888888711112,0.9837837837837431,0.0,0.997174207855405,0
498,452.275,1.011111111111063,1.0666666666666629,1.0277777777777715,0.9837837837837431,0.03019634193879454,1.01649589411404,47.22222222222222,0.9444444444255556,1.0378378378378406,0.0,0.9977623553084602,0
499,453.34166666666664,1.0666666666666629,1.0861111111111654,1.0374999999999943,1.0281124497991987,0.031820911523037565,1.0711835882537069,52.77777777777778,1.0555555555344445,1.0468540829987194,0.0,0.9979828647442548,0
500,454.4277777777778,1.0861111111111654,1.0472222222222172,1.0374999999999943,1.0468540829987194,0.03146688599558945,1.059266068714685,52.77777777777778,1.0555555555344445,1.0093708165997328,0.0,0.9982976528658773,0
501,455.475,1.0472222222222172,1.0055555555555316,1.0472222222222172,1.0,0.03030637569674814,1.0201999475189352,50.0,0.9999999999800001,0.9602122015914937,0.0,0.996878034727221,0
502,456.48055555555555,1.0055555555555316,0.9972222222222058,1.0472222222222172,0.9602122015914937,0.02591873552689599,0.8724993344266401,50.0,0.9999999999800001,0.9522546419098032,0.0,0.9987920807826606,0
503,457.47777777777776,0.9972222222222058,1.0027777777777942,1.0374999999999943,0.9611780455153843,0.025999765620146807,0.8752270408904257,50.0,0.9999999999800001,0.9665327978581202,0.0,0.9987763157288815,0
504,458.48055555555555,1.0027777777777942,1.0777777777777828,1.0263888888889028,0.976995940460084,0.025410119175235946,0.8553778422210734,47.22222222222222,0.9444444444255556,1.0500676589986375,0.0,0.9985549782266203,0
505,459.55833333333334,1.0777777777777828,1.0861111111111086,1.0263888888889028,1.0500676589986375,0.03142788278471866,1.0579531082313332,52.77777777777778,1.0555555555344445,1.0581867388362485,0.0,0.9971376146970043,0
506,460.64444444444445,1.0861111111111086,1.0305555555555657,1.0361111111111256,1.0482573726541384,0.03155236257272594,1.0621434566406223,52.77777777777778,1.0555555555344445,0.9946380697050896,0.0,0.9992635454947665,0
507,461.675,1.0305555555555657,0.9861111111110858,1.0388888888888914,0.9919786096256757,0.029947031775842466,1.0081033955287693,47.22222222222222,0.9444444444255556,0.9491978609625402,0.0,0.9983557150741167,0
508,462.6611111111111,0.9861111111110858,1.0055555555555884,1.0388888888888914,0.9491978609625402,0.0240360129262933,0.8091214657713105,44.44444444444444,0.8888888888711112,0.9679144385027031,0.0,0.9976987599593767,0
509,463.6666666666667,1.0055555555555884,1.0361111111110972,1.018055555555577,0.9877216916780469,0.031702207894224815,1.0671876820095276,52.77777777777778,1.0555555555344445,1.0177353342428026,0.0,0.9985700621096343,0
510,464.7027777777778,1.0361111111110972,1.0027777777777942,1.018055555555577,1.0177353342428026,0.025786417146650774,0.8680451164121632,47.22222222222222,0.9444444444255556,0.9849931787175943,0.0,0.9986186323255415,0
511,465.7055555555556,1.0027777777777942,1.044444444444423,1.00555555555556,0.9972375690607854,0.030495291190866615,1.026559387496638,50.0,0.9999999999800001,1.0386740331491453,0.0,0.9993949551430148,0
512,466.75,1.044444444444423,0.9944444444444684,1.018055555555577,1.0259208731241045,0.025410957603752404,0.8554060661412494,47.22222222222222,0.9444444444255556,0.9768076398362922,0.0,0.9980358788783239,0
513,467.74444444444447,0.9944444444444684,0.9416666666666629,1.018055555555577,0.9768076398362922,0.031593054218760186,1.063513254717568,52.77777777777778,1.0555555555344445,0.9249658935879713,0.0,0.9979413079264928,0
514,468.68611111111113,0.9416666666666629,0.9055555555555088,1.018055555555577,0.9249658935879713,0.029745733632864795,1.0013271199042473,50.0,0.9999999999800001,0.8894952251022545,0.0,0.9961809136056363,0
515,469.59166666666664,0.9055555555555088,0.9388888888889255,1.0041666666666913,0.9017980636237211,0.023743152219092935,0.7992629303559975,41.666666666666664,0.8333333333166667,0.9349930843706913,0.0,0.9973833718213312,0
516,470.53055555555557,0.9388888888889255,1.0361111111110972,0.9986111111111313,0.940194714881798,0.02734039912034244,0.9203566281504578,52.77777777777778,1.0555555555344445,1.0375521557718705,0.0,0.9985451770439897,0
517,471.56666666666666,1.0361111111110972,1.01111111111112,0.9986111111111313,1.0375521557718705,0.026804305755918856,0.9023101805077965,50.0,0.9999999999800001,1.0125173852572902,0.0,0.9986656838888471,0
518,472.5777777777778,1.01111111111112,0.9805555555555543,1.0041666666666913,1.0069156293222525,0.03111880522961985,1.0475486669795564,50.0,0.9999999999800001,0.9764868603042625,0.0,0.9995814313412764,0
519,473.55833333333334,0.9805555555555543,1.0055555555555316,0.9986111111111313,0.9819193324060985,0.025501766560897372,0.8584629573459435,50.0,0.9999999999800001,1.0069541029206788,0.0,0.9987590167684388,0
520,474.56388888888887,1.0055555555555316,0.9694444444444912,0.9986111111111313,1.0069541029206788,0.03225230936683373,1.085705682944424,52.77777777777778,1.0555555555344445,0.9707927677329896,0.0,0.9985613179766575,0
521,475.53333333333336,0.9694444444444912,0.9611111111111086,0.9875000000000114,0.9817158931083342,0.03016212057418551,1.0153439043569175,50.0,0.9999999999800001,0.9732770745428836,0.0,0.9969868871213989,0
522,476.49444444444447,0.9611111111111086,1.011111111111063,0.9750000000000227,0.9857549857549601,0.03073623381540361,1.0346702106240004,52.77777777777778,1.0555555555344445,1.0370370370369637,0.0,0.9979487769412747,0
523,477.50555555555553,1.011111111111063,1.0277777777778283,0.9750000000000227,1.0370370370369637,0.02733192708874122,0.9200714351507595,50.0,0.9999999999800001,1.0541310541310813,0.0,0.9986008970090723,0
524,478.53333333333336,1.0277777777778283,1.0361111111110972,0.9930555555555429,1.034965034965099,0.03271353375364557,1.1012318250317599,55.55555555555556,1.111111111088889,1.0433566433566426,0.0,0.9982657489441427,0
525,479.56944444444446,1.0361111111110972,0.9611111111111086,1.0083333333332973,1.0275482093664141,0.026033901562386726,0.8763761550844206,50.0,0.9999999999800001,0.9531680440771665,0.0,0.9987505595449342,0
526,480.53055555555557,0.9611111111111086,0.9388888888888687,1.0083333333332973,0.9531680440771665,0.024428816461515866,0.8223443648084365,47.22222222222222,0.9444444444255556,0.9311294765840352,0.0,0.9977602935727308,0
527,481.46944444444443,0.9388888888888687,1.0305555555555657,0.9930555555555429,0.9454545454545371,0.024940876179762848,0.8395817706569421,47.22222222222222,0.9444444444255556,1.037762237762261,0.0,0.9983201381742344,0
528,482.5,1.0305555555555657,1.0749999999999886,0.9930555555555429,1.037762237762261,0.0264416996971686,0.8901038155564522,50.0,0.9999999999800001,1.0825174825174848,0.0,0.9986106921377675,0
529,483.575,1.0749999999999886,1.02222222222224,1.0083333333332973,1.0661157024793657,0.03180659599336165,1.0707016862681242,52.77777777777778,1.0555555555344445,1.0137741046832494,0.0,0.9984593074147217,0
530,484.59722222222223,1.02222222222224,1.0500000000000114,1.0166666666666515,1.0054644808743494,0.025712171510493594,0.8655457943266394,47.22222222222222,0.9444444444255556,1.0327868852459283,0.0,0.9985484434471834,0
531,485.64722222222224,1.0500000000000114,0.9972222222222058,1.025000000000034,1.024390243902416,0.025115763084394647,0.8454689678827804,47.22222222222222,0.9444444444255556,0.9728997289972415,0.0,0.9964023609534742,0
532,486.64444444444445,0.9972222222222058,0.9805555555555543,1.025000000000034,0.9728997289972415,0.030312421643641195,1.0204034715154935,50.0,0.9999999999800001,0.9566395663956309,0.0,0.9978200715708829,0
533,487.625,0.9805555555555543,1.0249999999999773,1.025000000000034,0.9566395663956309,0.025713476906115855,0.8655897377053742,50.0,0.9999999999800001,0.9999999999999445,0.0,0.9985713399296567,0
534,488.65,1.0249999999999773,1.0333333333333599,1.0236111111111086,1.001356852103101,0.026060927190085036,0.8772859155993489,47.22222222222222,0.9444444444255556,1.0094979647218738,0.0,0.9983261150465388,0
535,489.68333333333334,1.0333333333333599,1.0500000000000114,1.0236111111111086,1.0094979647218738,0.03268911882650083,1.1004099482213825,52.77777777777778,1.0555555555344445,1.025780189959308,0.0,0.9970277135598047,0
536,490.73333333333335,1.0500000000000114,1.022222222222183,1.0277777777777715,1.021621621621639,0.031201992867840377,1.0503490026249669,50.0,0.9999999999800001,0.9945945945945626,0.0,0.9989184404389959,0
537,491.75555555555553,1.022222222222183,0.9611111111111086,1.0277777777777715,0.9945945945945626,0.02535117826072902,0.8533937211737936,50.0,0.9999999999800001,0.9351351351351385,0.0,0.9983590608335493,0
538,492.71666666666664,0.9611111111111086,0.8833333333333826,1.0236111111111086,0.9389416553595656,0.024986273641053675,0.8411099800373651,47.22222222222222,0.9444444444255556,0.8629579375848535,0.0,0.9980560968003618,0
539,493.6,0.8833333333333826,0.9277777777777487,1.0222222222222115,0.8641304347826659,0.02911707906378529,0.9801647953557773,47.22222222222222,0.9444444444255556,0.9076086956521551,0.0,0.9963128030532462,0
540,494.52777777777777,0.9277777777777487,0.9944444444444684,1.0097222222221944,0.9188445667125137,0.031243368582938906,1.0517418284380715,52.77777777777778,1.0555555555344445,0.9848693259972998,0.0,0.9983522831892288,0
541,495.52222222222224,0.9944444444444684,1.01111111111112,0.9958333333333371,0.9986052998605502,0.03142617182255273,1.0578955123139144,52.77777777777778,1.0555555555344445,1.0153417015341752,0.0,0.9992900120311918,0
542,496.53333333333336,1.01111111111112,1.0472222222222172,1.0027777777777942,1.0083102493074716,0.026039274034257525,0.876557007970806,50.0,0.9999999999800001,1.044321329639867,0.0,0.9988788657028113,0
543,497.5805555555556,1.0472222222222172,1.0027777777777374,1.0166666666666515,1.0300546448087535,0.031808653416140344,1.0707709450482519,52.77777777777778,1.0555555555344445,0.9863387978141825,0.0,0.9977857282754992,0
544,498.5833333333333,1.0027777777777374,0.9611111111111086,1.0069444444444287,0.9958620689654927,0.023268221189177866,0.7832753831598985,41.666666666666664,0.8333333333166667,0.9544827586207021,0.0,0.9943273033651279,0
545,499.5444444444444,0.9611111111111086,1.0472222222222172,0.9986111111111029,0.9624478442280999,0.031094455868129284,1.0467289972980556,50.0,0.9999999999800001,1.048678720445066,0.0,0.9991498386670771,0
546,500.59166666666664,1.0472222222222172,1.0666666666667197,0.9986111111111029,1.048678720445066,0.032192509078099125,1.0836926328839642,55.55555555555556,1.111111111088889,1.0681502086231496,0.0,0.9982969542392414,0
547,501.65833333333336,1.0666666666667197,1.0472222222222172,0.9986111111111029,1.0681502086231496,0.02623294795331996,0.8830766302456822,50.0,0.9999999999800001,1.048678720445066,0.0,0.9986122821686974,0
548,502.7055555555556,1.0472222222222172,1.022222222222183,1.0069444444444287,1.0400000000000114,0.03202641510297711,1.0781014310062393,55.55555555555556,1.111111111088889,1.0151724137930804,0.0,0.9985793123061676,0
549,503.72777777777776,1.022222222222183,0.966666666666697,1.0166666666666515,1.0054644808742934,0.024413407004002664,0.8218256380592017,44.44444444444444,0.8888888888711112,0.9508196721311916,0.0,0.9976644792233992,0
550,504.69444444444446,0.966666666666697,0.9777777777777601,1.0166666666666515,0.9508196721311916,0.03058084746303858,1.0294394581871469,50.0,0.9999999999800001,0.9617486338797784,0.0,0.9978874758418319,0
551,505.6722222222222,0.9777777777777601,0.955555555555577,1.0166666666666515,0.9617486338797784,0.02593693741334508,0.8731120623815073,50.0,0.9999999999800001,0.9398907103825488,0.0,0.9983667801859561,0
552,506.6277777777778,0.955555555555577,0.9638888888888459,1.0124999999999602,0.9437585733882613,0.02979071116411347,1.0028411932292327,50.0,0.9999999999800001,0.9519890260630951,0.0,0.9985302464847573,0
553,507.59166666666664,0.9638888888888459,0.9444444444444571,0.9902777777777487,0.9733520336605742,0.02430857455286125,0.8182966756315292,44.44444444444444,0.8888888888711112,0.9537166900421165,0.0,0.9974221586951231,0
554,508.5361111111111,0.9444444444444571,0.9777777777778169,0.9722222222222285,0.9714285714285781,0.03062018230604162,1.0307635823638188,50.0,0.9999999999800001,1.0057142857143195,0.0,0.9992675801849805,0
555,509.5138888888889,0.9777777777778169,0.9499999999999886,0.9777777777777885,1.000000000000029,0.025742510194670207,0.8665670818707021,47.22222222222222,0.9444444444255556,0.9715909090908867,0.0,0.9983434962472938,0
556,510.4638888888889,0.9499999999999886,0.9361111111110745,0.9722222222222285,0.9771428571428391,0.03035203880308318,1.021737099277123,50.0,0.9999999999800001,0.9628571428570989,0.0,0.9991155589530514,0
557,511.4,0.9361111111110745,0.9555555555556339,0.9652777777777715,0.9697841726618389,0.030314414049402053,1.0204705416354247,50.0,0.9999999999800001,0.9899280575540444,0.0,0.9967298103962559,0
558,512.3555555555556,0.9555555555556339,0.9944444444444116,0.9597222222222399,0.9956584659913802,0.030570015877012798,1.0290748357853916,47.22222222222222,0.9444444444255556,1.0361794500723056,0.0,0.9973989893738545,0
559,513.35,0.9944444444444116,0.9722222222221717,0.9597222222222399,1.0361794500723056,0.029484080661436752,0.992519126814275,47.22222222222222,0.9444444444255556,1.0130246020259779,0.0,0.9985483754560274,0
560,514.3222222222222,0.9722222222221717,0.9361111111111313,0.9597222222222399,1.0130246020259779,0.0313411751852472,1.0550342805458512,52.77777777777778,1.0555555555344445,0.9753979739507991,0.0,0.998932081627296,0
561,515.2583333333333,0.9361111111111313,0.9138888888888914,0.9555555555556055,0.9796511627906677,0.0308379455608241,1.0380941211033778,52.77777777777778,1.0555555555344445,0.956395348837162,0.0,0.9984446204462099,0
562,516.1722222222222,0.9138888888888914,0.9194444444444798,0.9527777777778113,0.9591836734693567,0.03091006473942099,1.0405218604990705,47.22222222222222,0.9444444444255556,0.9650145772594785,0.0,0.9980046323064132,0
