beat_index,peak_time_s,rr_prev_s,rr_next_s,rr_baseline_s,prematurity_index,aa_ratio,morph_index,qrs_width_ms,width_index,pause_index,pvc_score,morphology_score,is_pvc_candidate
0,0.7361111111111112,,0.8638888888888889,0.8694444444444436,,0.027328200992537154,1.094877519401889,41.666666666666664,1.0714285714010205,0.9936102236421736,0.0,0.9996282474102152,0
1,1.6,0.8638888888888889,0.833333333333333,0.8694444444444436,0.9936102236421736,0.021393297773075963,0.8571014536964136,38.888888888888886,0.9999999999742858,0.958466453674122,0.0,0.9953850453449391,0
2,2.433333333333333,0.833333333333333,0.8472222222222223,0.8694444444444436,0.958466453674122,0.026853812809348128,1.0758716229879461,41.666666666666664,1.0714285714010205,0.9744408945686912,0.0,0.9983980931518208,0
3,3.2805555555555554,0.8472222222222223,0.8361111111111108,0.8694444444444436,0.9744408945686912,0.02126682844311836,0.8520345842635441,36.111111111111114,0.9285714285475513,0.9616613418530358,0.0,0.992949278831029,0
4,4.116666666666666,0.8361111111111108,0.8694444444444445,0.8694444444444436,0.9616613418530358,0.026706994556983377,1.0699894939741872,41.666666666666664,1.0714285714010205,1.000000000000001,0.0,0.9972354315590863,0
5,4.986111111111111,0.8694444444444445,0.9250000000000007,0.8472222222222223,1.0262295081967212,0.028192185626935515,1.1294922148064548,44.44444444444444,1.1428571428277552,1.0918032786885252,0.0,0.9983990369455329,0
6,5.911111111111111,0.9250000000000007,0.8777777777777773,0.8555555555555556,1.081168831168832,0.02281951387707089,0.9142414004678611,38.888888888888886,0.9999999999742858,1.0259740259740253,0.0,0.9965523433465225,0
7,6.788888888888889,0.8777777777777773,0.8361111111111112,0.8638888888888889,1.0160771704180058,0.026498631368502848,1.0616416275705214,38.888888888888886,0.9999999999742858,0.9678456591639872,0.0,0.9980808915710595,0
8,7.625,0.8361111111111112,0.8305555555555557,0.8555555555555556,0.9772727272727274,0.021812251376356027,0.8738864181376887,38.888888888888886,0.9999999999742858,0.9707792207792209,0.0,0.9957252730623593,0
9,8.455555555555556,0.8305555555555557,0.8416666666666668,0.8472222222222223,0.980327868852459,0.026692878516659337,1.0694239486893737,38.888888888888886,0.9999999999742858,0.9934426229508196,0.0,0.9998215075795185,0
10,9.297222222222222,0.8416666666666668,0.8333333333333339,0.8444444444444446,0.9967105263157895,0.027483789585875468,1.1011110235088004,41.666666666666664,1.0714285714010205,0.9868421052631585,0.0,0.9997077567516424,0
11,10.130555555555556,0.8333333333333339,0.8555555555555543,0.838888888888889,0.9933774834437091,0.027542187923992982,1.1034506955418317,41.666666666666664,1.0714285714010205,1.0198675496688725,0.0,0.9995065157628272,0
12,10.98611111111111,0.8555555555555543,0.9083333333333332,0.8444444444444446,1.0131578947368405,0.023632881975826924,0.9468281941089729,41.666666666666664,1.0714285714010205,1.0756578947368418,0.0,0.9958612831619245,0
13,11.894444444444444,0.9083333333333332,0.9111111111111114,0.8486111111111105,1.0703764320785603,0.028021989267069416,1.1226734648875591,44.44444444444444,1.1428571428277552,1.0736497545008195,0.0,0.9981950021851982,0
14,12.805555555555555,0.9111111111111114,0.9138888888888896,0.8624999999999994,1.0563607085346227,0.027637702360038555,1.1072773875671575,41.666666666666664,1.0714285714010205,1.0595813204508873,0.0,0.9994291757250612,0
15,13.719444444444445,0.9138888888888896,0.8777777777777764,0.8666666666666658,1.0544871794871813,0.026469784888866036,1.0604859217091345,38.888888888888886,0.9999999999742858,1.0128205128205123,0.0,0.9979088199102808,0
16,14.597222222222221,0.8777777777777764,0.9027777777777786,0.8666666666666654,1.0128205128205128,0.026117612498000757,1.0463764809223917,38.888888888888886,0.9999999999742858,1.0416666666666692,0.0,0.9977060291059141,0
17,15.5,0.9027777777777786,0.8666666666666671,0.8666666666666654,1.0416666666666692,0.027567527073493626,1.104465883667702,41.666666666666664,1.0714285714010205,1.000000000000002,0.0,0.9982954369927353,0
18,16.366666666666667,0.8666666666666671,0.9027777777777786,0.8722222222222218,0.9936305732484086,0.027149041251203005,1.0876996604121156,41.666666666666664,1.0714285714010205,1.0350318471337594,0.0,0.9986627525862635,0
19,17.269444444444446,0.9027777777777786,0.93611111111111,0.8902777777777775,1.0140405616224661,0.021863130695171578,0.8759248480507607,38.888888888888886,0.9999999999742858,1.0514820592823704,0.0,0.9966464611701326,0
20,18.205555555555556,0.93611111111111,0.8861111111111093,0.9027777777777786,1.0369230769230748,0.024224210753651967,0.9705192005382961,41.666666666666664,1.0714285714010205,0.9815384615384587,0.0,0.9946558132519124,0
21,19.091666666666665,0.8861111111111093,0.8500000000000014,0.9027777777777786,0.9815384615384587,0.02743316471236107,1.0990827876966949,38.888888888888886,0.9999999999742858,0.9415384615384623,0.0,0.9994861316295918,0
22,19.941666666666666,0.8500000000000014,0.8416666666666686,0.9027777777777786,0.9415384615384623,0.02162348888520396,0.8663238344123592,38.888888888888886,0.9999999999742858,0.9323076923076936,0.0,0.9950862710267185,0
23,20.783333333333335,0.8416666666666686,0.8305555555555522,0.8944444444444439,0.9409937888198784,0.027019013739880922,1.082490235939235,38.888888888888886,0.9999999999742858,0.9285714285714253,0.0,0.9987932174802139,0
24,21.613888888888887,0.8305555555555522,0.8805555555555564,0.8819444444444429,0.9417322834645647,0.02733607551219014,1.0951930042940887,38.888888888888886,0.9999999999742858,0.9984251968503964,0.0,0.9995907117415355,0
25,22.494444444444444,0.8805555555555564,0.8888888888888893,0.8791666666666664,1.0015797788309648,0.022835406723523105,0.9148781317442662,38.888888888888886,0.9999999999742858,1.0110584518167465,0.0,0.9968534903804396,0
26,23.383333333333333,0.8888888888888893,0.8916666666666657,0.8833333333333329,1.0062893081761015,0.021721713758319158,0.8702591174355374,38.888888888888886,0.9999999999742858,1.0094339622641504,0.0,0.9965479239780888,0
27,24.275,0.8916666666666657,0.8944444444444457,0.8833333333333329,1.0094339622641504,0.028250919561927167,1.1318453321984825,44.44444444444444,1.1428571428277552,1.0125786163522033,0.0,0.9985500009458618,0
28,25.169444444444444,0.8944444444444457,0.8333333333333321,0.8874999999999993,1.0078247261345876,0.026749287445942217,1.0716839170122876,38.888888888888886,0.9999999999742858,0.9389671361502342,0.0,0.9987528572492956,0
29,26.002777777777776,0.8333333333333321,0.8388888888888886,0.8833333333333329,0.9433962264150935,0.02555403204766565,1.0237971839677622,36.111111111111114,0.9285714285475513,0.9496855345911951,0.0,0.9968277136384034,0
30,26.841666666666665,0.8388888888888886,0.8361111111111121,0.8652777777777789,0.9695024077046532,0.027495239941865788,1.1015697707701504,41.666666666666664,1.0714285714010205,0.9662921348314606,0.0,0.9981741331532412,0
31,27.677777777777777,0.8361111111111121,0.875,0.845833333333335,0.988505747126436,0.022517243119640814,0.9021312195901242,38.888888888888886,0.9999999999742858,1.0344827586206877,0.0,0.9946760287826513,0
32,28.552777777777777,0.875,0.8833333333333329,0.8583333333333343,1.0194174757281542,0.02760138145481882,1.105822226189346,41.666666666666664,1.0714285714010205,1.0291262135922312,0.0,0.9978438460814875,0
33,29.43611111111111,0.8833333333333329,0.8722222222222236,0.8777777777777782,1.0063291139240496,0.027842273150459035,1.1154733152690515,38.888888888888886,0.9999999999742858,0.9936708860759504,0.0,0.9988750718008269,0
34,30.308333333333334,0.8722222222222236,0.8694444444444436,0.8777777777777782,0.9936708860759504,0.023251511451941913,0.9315489588136,41.666666666666664,1.0714285714010205,0.9905063291139226,0.0,0.9949058945260973,0
35,31.177777777777777,0.8694444444444436,0.8250000000000028,0.8736111111111118,0.9952305246422876,0.023319103770953826,0.934256978656933,41.666666666666664,1.0714285714010205,0.9443561208267116,0.0,0.9949233840901059,0
36,32.00277777777778,0.8250000000000028,0.7861111111111114,0.8708333333333336,0.9473684210526346,0.021313276173259888,0.8538954669309795,38.888888888888886,0.9999999999742858,0.9027113237639555,0.0,0.9952841456629531,0
37,32.78888888888889,0.7861111111111114,0.8138888888888829,0.8541666666666661,0.9203252032520335,0.02098657109757594,0.8408063491021649,38.888888888888886,0.9999999999742858,0.9528455284552781,0.0,0.9955767840162018,0
38,33.602777777777774,0.8138888888888829,0.8277777777777828,0.8375000000000004,0.9718076285240389,0.026640955102714112,1.067343688130885,38.888888888888886,0.9999999999742858,0.9883913764510835,0.0,0.9988894338053268,0
39,34.43055555555556,0.8277777777777828,0.8444444444444414,0.8375000000000004,0.9883913764510835,0.0269154188363611,1.0783398079246196,38.888888888888886,0.9999999999742858,1.0082918739635118,0.0,0.9995753602467189,0
40,35.275,0.8444444444444414,0.8388888888888886,0.8402777777777768,1.004958677685948,0.02144545785610058,0.8591911961690112,38.888888888888886,0.9999999999742858,0.9983471074380174,0.0,0.996629378699581,0
41,36.11388888888889,0.8388888888888886,0.8333333333333357,0.841666666666665,0.9966996699669983,0.027092046657782594,1.0854162280310196,38.888888888888886,0.9999999999742858,0.9900990099009949,0.0,0.9996435686127978,0
42,36.94722222222222,0.8333333333333357,0.8277777777777757,0.8361111111111121,0.996677740863789,0.023320206969336153,0.934301177216091,41.666666666666664,1.0714285714010205,0.9900332225913585,0.0,0.9949618215117391,0
43,37.775,0.8277777777777757,0.7972222222222243,0.8305555555555593,0.996655518394642,0.026727141096399936,1.0707966452794253,38.888888888888886,0.9999999999742858,0.9598662207357841,0.0,0.9986270820219696,0
44,38.57222222222222,0.7972222222222243,0.7888888888888914,0.8277777777777793,0.9630872483221484,0.026473494236225626,1.0606345330662004,38.888888888888886,0.9999999999742858,0.9530201342281892,0.0,0.998686371935275,0
45,39.361111111111114,0.7888888888888914,0.80833333333333,0.8263888888888893,0.9546218487394984,0.021421988078688056,0.8582509025989603,36.111111111111114,0.9285714285475513,0.9781512605041972,0.0,0.9937768575644723,0
46,40.169444444444444,0.80833333333333,0.8555555555555543,0.8208333333333293,0.9847715736040618,0.026978045873771467,1.080848898639595,38.888888888888886,0.9999999999742858,1.0423011844331678,0.0,0.9996790297998297,0
47,41.025,0.8555555555555543,0.8694444444444471,0.8277777777777793,1.0335570469798623,0.02749402455907508,1.1015210776529059,41.666666666666664,1.0714285714010205,1.0503355704698,0.0,0.9994541667246717,0
48,41.894444444444446,0.8694444444444471,0.8361111111111086,0.8305555555555593,1.046822742474915,0.02734956094883376,1.0957332850620927,38.888888888888886,0.9999999999742858,1.0066889632106948,0.0,0.9994277782168287,0
49,42.730555555555554,0.8361111111111086,0.8333333333333357,0.8347222222222221,1.0016638935108124,0.026950571719121772,1.0797481736303367,38.888888888888886,0.9999999999742858,0.9983361064891876,0.0,0.9995103629328942,0
50,43.56388888888889,0.8333333333333357,0.8166666666666629,0.8333333333333357,1.0,0.02718701285853024,1.0892209555478436,41.666666666666664,1.0714285714010205,0.9799999999999927,0.0,0.9991080658863865,0
51,44.38055555555555,0.8166666666666629,0.8111111111111171,0.8305555555555557,0.9832775919732394,0.02578735375633489,1.0331449889579314,38.888888888888886,0.9999999999742858,0.9765886287625488,0.0,0.9962932359491714,0
52,45.19166666666667,0.8111111111111171,0.8499999999999943,0.8222222222222193,0.9864864864864973,0.026123587217740617,1.0466158521978624,38.888888888888886,0.9999999999742858,1.0337837837837804,0.0,0.9978735933441216,0
53,46.041666666666664,0.8499999999999943,0.8638888888888943,0.8249999999999993,1.0303030303030243,0.027458414222353657,1.100094384503757,41.666666666666664,1.0714285714010205,1.0471380471380545,0.0,0.9991548890862789,0
54,46.90555555555556,0.8638888888888943,0.9249999999999972,0.8347222222222221,1.034941763727128,0.028236550916001153,1.1312696665184425,41.666666666666664,1.0714285714010205,1.1081530782029918,0.0,0.9976997811244157,0
55,47.830555555555556,0.9249999999999972,0.8805555555555529,0.8430555555555515,1.0971993410214187,0.02802517000732063,1.1228008981202502,41.666666666666664,1.0714285714010205,1.044481054365735,0.0,0.9976959525629421,0
56,48.71111111111111,0.8805555555555529,0.8388888888888886,0.8527777777777743,1.0325732899022813,0.027235265397562835,1.09115414611005,41.666666666666664,1.0714285714010205,0.9837133550488636,0.0,0.9996856826476341,0
57,49.55,0.8388888888888886,0.8555555555555614,0.8444444444444414,0.9934210526315821,0.022065012536377014,0.8840130456445816,38.888888888888886,0.9999999999742858,1.0131578947368527,0.0,0.9957569728308588,0
58,50.40555555555556,0.8555555555555614,0.8305555555555557,0.8444444444444414,1.0131578947368527,0.026550497085061815,1.0637195765399243,38.888888888888886,0.9999999999742858,0.983552631578951,0.0,0.9997673227183129,0
59,51.236111111111114,0.8305555555555557,0.8194444444444429,0.8444444444444414,0.983552631578951,0.02656298112905327,1.0642197374953126,38.888888888888886,0.9999999999742858,0.9703947368421069,0.0,0.998310364289914,0
60,52.05555555555556,0.8194444444444429,0.8555555555555543,0.8444444444444414,0.9703947368421069,0.02128784051738809,0.8528764123721785,36.111111111111114,0.9285714285475513,1.0131578947368443,0.0,0.9927046516773307,0
61,52.91111111111111,0.8555555555555543,0.8861111111111128,0.8527777777777743,1.0032573289902307,0.02672823454680261,1.070840453295357,41.666666666666664,1.0714285714010205,1.0390879478827424,0.0,0.9989015393096172,0
62,53.797222222222224,0.8861111111111128,0.8916666666666657,0.8555555555555578,1.035714285714285,0.02194752104664157,0.8793058645583658,38.888888888888886,0.9999999999742858,1.0422077922077884,0.0,0.9955456724557246,0
63,54.68888888888889,0.8916666666666657,0.8416666666666686,0.8597222222222278,1.0371567043618661,0.02701413272223306,1.0822946827633817,41.666666666666664,1.0714285714010205,0.9789983844911105,0.0,0.9988421843329188,0
64,55.53055555555556,0.8416666666666686,0.8222222222222157,0.8555555555555578,0.9837662337662334,0.02073227506802385,0.830618228555709,36.111111111111114,0.9285714285475513,0.9610389610389509,0.0,0.9927301324202091,0
65,56.352777777777774,0.8222222222222157,0.8527777777777814,0.8486111111111114,0.9689034369885354,0.021783596673014854,0.8727383956051428,38.888888888888886,0.9999999999742858,1.004909983633392,0.0,0.9966719487638542,0
66,57.205555555555556,0.8527777777777814,0.8333333333333357,0.847222222222225,1.0065573770491814,0.02054805587295371,0.8232376675235471,38.888888888888886,0.9999999999742858,0.9836065573770487,0.0,0.9930854254635777,0
67,58.03888888888889,0.8333333333333357,0.8499999999999943,0.847222222222225,0.9836065573770487,0.0214734013403944,0.8603107244092864,38.888888888888886,0.9999999999742858,1.0032786885245801,0.0,0.9958224638835473,0
68,58.888888888888886,0.8499999999999943,0.88333333333334,0.8458333333333314,1.0049261083743797,0.02786687258831552,1.1164588675747573,41.666666666666664,1.0714285714010205,1.0443349753694684,0.0,0.9980360619582416,0
69,59.772222222222226,0.88333333333334,0.8861111111111057,0.8513888888888879,1.0375203915171378,0.02292333118886919,0.9184007390516096,38.888888888888886,0.9999999999742858,1.0407830342577438,0.0,0.9945975923141317,0
70,60.65833333333333,0.8861111111111057,0.8305555555555557,0.8541666666666679,1.037398373983732,0.027558000328498467,1.1040842039906853,38.888888888888886,0.9999999999742858,0.9723577235772346,0.0,0.9996260240212844,0
71,61.48888888888889,0.8305555555555557,0.7972222222222243,0.8513888888888879,0.9755301794453521,0.027379239049985973,1.0969223090223221,41.666666666666664,1.0714285714010205,0.9363784665579155,0.0,0.9995182087789886,0
72,62.28611111111111,0.7972222222222243,0.8472222222222214,0.8458333333333314,0.9425287356321884,0.02601143732400805,1.0421226769067178,38.888888888888886,0.9999999999742858,1.001642036124796,0.0,0.9974641872150339,0
73,63.13333333333333,0.8472222222222214,0.8305555555555557,0.844444444444445,1.0032894736842088,0.021669485418336062,0.8681666403149694,38.888888888888886,0.9999999999742858,0.9835526315789469,0.0,0.9958431098275221,0
74,63.96388888888889,0.8305555555555557,0.8333333333333286,0.8402777777777786,0.9884297520661149,0.02339873889005757,0.937447481452393,38.888888888888886,0.9999999999742858,0.9917355371900761,0.0,0.9964321183547247,0
75,64.79722222222222,0.8333333333333286,0.8694444444444542,0.8402777777777786,0.9917355371900761,0.026772151931245356,1.0725999601487508,38.888888888888886,0.9999999999742858,1.0347107438016636,0.0,0.9996932596035774,0
76,65.66666666666667,0.8694444444444542,0.875,0.8402777777777786,1.0347107438016636,0.021171343367345666,0.8482090685287008,36.111111111111114,0.9285714285475513,1.0413223140495858,0.0,0.9930729810085275,0
77,66.54166666666667,0.875,0.86944444444444,0.8486111111111079,1.0310965630114606,0.027390577236409044,1.097376562320181,38.888888888888886,0.9999999999742858,1.0245499181669382,0.0,0.999717382405422,0
78,67.41111111111111,0.86944444444444,0.8138888888888829,0.8583333333333307,1.012944983818768,0.026314788861571813,1.0542761581785096,38.888888888888886,0.9999999999742858,0.9482200647249149,0.0,0.9982938937121504,0
79,68.225,0.8138888888888829,0.8305555555555628,0.840277777777775,0.9685950413223101,0.025888710172385088,1.037205734171669,38.888888888888886,0.9999999999742858,0.9884297520661276,0.0,0.996398640363632,0
80,69.05555555555556,0.8305555555555628,0.8499999999999943,0.8319444444444457,0.9983305509182042,0.02691694263702274,1.0784008575008042,38.888888888888886,0.9999999999742858,1.0217028380634308,0.0,0.9995286347615508,0
81,69.90555555555555,0.8499999999999943,0.8305555555555628,0.840277777777775,1.0115702479338808,0.0213591212793842,0.8557322060593184,38.888888888888886,0.9999999999742858,0.9884297520661276,0.0,0.9958740195109441,0
82,70.73611111111111,0.8305555555555628,0.8555555555555543,0.840277777777775,0.9884297520661276,0.026439516588033236,1.0592732519786472,38.888888888888886,0.9999999999742858,1.01818181818182,0.0,0.9994633152551438,0
83,71.59166666666667,0.8555555555555543,0.8583333333333343,0.8416666666666615,1.0165016501650213,0.027074079175107273,1.0846963784929244,41.666666666666664,1.0714285714010205,1.0198019801980271,0.0,0.9975820150081331,0
84,72.45,0.8583333333333343,0.8527777777777743,0.8527777777777743,1.0065146579804611,0.027041340459173054,1.0833847340088893,41.666666666666664,1.0714285714010205,1.0,0.0,0.9976841314664484,0
85,73.30277777777778,0.8527777777777743,0.8222222222222229,0.8541666666666643,0.9983739837398361,0.027190103078603235,1.0893447621785417,38.888888888888886,0.9999999999742858,0.9626016260162635,0.0,0.9996626475418255,0
86,74.125,0.8222222222222229,0.8027777777777771,0.8513888888888843,0.965742251223497,0.02144087368385158,0.8590075358123755,36.111111111111114,0.9285714285475513,0.942903752039156,0.0,0.9930340447938344,0
87,74.92777777777778,0.8027777777777771,0.8305555555555628,0.8402777777777786,0.9553719008264446,0.025937453817825744,1.039158600429541,38.888888888888886,0.9999999999742858,0.9884297520661234,0.0,0.9978256778326603,0
88,75.75833333333334,0.8305555555555628,0.8388888888888886,0.8305555555555628,1.0,0.023214419464074883,0.9300629047672092,38.888888888888886,0.9999999999742858,1.0100334448160444,0.0,0.9964010945539352,0
89,76.59722222222223,0.8388888888888886,0.8333333333333286,0.8347222222222257,1.0049916805324413,0.027853986103061043,1.115942583205615,38.888888888888886,0.9999999999742858,0.9983361064891748,0.0,0.9992906632928891,0
90,77.43055555555556,0.8333333333333286,0.86666666666666,0.8361111111111086,0.9966777408637847,0.02278879017285342,0.9130104854482574,38.888888888888886,0.9999999999742858,1.0365448504983341,0.0,0.9964735680699237,0
91,78.29722222222222,0.86666666666666,0.8472222222222285,0.8361111111111086,1.0365448504983341,0.0222323525570928,0.8907173591421291,38.888888888888886,0.9999999999742858,1.013289036544861,0.0,0.9942043059444376,0
92,79.14444444444445,0.8472222222222285,0.8111111111111029,0.8430555555555586,1.0049423393739743,0.02242855484635441,0.8985780110681885,38.888888888888886,0.9999999999742858,0.9621087314662142,0.0,0.9964051908679357,0
93,79.95555555555555,0.8111111111111029,0.7777777777777857,0.8361111111111086,0.9700996677740795,0.02598696660093526,1.0411422814323423,38.888888888888886,0.9999999999742858,0.9302325581395471,0.0,0.9973775349300892,0
94,80.73333333333333,0.7777777777777857,0.7777777777777715,0.8319444444444457,0.9348914858096908,0.026161560494155085,1.0481372142039302,38.888888888888886,0.9999999999742858,0.9348914858096737,0.0,0.9983583701423466,0
95,81.5111111111111,0.7777777777777715,0.8500000000000085,0.8263888888888928,0.9411764705882232,0.02615797434756625,1.0479935387646846,38.888888888888886,0.9999999999742858,1.028571428571434,0.0,0.9979704193122052,0
96,82.36111111111111,0.8500000000000085,0.8472222222222143,0.8319444444444457,1.0217028380634479,0.027808158527589895,1.114106546425669,41.666666666666664,1.0714285714010205,1.018363939899822,0.0,0.999345271805774,0
97,83.20833333333333,0.8472222222222143,0.8472222222222285,0.8361111111111086,1.0132890365448441,0.027809179188349995,1.114147438196096,38.888888888888886,0.9999999999742858,1.013289036544861,0.0,0.9995839150198411,0
98,84.05555555555556,0.8472222222222285,0.87222222222222,0.8430555555555515,1.0049423393739827,0.02215260900693389,0.887522512162991,38.888888888888886,0.9999999999742858,1.034596375617795,0.0,0.9951092040799652,0
99,84.92777777777778,0.87222222222222,0.8499999999999943,0.8472222222222214,1.0295081967213098,0.025900669426253117,1.0376848699264338,38.888888888888886,0.9999999999742858,1.0032786885245844,0.0,0.9981558000801902,0
100,85.77777777777777,0.8499999999999943,0.8361111111111228,0.8472222222222285,1.003278688524576,0.026564076839361156,1.064263636052126,41.666666666666664,1.0714285714010205,0.9868852459016457,0.0,0.9983001180179638,0
101,86.6138888888889,0.8361111111111228,0.8249999999999886,0.8472222222222214,0.986885245901654,0.02569141308890828,1.0293012203911496,38.888888888888886,0.9999999999742858,0.9737704918032661,0.0,0.9954679853882309,0
102,87.43888888888888,0.8249999999999886,0.8722222222222342,0.8416666666666686,0.9801980198019645,0.026189666626126703,1.0492632587635948,38.888888888888886,0.9999999999742858,1.0363036303630482,0.0,0.9958631710895673,0
103,88.31111111111112,0.8722222222222342,0.9027777777777715,0.8472222222222214,1.0295081967213267,0.027482611241167212,1.1010638142859348,38.888888888888886,0.9999999999742858,1.065573770491797,0.0,0.9996627030016063,0
104,89.21388888888889,0.9027777777777715,0.8861111111111057,0.8486111111111114,1.0638297872340348,0.02345993999235103,0.9398994434780683,41.666666666666664,1.0714285714010205,1.0441898527004843,0.0,0.9943482543995906,0
105,90.1,0.8861111111111057,0.8944444444444457,0.8500000000000014,1.0424836601307108,0.026516892415701973,1.062373238482799,41.666666666666664,1.0714285714010205,1.0522875816993462,0.0,0.9980141593469334,0
106,90.99444444444444,0.8944444444444457,0.8555555555555543,0.8611111111111072,1.0387096774193612,0.02732871362617961,1.0948980575650475,41.666666666666664,1.0714285714010205,0.9935483870967773,0.0,0.9996363996114984,0
107,91.85,0.8555555555555543,0.8583333333333343,0.8638888888888872,0.9903536977491967,0.022898855122151576,0.917420129489355,38.888888888888886,0.9999999999742858,0.9935691318328005,0.0,0.9967280696116734,0
108,92.70833333333333,0.8583333333333343,0.8444444444444485,0.8652777777777771,0.9919743178170163,0.022507688504219095,0.9017484233118538,38.888888888888886,0.9999999999742858,0.9759229534510488,0.0,0.9939091095225501,0
109,93.55277777777778,0.8444444444444485,0.8388888888888886,0.8569444444444443,0.9854132901134571,0.021768457263719017,0.8721318500480618,38.888888888888886,0.9999999999742858,0.9789303079416529,0.0,0.9940076182911473,0
110,94.39166666666667,0.8388888888888886,0.9111111111111114,0.8569444444444443,0.9789303079416529,0.02302084302344782,0.9223074548864694,38.888888888888886,0.9999999999742858,1.063209076175041,0.0,0.9958323681966665,0
111,95.30277777777778,0.9111111111111114,0.8916666666666657,0.8652777777777843,1.052969502407697,0.02303376316862049,0.9228250878071593,38.888888888888886,0.9999999999742858,1.0304975922953363,0.0,0.9966055498994677,0
112,96.19444444444444,0.8916666666666657,0.8555555555555543,0.87916666666667,1.0142180094786681,0.021694805987001974,0.869181084017954,36.111111111111114,0.9285714285475513,0.9731437598736126,0.0,0.9935635620542458,0
113,97.05,0.8555555555555543,0.8361111111111086,0.87222222222222,0.9808917197452239,0.02763523521091267,1.1071785436617108,38.888888888888886,0.9999999999742858,0.9585987261146492,0.0,0.9990412221248027,0
114,97.8861111111111,0.8361111111111086,0.8388888888888886,0.8569444444444443,0.9756888168557509,0.027015193108463065,1.082337166095725,38.888888888888886,0.9999999999742858,0.9789303079416529,0.0,0.998707741182778,0
115,98.725,0.8388888888888886,0.8500000000000085,0.8555555555555543,0.9805194805194816,0.021489319037509128,0.8609484513030663,38.888888888888886,0.9999999999742858,0.9935064935065049,0.0,0.9957735042818789,0
116,99.575,0.8500000000000085,0.8555555555555543,0.8527777777777814,0.9967426710097778,0.021560492544721123,0.8637999479326718,36.111111111111114,0.9285714285475513,1.0032573289902222,0.0,0.9936375230730976,0
117,100.43055555555556,0.8555555555555543,0.8944444444444457,0.8527777777777814,1.0032573289902222,0.021683423702515515,0.8687250639745174,38.888888888888886,0.9999999999742858,1.048859934853417,0.0,0.995696334686994,0
118,101.325,0.8944444444444457,0.9083333333333314,0.8527777777777814,1.048859934853417,0.023829855676448568,0.9547197518731642,41.666666666666664,1.0714285714010205,1.0651465798045534,0.0,0.9962749753062727,0
119,102.23333333333333,0.9083333333333314,0.86666666666666,0.8555555555555543,1.0616883116883111,0.028049866899688875,1.1237903548452086,41.666666666666664,1.0714285714010205,1.0129870129870067,0.0,0.9992762765877536,0
120,103.1,0.86666666666666,0.8388888888888886,0.8611111111111072,1.0064516129032228,0.02243785099926831,0.8989504523000548,38.888888888888886,0.9999999999742858,0.9741935483871009,0.0,0.9950666099850556,0
121,103.93888888888888,0.8388888888888886,0.8361111111111228,0.8555555555555543,0.9805194805194816,0.02668478365562593,1.0690996360362803,38.888888888888886,0.9999999999742858,0.9772727272727424,0.0,0.99977275509858,0
122,104.775,0.8361111111111228,0.8555555555555543,0.8527777777777814,0.9804560260586415,0.022034700048837126,0.8827986056170937,38.888888888888886,0.9999999999742858,1.0032573289902222,0.0,0.993706170159994,0
123,105.63055555555556,0.8555555555555543,0.8499999999999943,0.8527777777777814,1.0032573289902222,0.021188645974165657,0.8489022804689756,38.888888888888886,0.9999999999742858,0.9967426710097611,0.0,0.9939877187402393,0
124,106.48055555555555,0.8499999999999943,0.875,0.8527777777777814,0.9967426710097611,0.021972145973897232,0.8802924380718031,36.111111111111114,0.9285714285475513,1.0260586319218197,0.0,0.9939909891600918,0
125,107.35555555555555,0.875,0.9083333333333314,0.8555555555555543,1.0227272727272743,0.02337924042481202,0.9366662946020028,41.666666666666664,1.0714285714010205,1.0616883116883111,0.0,0.9945703062349094,0
126,108.26388888888889,0.9083333333333314,0.8583333333333343,0.8611111111111072,1.0548387096774219,0.021915763963984796,0.8780335482470145,38.888888888888886,0.9999999999742858,0.9967741935483928,0.0,0.9940382794851548,0
127,109.12222222222222,0.8583333333333343,0.8166666666666629,0.8624999999999972,0.9951690821256083,0.025890758835012958,1.0372878118267883,38.888888888888886,0.9999999999742858,0.9468599033816413,0.0,0.9975994033828798,0
128,109.93888888888888,0.8166666666666629,0.8194444444444571,0.8569444444444443,0.9529983792544529,0.025470826311721192,1.020463627917155,38.888888888888886,0.9999999999742858,0.9562398703403715,0.0,0.9975230486177554,0
129,110.75833333333334,0.8194444444444571,0.8472222222222143,0.8527777777777743,0.9609120521172826,0.02672980833512031,1.0709035055778626,41.666666666666664,1.0714285714010205,0.9934853420195388,0.0,0.9982062534940279,0
130,111.60555555555555,0.8472222222222143,0.8416666666666686,0.8486111111111043,0.9983633387888694,0.026909713232370673,1.0781112185072104,38.888888888888886,0.9999999999742858,0.9918166939443637,0.0,0.9996331142422332,0
131,112.44722222222222,0.8416666666666686,0.8527777777777743,0.8486111111111043,0.9918166939443637,0.026518882401568352,1.0624529653111263,38.888888888888886,0.9999999999742858,1.004909983633392,0.0,0.9988216747953162,0
132,113.3,0.8527777777777743,0.88333333333334,0.8513888888888843,1.0016313213703112,0.027738513648321604,1.1113162927725606,41.666666666666664,1.0714285714010205,1.0375203915171423,0.0,0.996974901131388,0
133,114.18333333333334,0.88333333333334,0.8555555555555543,0.8513888888888843,1.0375203915171423,0.023149584329897027,0.9274653488249749,38.888888888888886,0.9999999999742858,1.0048939641109338,0.0,0.9949970669871869,0
134,115.03888888888889,0.8555555555555543,0.8138888888888829,0.8541666666666643,1.001626016260164,0.021594260003431245,0.8651528079851554,38.888888888888886,0.9999999999742858,0.9528455284552801,0.0,0.9951244138948168,0
135,115.85277777777777,0.8138888888888829,0.8055555555555571,0.8499999999999943,0.9575163398692804,0.021668039117322093,0.8681086956860157,38.888888888888886,0.9999999999742858,0.9477124183006618,0.0,0.9938961836287398,0
136,116.65833333333333,0.8055555555555571,0.8027777777777771,0.8444444444444414,0.9539473684210579,0.022011465868265388,0.8818677510029657,36.111111111111114,0.9285714285475513,0.9506578947368447,0.0,0.9939284439730702,0
137,117.46111111111111,0.8027777777777771,0.8500000000000085,0.8305555555555628,0.9665551839464791,0.027236825776792976,1.0912166611706384,38.888888888888886,0.9999999999742858,1.0234113712374595,0.0,0.9996585897539594,0
138,118.31111111111112,0.8500000000000085,0.8611111111111001,0.8444444444444414,1.0065789473684348,0.02187383414933696,0.8763536714244188,38.888888888888886,0.9999999999742858,1.0197368421052537,0.0,0.9952147850416649,0
139,119.17222222222222,0.8611111111111001,0.8361111111111228,0.8486111111111114,1.0147299509001502,0.023059584568172174,0.9238595968074536,38.888888888888886,0.9999999999742858,0.9852700490998497,0.0,0.9960069461793379,0
140,120.00833333333334,0.8361111111111228,0.8861111111111057,0.8458333333333385,0.9885057471264445,0.027688205598167974,1.1093007501770857,41.666666666666664,1.0714285714010205,1.0476190476190348,0.0,0.9995198829887512,0
141,120.89444444444445,0.8861111111111057,0.8472222222222143,0.8513888888888914,1.0407830342577393,0.022278528972020064,0.8925673718321062,38.888888888888886,0.9999999999742858,0.9951060358890579,0.0,0.9964323464427349,0
142,121.74166666666666,0.8472222222222143,0.7944444444444514,0.8486111111111114,0.9983633387888611,0.025917076385144497,1.0383421986125347,36.111111111111114,0.9285714285475513,0.9361702127659652,0.0,0.9974839756379679,0
143,122.53611111111111,0.7944444444444514,0.8083333333333371,0.8416666666666686,0.94389438943895,0.026062000361236928,1.0441484353088057,38.888888888888886,0.9999999999742858,0.9603960396039627,0.0,0.9984160700808247,0
144,123.34444444444445,0.8083333333333371,0.8361111111111086,0.8250000000000028,0.979797979797981,0.026203794550406438,1.0498292801674158,38.888888888888886,0.9999999999742858,1.013468013468007,0.0,0.9981153174420986,0
145,124.18055555555556,0.8361111111111086,0.8611111111111143,0.8361111111111157,0.9999999999999915,0.02175717957320559,0.8716800204593781,38.888888888888886,0.9999999999742858,1.0299003322259117,0.0,0.9959226625099582,0
146,125.04166666666667,0.8611111111111143,0.8555555555555543,0.8416666666666686,1.0231023102310246,0.022824327640879463,0.9144342591847284,38.888888888888886,0.9999999999742858,1.0165016501650128,0.0,0.9958449081500127,0
147,125.89722222222223,0.8555555555555543,0.8499999999999943,0.8486111111111114,1.0081833060556447,0.026772085649339143,1.0725973046293087,41.666666666666664,1.0714285714010205,1.0016366612111223,0.0,0.9981387357971598,0
148,126.74722222222222,0.8499999999999943,0.8361111111111086,0.8486111111111043,1.0016366612111307,0.02734597908291989,1.0955897811238833,41.666666666666664,1.0714285714010205,0.9852700490998413,0.0,0.9996032772684246,0
149,127.58333333333333,0.8361111111111086,0.7944444444444372,0.8416666666666686,0.9933993399339882,0.025695704309205744,1.0294731439157085,38.888888888888886,0.9999999999742858,0.9438943894389331,0.0,0.9959172489868251,0
150,128.37777777777777,0.7944444444444372,0.7861111111111256,0.8416666666666615,0.9438943894389411,0.025141596942018774,1.007273376728924,36.111111111111114,0.9285714285475513,0.9339933993399571,0.0,0.995484532102966,0
151,129.1638888888889,0.7861111111111256,0.7944444444444514,0.8361111111111086,0.940199335548193,0.02214546803937996,0.8872364163148336,36.111111111111114,0.9285714285475513,0.9501661129568219,0.0,0.9944545721575091,0
152,129.95833333333334,0.7944444444444514,0.8499999999999943,0.8222222222222229,0.9662162162162239,0.022101389092316452,0.8854704366137944,38.888888888888886,0.9999999999742858,1.033783783783776,0.0,0.9964069056516258,0
153,130.80833333333334,0.8499999999999943,0.8333333333333428,0.8361111111111086,1.0166112956810593,0.02757844742797067,1.104903396939215,41.666666666666664,1.0714285714010205,0.9966777408638017,0.0,0.9984913514559631,0
154,131.64166666666668,0.8333333333333428,0.8111111111111029,0.8361111111111086,0.9966777408638017,0.021851356060294005,0.8754531088744373,38.888888888888886,0.9999999999742858,0.9700996677740795,0.0,0.9968354848888052,0
155,132.45277777777778,0.8111111111111029,0.8222222222222229,0.8347222222222257,0.9717138103161259,0.02713462981224108,1.0871222802711413,41.666666666666664,1.0714285714010205,0.9850249584026589,0.0,0.9982035787492698,0
156,133.275,0.8222222222222229,0.7861111111110972,0.8277777777777828,0.9932885906040215,0.02120881817383526,0.8497104598270375,36.111111111111114,0.9285714285475513,0.9496644295301787,0.0,0.9934070475026915,0
157,134.0611111111111,0.7861111111110972,0.7750000000000057,0.8166666666666629,0.9625850340135929,0.025737858728414557,1.031162019299338,36.111111111111114,0.9285714285475513,0.9489795918367461,0.0,0.9969773903282393,0
158,134.8361111111111,0.7750000000000057,0.7916666666666572,0.8027777777777771,0.9653979238754403,0.025721551145281213,1.0305086720053338,38.888888888888886,0.9999999999742858,0.986159169550162,0.0,0.9964904445620097,0
159,135.62777777777777,0.7916666666666572,0.8000000000000114,0.7944444444444443,0.9965034965034848,0.027009571601239058,1.082111945932627,41.666666666666664,1.0714285714010205,1.0069930069930215,0.0,0.9994979014061028,0
160,136.42777777777778,0.8000000000000114,0.8555555555555543,0.7972222222222314,1.003484320557494,0.02703988552126985,1.0833264433514553,41.666666666666664,1.0714285714010205,1.0731707317073031,0.0,0.9992965998133312,0
161,137.28333333333333,0.8555555555555543,0.8499999999999943,0.8055555555555571,1.0620689655172377,0.027187901778235442,1.0892565692423581,41.666666666666664,1.0714285714010205,1.0551724137930942,0.0,0.9976185833421441,0
162,138.13333333333333,0.8499999999999943,0.825000000000017,0.8166666666666629,1.04081632653061,0.026460183465610198,1.0601012501209846,38.888888888888886,0.9999999999742858,1.0102040816326787,0.0,0.9996589092672017,0
163,138.95833333333334,0.825000000000017,0.8333333333333144,0.8166666666666629,1.0102040816326787,0.02151273382205083,0.8618865416377849,38.888888888888886,0.9999999999742858,1.0204081632652877,0.0,0.9939523390408804,0
164,139.79166666666666,0.8333333333333144,0.8138888888888971,0.8166666666666629,1.0204081632652877,0.02709212548866893,1.0854193863130195,38.888888888888886,0.9999999999742858,0.996598639455797,0.0,0.9997875111692919,0
165,140.60555555555555,0.8138888888888971,0.8027777777777771,0.81805555555556,0.9949066213921948,0.02602989471488565,1.0428621541355414,38.888888888888886,0.9999999999742858,0.9813242784380245,0.0,0.9981632714830118,0
166,141.40833333333333,0.8027777777777771,0.8416666666666686,0.8083333333333371,0.9931271477663176,0.026614037551470904,1.0662652628901756,38.888888888888886,0.9999999999742858,1.0412371134020593,0.0,0.9997115627709103,0
167,142.25,0.8416666666666686,0.8611111111111143,0.8194444444444571,1.027118644067783,0.027317444679568512,1.0944465782922186,41.666666666666664,1.0714285714010205,1.0508474576271063,0.0,0.9995269848746171,0
168,143.11111111111111,0.8611111111111143,0.8916666666666515,0.8291666666666657,1.0385259631490837,0.02215350778151574,0.8875585206834548,36.111111111111114,0.9285714285475513,1.0753768844220934,0.0,0.9942821847811334,0
169,144.00277777777777,0.8916666666666515,0.8527777777777885,0.8374999999999915,1.0646766169154156,0.02291896818055633,0.9182259394107545,38.888888888888886,0.9999999999742858,1.0182421227197578,0.0,0.9960850006360136,0
170,144.85555555555555,0.8527777777777885,0.8305555555555486,0.8458333333333314,1.0082101806239887,0.02597748244401301,1.0407623080046189,38.888888888888886,0.9999999999742858,0.9819376026272518,0.0,0.9984190910347494,0
171,145.6861111111111,0.8305555555555486,0.8416666666666686,0.8374999999999915,0.9917081260364861,0.027239191302045128,1.0913114336154424,41.666666666666664,1.0714285714010205,1.004975124378122,0.0,0.9977899785174291,0
172,146.52777777777777,0.8416666666666686,0.8194444444444571,0.8374999999999915,1.004975124378122,0.02607413816368429,1.0446347244369554,38.888888888888886,0.9999999999742858,0.9784411276948841,0.0,0.9978168992732626,0
173,147.34722222222223,0.8194444444444571,0.8083333333333371,0.8374999999999915,0.9784411276948841,0.02527507938837623,1.0126212197790925,36.111111111111114,0.9285714285475513,0.9651741293532482,0.0,0.9966358193510174,0
174,148.15555555555557,0.8083333333333371,0.8472222222222001,0.8361111111111086,0.9667774086378812,0.02556910706009612,1.0244011495277099,38.888888888888886,0.9999999999742858,1.013289036544827,0.0,0.9976144813473822,0
175,149.00277777777777,0.8472222222222001,0.8666666666666742,0.8416666666666686,1.006600660065978,0.027457861385887936,1.1000722356539885,41.666666666666664,1.0714285714010205,1.0297029702970364,0.0,0.9996015964819353,0
176,149.86944444444444,0.8666666666666742,0.8416666666666686,0.8444444444444343,1.0263157894737054,0.022622072143376536,0.9063310914185125,38.888888888888886,0.9999999999742858,0.9967105263158036,0.0,0.9959570832889109,0
177,150.7111111111111,0.8416666666666686,0.8194444444444571,0.8444444444444343,0.9967105263158036,0.026055404782146463,1.043884189913525,38.888888888888886,0.9999999999742858,0.9703947368421318,0.0,0.9985012208584694,0
178,151.53055555555557,0.8194444444444571,0.8055555555555429,0.8416666666666686,0.9735973597359864,0.02077268808436222,0.8322373363444796,38.888888888888886,0.9999999999742858,0.9570957095709399,0.0,0.9938335479836476,0
179,152.3361111111111,0.8055555555555429,0.7916666666666572,0.8361111111111086,0.9634551495016489,0.022279444791861284,0.8926040632541374,38.888888888888886,0.9999999999742858,0.9468438538205896,0.0,0.9967830666525336,0
180,153.12777777777777,0.7916666666666572,0.7916666666666856,0.8250000000000028,0.9595959595959448,0.025193288077169508,1.0093443312657542,36.111111111111114,0.9285714285475513,0.9595959595959792,0.0,0.9962828349073898,0
181,153.91944444444445,0.7916666666666856,0.8194444444444287,0.8194444444444571,0.9661016949152624,0.02060557195184861,0.8255419927077541,36.111111111111114,0.9285714285475513,0.9999999999999654,0.0,0.9925013087772087,0
182,154.73888888888888,0.8194444444444287,0.830555555555577,0.8194444444444429,0.9999999999999827,0.02759591033035002,1.1056030309635654,41.666666666666664,1.0714285714010205,1.0135593220339265,0.0,0.9985604444929113,0
183,155.56944444444446,0.830555555555577,0.8333333333333144,0.8194444444444429,1.0135593220339265,0.02871622174318802,1.1504872068733027,41.666666666666664,1.0714285714010205,1.0169491525423517,0.0,0.9969741719676175,0
184,156.40277777777777,0.8333333333333144,0.7916666666666856,0.825000000000017,1.0101010101009662,0.0277018408567926,1.1098470334155401,38.888888888888886,0.9999999999742858,0.9595959595959628,0.0,0.9986348053810408,0
185,157.19444444444446,0.7916666666666856,0.7611111111110915,0.8194444444444429,0.9661016949152792,0.02631236638792228,1.0541791041521236,38.888888888888886,0.9999999999742858,0.9288135593220118,0.0,0.9989705072500434,0
186,157.95555555555555,0.7611111111110915,0.7861111111111256,0.8124999999999858,0.936752136752129,0.025007490424477762,1.0019005308800142,36.111111111111114,0.9285714285475513,0.9675213675214023,0.0,0.9964888696258464,0
187,158.74166666666667,0.7861111111111256,0.8111111111111029,0.7986111111111143,0.9843478260869708,0.025971883419372895,1.0405379885841524,36.111111111111114,0.9285714285475513,1.015652173913029,0.0,0.9980695962419996,0
188,159.55277777777778,0.8111111111111029,0.8277777777777828,0.7986111111111143,1.015652173913029,0.026491431428622644,1.0613531690540594,38.888888888888886,0.9999999999742858,1.036521739130437,0.0,0.9974697404090469,0
189,160.38055555555556,0.8277777777777828,0.88055555555556,0.8013888888888943,1.032928942807625,0.02695592340302491,1.0799625835872193,41.666666666666664,1.0714285714010205,1.098786828422875,0.0,0.9969382518307153,0
190,161.26111111111112,0.88055555555556,0.8916666666666515,0.8152777777777658,1.0800681431005323,0.022568270205650248,0.9041755696506193,38.888888888888886,0.9999999999742858,1.0936967632027232,0.0,0.9942107676622148,0
191,162.15277777777777,0.8916666666666515,0.9111111111111256,0.8236111111111057,1.0826306913996513,0.02750523132157532,1.1019700655804368,41.666666666666664,1.0714285714010205,1.1062394603710197,0.0,0.9984302077945162,0
192,163.0638888888889,0.9111111111111256,0.8944444444444457,0.8291666666666799,1.0988274706867671,0.02259427818167672,0.9052175536540414,38.888888888888886,0.9999999999742858,1.0787269681741887,0.0,0.9950446247180335,0
193,163.95833333333334,0.8944444444444457,0.8833333333333258,0.8305555555555486,1.0769230769230875,0.020835680560696998,0.834761068010872,38.888888888888886,0.9999999999742858,1.063545150501672,0.0,0.9940580543570161,0
194,164.84166666666667,0.8833333333333258,0.88055555555556,0.8541666666666714,1.0341463414634,0.02706571405965815,1.0843612383622239,41.666666666666664,1.0714285714010205,1.0308943089430889,0.0,0.9977159098460842,0
195,165.72222222222223,0.88055555555556,0.8833333333333258,0.88055555555556,1.0,0.026444895754764837,1.059488763008047,38.888888888888886,0.9999999999742858,1.0031545741324785,0.0,0.9998257275549889,0
196,166.60555555555555,0.8833333333333258,0.8833333333333258,0.8819444444444429,1.0015748031495995,0.021228647980108616,0.850504921530123,36.111111111111114,0.9285714285475513,1.0015748031495995,0.0,0.9930994337171393,0
197,167.48888888888888,0.8833333333333258,0.9111111111111256,0.8833333333333258,1.0,0.024192619930972572,0.9692535452695674,41.666666666666664,1.0714285714010205,1.0314465408805285,0.0,0.9947812789489188,0
198,168.4,0.9111111111111256,0.8833333333333258,0.8833333333333258,1.0314465408805285,0.023214754676714446,0.9300763347322251,41.666666666666664,1.0714285714010205,1.0,0.0,0.9959533401931693,0
199,169.28333333333333,0.8833333333333258,0.8444444444444343,0.8833333333333258,1.0,0.026889863514503128,1.0773159590656693,41.666666666666664,1.0714285714010205,0.9559748427672924,0.0,0.9997140750560778,0
200,170.12777777777777,0.8444444444444343,0.8111111111111313,0.8833333333333258,0.9559748427672924,0.023202446399156133,0.9295832156862683,41.666666666666664,1.0714285714010205,0.9182389937107226,0.0,0.9944807778988328,0
201,170.9388888888889,0.8111111111111313,0.8583333333333201,0.8833333333333258,0.9182389937107226,0.02655449476767934,1.063879739765774,41.666666666666664,1.0714285714010205,0.9716981132075405,0.0,0.9979878915375173,0
202,171.79722222222222,0.8583333333333201,0.86944444444444,0.8833333333333258,0.9716981132075405,0.026704010883542004,1.0698699560295897,41.666666666666664,1.0714285714010205,0.9842767295597519,0.0,0.9987800450479276,0
203,172.66666666666666,0.86944444444444,0.8722222222222342,0.8819444444444429,0.98582677165354,0.028007194565251147,1.122080729696849,41.666666666666664,1.0714285714010205,0.9889763779527713,0.0,0.9981048609253487,0
204,173.5388888888889,0.8722222222222342,0.88611111111112,0.8763888888888971,0.9952456418383562,0.022944229034181123,0.9192379906892941,41.666666666666664,1.0714285714010205,1.0110935023771797,0.0,0.9944854456903431,0
205,174.425,0.88611111111112,0.86944444444444,0.87777777777778,1.0094936708860835,0.021400957521331424,0.857408333983611,36.111111111111114,0.9285714285475513,0.9905063291139166,0.0,0.9932348206818316,0
206,175.29444444444445,0.86944444444444,0.8555555555555543,0.8708333333333371,0.9984051036682522,0.026479360634565796,1.0608695645512316,41.666666666666664,1.0714285714010205,0.9824561403508715,0.0,0.9979579993149995,0
207,176.15,0.8555555555555543,0.8222222222222229,0.86944444444444,0.9840255591054349,0.021144443125495172,0.8471313367718017,36.111111111111114,0.9285714285475513,0.945686900958472,0.0,0.9933603182034241,0
208,176.97222222222223,0.8222222222222229,0.8722222222222058,0.86388888888888,0.9517684887459912,0.026283641528061837,1.0530282708675702,38.888888888888886,0.9999999999742858,1.009646302250795,0.0,0.9979027944426351,0
209,177.84444444444443,0.8722222222222058,0.9250000000000114,0.86388888888888,1.009646302250795,0.02209882710285576,0.8853677930235258,38.888888888888886,0.9999999999742858,1.0707395498392525,0.0,0.9968166227109152,0
210,178.76944444444445,0.9250000000000114,0.9083333333333314,0.86944444444444,1.0638977635782934,0.02838301874023181,1.1371377559733484,44.44444444444444,1.1428571428277552,1.0447284345047954,0.0,0.998337095208206,0
211,179.67777777777778,0.9083333333333314,0.9166666666666572,0.8708333333333229,1.0430622009569481,0.0232500106420311,0.9314888303392561,38.888888888888886,0.9999999999742858,1.0526315789473701,0.0,0.9958245492409471,0
212,180.59444444444443,0.9166666666666572,0.8722222222222342,0.87222222222222,1.0509554140127306,0.022764794391036736,0.9120491180286188,38.888888888888886,0.9999999999742858,1.0000000000000162,0.0,0.997111730662317,0
213,181.46666666666667,0.8722222222222342,0.86388888888888,0.8722222222222342,1.0,0.02274629305906886,0.9113078803431909,38.888888888888886,0.9999999999742858,0.9904458598725877,0.0,0.9963977302685343,0
214,182.33055555555555,0.86388888888888,0.8361111111111086,0.87222222222222,0.9904458598726038,0.026551222805305412,1.0637486518083734,41.666666666666664,1.0714285714010205,0.9585987261146492,0.0,0.9991359047454884,0
215,183.16666666666666,0.8361111111111086,0.8333333333333428,0.8708333333333229,0.9601275917065477,0.02076531195739254,0.8319418190654035,36.111111111111114,0.9285714285475513,0.9569377990430845,0.0,0.993663323147143,0
216,184.0,0.8333333333333428,0.9250000000000114,0.8680555555555429,0.9600000000000248,0.022514922606551625,0.9020382505133993,38.888888888888886,0.9999999999742858,1.0656000000000285,0.0,0.9962107196853518,0
217,184.925,0.9250000000000114,0.8972222222222115,0.87222222222222,1.060509554140143,0.027832569053844052,1.115084530173657,41.666666666666664,1.0714285714010205,1.028662420382156,0.0,0.9988450827800986,0
218,185.82222222222222,0.8972222222222115,0.875,0.8847222222222229,1.0141287284144298,0.02689513103999638,1.0775269972985562,41.666666666666664,1.0714285714010205,0.9890109890109883,0.0,0.9982161169113561,0
219,186.69722222222222,0.875,0.86944444444444,0.8861111111111057,0.9874608150470279,0.022523365614326274,0.9023765113235829,38.888888888888886,0.9999999999742858,0.9811912225705338,0.0,0.9963101194640134,0
220,187.56666666666666,0.86944444444444,0.8527777777777885,0.8736111111111171,0.9952305246422775,0.027006978861409226,1.0820080703590347,41.666666666666664,1.0714285714010205,0.9761526232114524,0.0,0.9990233647751571,0
221,188.41944444444445,0.8527777777777885,0.8472222222222285,0.8708333333333371,0.9792663476874084,0.02672817648313828,1.0708381270317004,41.666666666666664,1.0714285714010205,0.9728867623604496,0.0,0.9992863159286625,0
222,189.26666666666668,0.8472222222222285,0.8499999999999943,0.86666666666666,0.9775641025641173,0.026185168304091407,1.0490830379114129,41.666666666666664,1.0714285714010205,0.9807692307692317,0.0,0.9971008523466887,0
223,190.11666666666667,0.8499999999999943,0.919444444444423,0.8583333333333343,0.9902912621359146,0.027972544262004403,1.1206924993455105,41.666666666666664,1.0714285714010205,1.07119741100321,0.0,0.999562466141187,0
224,191.0361111111111,0.919444444444423,0.9194444444444514,0.8611111111111143,1.0677419354838422,0.024232953223657913,0.9708694590085177,41.666666666666664,1.0714285714010205,1.067741935483875,0.0,0.9952303811646193,0
225,191.95555555555555,0.9194444444444514,0.9000000000000057,0.87222222222222,1.0541401273885456,0.023197181080737105,0.9293722658776417,41.666666666666664,1.0714285714010205,1.0318471337579709,0.0,0.9949895243562323,0
226,192.85555555555555,0.9000000000000057,0.8666666666666742,0.8861111111111057,1.0156739811912352,0.021935845836141523,0.878838108722031,38.888888888888886,0.9999999999742858,0.9780564263323028,0.0,0.9967758196985637,0
227,193.72222222222223,0.8666666666666742,0.8666666666666742,0.87222222222222,0.9936305732484189,0.025980485667307675,1.0408826291948783,38.888888888888886,0.9999999999742858,0.9936305732484189,0.0,0.9979555033460278,0
228,194.5888888888889,0.8666666666666742,0.8666666666666458,0.8680555555555571,0.998400000000007,0.02675302648589026,1.0718337179737332,38.888888888888886,0.9999999999742858,0.9983999999999742,0.0,0.9994072433297212,0
229,195.45555555555555,0.8666666666666458,0.875,0.8666666666666742,0.9999999999999672,0.021000318173861415,0.8413571122053264,38.888888888888886,0.9999999999742858,1.0096153846153757,0.0,0.9946304781466511,0
230,196.33055555555555,0.875,0.9194444444444514,0.8666666666666742,1.0096153846153757,0.02152658067557383,0.8624413022179243,38.888888888888886,0.9999999999742858,1.0608974358974346,0.0,0.9955027195799637,0
231,197.25,0.9194444444444514,0.9333333333333371,0.8708333333333371,1.0558213716108487,0.02809487573270797,1.1255935895133296,41.666666666666664,1.0714285714010205,1.0717703349282293,0.0,0.9976833552489845,0
232,198.18333333333334,0.9333333333333371,0.9027777777777715,0.8875000000000028,1.0516431924882639,0.028392242827181287,1.1375073099531638,44.44444444444444,1.1428571428277552,1.0172143974960772,0.0,0.9986847569840722,0
233,199.0861111111111,0.9027777777777715,0.8611111111111143,0.9013888888888886,1.0015408320493,0.022831037722452617,0.9147030920094653,38.888888888888886,0.9999999999742858,0.9553158705701117,0.0,0.996579567315625,0
234,199.94722222222222,0.8611111111111143,0.8499999999999943,0.8875000000000028,0.9702660406885764,0.021395286827842638,0.857181143221146,38.888888888888886,0.9999999999742858,0.95774647887323,0.0,0.9954093797016001,0
235,200.79722222222222,0.8499999999999943,0.86388888888888,0.8708333333333371,0.9760765550239127,0.026487276348707713,1.0611866998601516,38.888888888888886,0.9999999999742858,0.9920255183412934,0.0,0.9977699653358413,0
236,201.6611111111111,0.86388888888888,0.8583333333333485,0.8666666666666742,0.9967948717948528,0.02625852596282967,1.0520220404257172,41.666666666666664,1.0714285714010205,0.9903846153846242,0.0,0.9979252667278999,0
237,202.51944444444445,0.8583333333333485,0.8916666666666515,0.86666666666666,0.9903846153846404,0.02289218125483828,0.9171527475533544,38.888888888888886,0.9999999999742858,1.0288461538461442,0.0,0.9946536820752359,0
238,203.4111111111111,0.8916666666666515,0.9194444444444514,0.8708333333333229,1.0239234449760715,0.02811590297162125,1.1264360251785066,41.666666666666664,1.0714285714010205,1.055821371610866,0.0,0.9967754247851998,0
239,204.33055555555555,0.9194444444444514,0.8555555555555543,0.8833333333333258,1.0408805031446708,0.028390120992058777,1.1374223007139481,44.44444444444444,1.1428571428277552,0.9685534591195037,0.0,0.9983029777164352,0
240,205.1861111111111,0.8555555555555543,0.830555555555577,0.8777777777777658,0.9746835443038093,0.026505645494932225,1.0619226416536607,38.888888888888886,0.9999999999742858,0.946202531645607,0.0,0.996582854839702,0
241,206.01666666666668,0.830555555555577,0.8166666666666629,0.8624999999999972,0.962962962962991,0.02706044571210357,1.084150167194258,38.888888888888886,0.9999999999742858,0.9468599033816413,0.0,0.99945666347055,0
242,206.83333333333334,0.8166666666666629,0.8527777777777601,0.8597222222222314,0.9499192245557205,0.028281263092082707,1.1330610159178633,44.44444444444444,1.1428571428277552,0.9919224555734745,0.0,0.9992862851738857,0
243,207.6861111111111,0.8527777777777601,0.8472222222222285,0.8569444444444514,0.995137763371122,0.02329449617163783,0.9332710993703714,41.666666666666664,1.0714285714010205,0.988654781199351,0.0,0.9950700144597941,0
244,208.53333333333333,0.8472222222222285,0.8527777777777885,0.8541666666666572,0.9918699186992054,0.022863753510752368,0.9160138179203546,38.888888888888886,0.9999999999742858,0.9983739837398611,0.0,0.9971731427760111,0
245,209.38611111111112,0.8527777777777885,0.8999999999999773,0.8541666666666714,0.9983739837398444,0.02279856637315859,0.9134021593071485,38.888888888888886,0.9999999999742858,1.0536585365853335,0.0,0.9965113927389722,0
246,210.2861111111111,0.8999999999999773,0.8555555555555827,0.8541666666666714,1.0536585365853335,0.029014860141992328,1.1624518608719432,44.44444444444444,1.1428571428277552,1.0016260162601889,0.0,0.9973966262396217,0
247,211.14166666666668,0.8555555555555827,0.8027777777777771,0.8541666666666714,1.0016260162601889,0.027780314063135088,1.1129909853179445,38.888888888888886,0.9999999999742858,0.9398373983739778,0.0,0.9988740019752148,0
248,211.94444444444446,0.8027777777777771,0.8166666666666629,0.8527777777777743,0.9413680781758988,0.020873617235064958,0.8362809635919127,38.888888888888886,0.9999999999742858,0.9576547231270353,0.0,0.9941835441939819,0
249,212.76111111111112,0.8166666666666629,0.8249999999999886,0.8499999999999943,0.9607843137254921,0.026198009676246414,1.0495975148685543,38.888888888888886,0.9999999999742858,0.9705882352941108,0.0,0.998180235582269,0
250,213.5861111111111,0.8249999999999886,0.8388888888889028,0.8388888888889028,0.9834437086092417,0.026639411783922286,1.0672818565799937,38.888888888888886,0.9999999999742858,1.0,0.0,0.9991749573501264,0
251,214.425,0.8388888888889028,0.8555555555555543,0.8430555555555657,0.9950576606260342,0.026724471188753506,1.0706896780530881,41.666666666666664,1.0714285714010205,1.0148270181218975,0.0,0.9987925560937785,0
252,215.28055555555557,0.8555555555555543,0.8666666666666458,0.8499999999999943,1.0065359477124236,0.02687032325816939,1.0765330978963958,41.666666666666664,1.0714285714010205,1.0196078431372373,0.0,0.998873048535384,0
253,216.1472222222222,0.8666666666666458,0.8694444444444684,0.8500000000000085,1.0196078431372202,0.027580839476391457,1.104999232008708,41.666666666666664,1.0714285714010205,1.022875816993482,0.0,0.9991217160522621,0
254,217.01666666666668,0.8694444444444684,0.8055555555555429,0.8541666666666714,1.017886178861811,0.022280029481926117,0.8926274882870542,36.111111111111114,0.9285714285475513,0.9430894308942889,0.0,0.9944109047818035,0
255,217.82222222222222,0.8055555555555429,0.7833333333333314,0.8472222222222285,0.9508196721311255,0.0201312703432997,0.8065395648216972,36.111111111111114,0.9285714285475513,0.9245901639344171,0.0,0.9919404078408837,0
256,218.60555555555555,0.7833333333333314,0.8000000000000114,0.8319444444444457,0.9415692821368912,0.025927735610856702,1.0387692500166763,38.888888888888886,0.9999999999742858,0.9616026711185431,0.0,0.9971739821813206,0
257,219.40555555555557,0.8000000000000114,0.8416666666666686,0.8208333333333258,0.9746192893401243,0.02205064685741495,0.8834374988330369,38.888888888888886,0.9999999999742858,1.0253807106599102,0.0,0.9949974982744902,0
258,220.24722222222223,0.8416666666666686,0.8472222222222001,0.8319444444444457,1.0116861435726219,0.027885114818299736,1.11718972459381,41.666666666666664,1.0714285714010205,1.018363939899805,0.0,0.9994440658431564,0
259,221.09444444444443,0.8472222222222001,0.8388888888889028,0.8402777777777857,1.0082644628098816,0.02641855052970459,1.058433267453476,41.666666666666664,1.0714285714010205,0.9983471074380237,0.0,0.9983024692033496,0
260,221.93333333333334,0.8388888888889028,0.8611111111111143,0.8402777777777857,0.9983471074380237,0.027258719551427536,1.0920938137380094,41.666666666666664,1.0714285714010205,1.0247933884297462,0.0,0.9995141910581247,0
261,222.79444444444445,0.8611111111111143,0.8333333333333144,0.8444444444444343,1.019736842105279,0.027472850019903537,1.1006727405476222,41.666666666666664,1.0714285714010205,0.9868421052631473,0.0,0.9996234520102605,0
262,223.62777777777777,0.8333333333333144,0.8000000000000114,0.8402777777777857,0.9917355371900508,0.022055947647550922,0.8836498697811475,38.888888888888886,0.9999999999742858,0.9520661157024839,0.0,0.996943389516833,0
263,224.42777777777778,0.8000000000000114,0.8111111111111029,0.8361111111111086,0.9568106312292524,0.02102894563056334,0.8425040431280442,38.888888888888886,0.9999999999742858,0.9700996677740795,0.0,0.9954073335451538,0
264,225.23888888888888,0.8111111111111029,0.8000000000000114,0.8222222222222086,0.9864864864864928,0.02746158102661943,1.1002212594048852,38.888888888888886,0.9999999999742858,0.9729729729730029,0.0,0.9994224748147935,0
265,226.0388888888889,0.8000000000000114,0.8722222222222058,0.8222222222222086,0.9729729729730029,0.026743230324930364,1.0714412444108241,41.666666666666664,1.0714285714010205,1.0608108108108083,0.0,0.9990837290984413,0
266,226.9111111111111,0.8722222222222058,0.8555555555555827,0.8361111111111086,1.0431893687707476,0.028340970732792542,1.135453143872703,44.44444444444444,1.1428571428277552,1.023255813953524,0.0,0.9975248246860522,0
267,227.76666666666668,0.8555555555555827,0.8222222222222229,0.8402777777777857,1.018181818181841,0.02213618440171967,0.8868644764943054,36.111111111111114,0.9285714285475513,0.9785123966942064,0.0,0.9943290884048595,0
268,228.5888888888889,0.8222222222222229,0.8722222222222058,0.8361111111111086,0.9833887043189407,0.02703285818894884,1.083044900187244,38.888888888888886,0.9999999999742858,1.0431893687707476,0.0,0.9998165597215506,0
269,229.4611111111111,0.8722222222222058,0.8249999999999886,0.8361111111111086,1.0431893687707476,0.023134998115594163,0.9268809664817045,38.888888888888886,0.9999999999742858,0.9867109634551389,0.0,0.9967378338748516,0
270,230.2861111111111,0.8249999999999886,0.7916666666666856,0.8291666666666515,0.9949748743718638,0.026882411083476044,1.077017384739512,38.888888888888886,0.9999999999742858,0.954773869346774,0.0,0.9990545684294221,0
271,231.07777777777778,0.7916666666666856,0.8222222222222229,0.8236111111111057,0.9612141652614121,0.026261846118015852,1.0521550591807853,38.888888888888886,0.9999999999742858,0.9983136593591978,0.0,0.9987683757339174,0
272,231.9,0.8222222222222229,0.8444444444444343,0.8222222222222229,1.0,0.025400129511086864,1.0176312300681603,38.888888888888886,0.9999999999742858,1.0270270270270139,0.0,0.997192555422723,0
273,232.74444444444444,0.8444444444444343,0.875,0.8236111111111057,1.025295109612136,0.02729338867768147,1.093482798214635,38.888888888888886,0.9999999999742858,1.0623946037099563,0.0,0.9997396328158938,0
274,233.61944444444444,0.875,0.8388888888889028,0.8347222222222115,1.0482529118136574,0.026736515954048433,1.071172239739146,38.888888888888886,0.9999999999742858,1.0049916805324755,0.0,0.9988643653016589,0
275,234.45833333333334,0.8388888888889028,0.8166666666666629,0.8416666666666686,0.996699669967011,0.02114345059571776,0.8470915720415539,36.111111111111114,0.9285714285475513,0.9702970297029636,0.0,0.9935649040980628,0
276,235.275,0.8166666666666629,0.8138888888888971,0.8319444444444457,0.9816360601001609,0.02725064006225968,1.0917701169436045,38.888888888888886,0.9999999999742858,0.9782971619365693,0.0,0.9997819907814441,0
277,236.0888888888889,0.8138888888888971,0.7833333333333314,0.8236111111111057,0.9881956155143503,0.025991433822121435,1.0413212562595648,36.111111111111114,0.9285714285475513,0.95109612141653,0.0,0.9979678965356047,0
278,236.87222222222223,0.7833333333333314,0.7611111111110915,0.8236111111111057,0.95109612141653,0.025956244223342476,1.039911419562653,36.111111111111114,0.9285714285475513,0.9241146711635573,0.0,0.9973554264990063,0
279,237.63333333333333,0.7611111111110915,0.8000000000000114,0.8194444444444429,0.9288135593220118,0.02163744295757416,0.8668828906102557,36.111111111111114,0.9285714285475513,0.9762711864406938,0.0,0.9935994616686536,0
280,238.43333333333334,0.8000000000000114,0.8388888888888744,0.81527777777778,0.9812606473594662,0.02073427563804533,0.8306983794278102,36.111111111111114,0.9285714285475513,1.0289608177171856,0.0,0.9932407120741583,0
281,239.2722222222222,0.8388888888888744,0.8388888888889028,0.8194444444444429,1.0237288135593063,0.023199666830975272,0.9294718550183744,41.666666666666664,1.0714285714010205,1.023728813559341,0.0,0.9947577730700841,0
282,240.11111111111111,0.8388888888889028,0.8194444444444287,0.8277777777777686,1.0134228187919743,0.02720006468394765,1.0897438641081467,38.888888888888886,0.9999999999742858,0.9899328859060321,0.0,0.9994506333196771,0
283,240.93055555555554,0.8194444444444287,0.8027777777777771,0.8180555555555458,1.0016977928692625,0.026849813278171337,1.075711385701386,38.888888888888886,0.9999999999742858,0.9813242784380415,0.0,0.9987373369412982,0
284,241.73333333333332,0.8027777777777771,0.7972222222222456,0.81527777777778,0.9846678023850051,0.027004018447952822,1.0818894643028791,41.666666666666664,1.0714285714010205,0.9778534923339272,0.0,0.9987796341390174,0
285,242.53055555555557,0.7972222222222456,0.7777777777777715,0.8083333333333371,0.9862542955326703,0.026673565894543394,1.0686502074613573,41.666666666666664,1.0714285714010205,0.9621993127147643,0.0,0.9975436382541971,0
286,243.30833333333334,0.7777777777777715,0.7805555555555657,0.8013888888888943,0.9705372616984258,0.02550540288960229,1.0218489045341634,38.888888888888886,0.9999999999742858,0.9740034662045122,0.0,0.9936818913547861,0
287,244.0888888888889,0.7805555555555657,0.8166666666666629,0.7986111111111285,0.9773913043478175,0.02645237966485843,1.059788598512072,41.666666666666664,1.0714285714010205,1.022608695652147,0.0,0.9978506157152293,0
288,244.90555555555557,0.8166666666666629,0.8444444444444343,0.8013888888888943,1.0190641247833507,0.02740470750358064,1.0979426775896621,38.888888888888886,0.9999999999742858,1.053726169844001,0.0,0.9995043023018979,0
289,245.75,0.8444444444444343,0.8333333333333428,0.80972222222222,1.042881646655222,0.027610581369613384,1.106190811735527,38.888888888888886,0.9999999999742858,1.029159519725572,0.0,0.9996530674466975,0
290,246.58333333333334,0.8333333333333428,0.794444444444423,0.8180555555555458,1.0186757215619933,0.021299893189374006,0.8533592908320415,38.888888888888886,0.9999999999742858,0.9711375212223963,0.0,0.9953534925387748,0
291,247.37777777777777,0.794444444444423,0.7888888888888914,0.80972222222222,0.9811320754716742,0.025643607769116623,1.0273859472283828,38.888888888888886,0.9999999999742858,0.9742710120068668,0.0,0.996678267432392,0
292,248.16666666666666,0.7888888888888914,0.8027777777777771,0.8000000000000114,0.9861111111111003,0.026993538400731987,1.0814695915089292,38.888888888888886,0.9999999999742858,1.0034722222222072,0.0,0.9996304289826454,0
293,248.96944444444443,0.8027777777777771,0.7750000000000057,0.8000000000000114,1.0034722222222072,0.02668674302822541,1.0691781363741508,38.888888888888886,0.9999999999742858,0.9687499999999933,0.0,0.998830160314683,0
294,249.74444444444444,0.7750000000000057,0.7944444444444514,0.7958333333333343,0.9738219895288018,0.02046459951494951,0.8198940705463841,33.333333333333336,0.8571428571208165,0.9982547993019273,0.0,0.9925911901166506,0
295,250.5388888888889,0.7944444444444514,0.8388888888888744,0.7944444444444372,1.000000000000018,0.02640330867547186,1.0578226175406633,38.888888888888886,0.9999999999742858,1.0559440559440474,0.0,0.9984018154671574,0
296,251.37777777777777,0.8388888888888744,0.8500000000000227,0.7986111111111143,1.0504347826086733,0.02721149494816124,1.0902018064122048,41.666666666666664,1.0714285714010205,1.0643478260869808,0.0,0.9986438755522047,0
297,252.2277777777778,0.8500000000000227,0.8388888888888744,0.80972222222222,1.0497427101200996,0.028071065027622504,1.1246396370110663,41.666666666666664,1.0714285714010205,1.0360205831903795,0.0,0.9980007585021851,0
298,253.06666666666666,0.8388888888888744,0.7888888888888914,0.81805555555556,1.0254668930390258,0.021297269041425624,0.8532541569230421,36.111111111111114,0.9285714285475513,0.964346349745329,0.0,0.9930843587924513,0
299,253.85555555555555,0.7888888888888914,0.7944444444444514,0.7986111111111143,0.987826086956521,0.025912531601543345,1.038160116323371,38.888888888888886,0.9999999999742858,0.9947826086956569,0.0,0.9979887105193403,0
300,254.65,0.7944444444444514,0.8111111111111029,0.7944444444444514,1.0,0.02708951613918818,1.0853148452900843,41.666666666666664,1.0714285714010205,1.0209790209790017,0.0,0.9992269864348521,0
301,255.4611111111111,0.8111111111111029,0.7972222222222172,0.7986111111111143,1.015652173913029,0.025975185070528557,1.04067026599342,38.888888888888886,0.9999999999742858,0.9982608695652071,0.0,0.9983229344261577,0
302,256.2583333333333,0.7972222222222172,0.8249999999999886,0.7999999999999972,0.996527777777775,0.02013483277645107,0.8066822902053721,36.111111111111114,0.9285714285475513,1.0312499999999893,0.0,0.9905150892990862,0
303,257.0833333333333,0.8249999999999886,0.8388888888889028,0.80416666666666,1.0259067357512897,0.027229544785414356,1.0909249554055358,41.666666666666664,1.0714285714010205,1.0431778929188515,0.0,0.9980906581276625,0
304,257.9222222222222,0.8388888888889028,0.8361111111111086,0.8180555555555458,1.0254668930390785,0.027262908542872624,1.0922616415640505,41.666666666666664,1.0714285714010205,1.0220713073005185,0.0,0.9993137227603905,0
305,258.7583333333333,0.8361111111111086,0.7972222222222172,0.8305555555555486,1.0066889632107077,0.026879560723017434,1.0769031878485722,41.666666666666664,1.0714285714010205,0.9598662207357879,0.0,0.9993900704826248,0
306,259.55555555555554,0.7972222222222172,0.7777777777777715,0.8180555555555458,0.9745331069609563,0.025897407629327268,1.0375541892377218,36.111111111111114,0.9285714285475513,0.9507640067911751,0.0,0.9976934454705844,0
307,260.3333333333333,0.7777777777777715,0.7916666666666856,0.80416666666666,0.9671848013816927,0.020834657978257818,0.834720099250261,38.888888888888886,0.9999999999742858,0.9844559585492545,0.0,0.9946516715536717,0
308,261.125,0.7916666666666856,0.7861111111110972,0.7972222222222172,0.9930313588850475,0.021494194575813575,0.8611437849544098,36.111111111111114,0.9285714285475513,0.9860627177700236,0.0,0.9950745903240463,0
309,261.9111111111111,0.7861111111110972,0.8000000000000114,0.7972222222222172,0.9860627177700236,0.02641102652963971,1.0581318257841443,38.888888888888886,0.9999999999742858,1.003484320557512,0.0,0.9985665687401118,0
310,262.7111111111111,0.8000000000000114,0.830555555555577,0.7986111111111143,1.001739130434793,0.025768472997937494,1.0323885499254384,38.888888888888886,0.9999999999742858,1.0400000000000227,0.0,0.9987964886162819,0
311,263.5416666666667,0.830555555555577,0.8055555555555429,0.7986111111111143,1.0400000000000227,0.027662481608408746,1.108270143804409,41.666666666666664,1.0714285714010205,1.0086956521738932,0.0,0.9981549058201367,0
312,264.34722222222223,0.8055555555555429,0.8083333333333371,0.8027777777777771,1.0034602076124417,0.028400943619135057,1.137855898633179,44.44444444444444,1.1428571428277552,1.006920415224919,0.0,0.9976507164846825,0
313,265.15555555555557,0.8083333333333371,0.73888888888888,0.8027777777777771,1.006920415224919,0.02249574012632419,0.9012697232922652,38.888888888888886,0.9999999999742858,0.9204152249134845,0.0,0.9962248954476978,0
314,265.89444444444445,0.73888888888888,0.7111111111111086,0.7986111111111143,0.9252173913043331,0.025553121276558857,1.0237606948183147,38.888888888888886,0.9999999999742858,0.8904347826086889,0.0,0.9975406422865618,0
315,266.60555555555555,0.7111111111111086,0.7222222222222285,0.7944444444444514,0.8951048951048841,0.024887351290803467,0.9970872745410284,36.111111111111114,0.9285714285475513,0.9090909090909091,0.0,0.9947896235505038,0
316,267.3277777777778,0.7222222222222285,0.7555555555555316,0.7888888888888914,0.915492957746484,0.02290035746469602,0.9174803193671593,38.888888888888886,0.9999999999742858,0.957746478873206,0.0,0.995240880024955,0
317,268.0833333333333,0.7555555555555316,0.7777777777777715,0.7888888888888914,0.957746478873206,0.026096017297219904,1.0455112904230837,38.888888888888886,0.9999999999742858,0.9859154929577353,0.0,0.99818121656205,0
318,268.8611111111111,0.7777777777777715,0.8000000000000114,0.7819444444444343,0.9946714031971629,0.02650195172636864,1.061774654445749,41.666666666666664,1.0714285714010205,1.023090586145676,0.0,0.9976005940138881,0
319,269.6611111111111,0.8000000000000114,0.8277777777777828,0.7888888888888914,1.0140845070422646,0.02632711067697997,1.0547698196051178,38.888888888888886,0.9999999999742858,1.0492957746478904,0.0,0.9972663342912085,0
320,270.4888888888889,0.8277777777777828,0.8249999999999886,0.7888888888888914,1.0492957746478904,0.026454126708756128,1.059858592109145,41.666666666666664,1.0714285714010205,1.0457746478873062,0.0,0.997812954700765,0
321,271.31388888888887,0.8249999999999886,0.8250000000000455,0.7888888888888914,1.0457746478873062,0.02698505631518796,1.081129765086314,41.666666666666664,1.0714285714010205,1.0457746478873782,0.0,0.9981898312609658,0
322,272.1388888888889,0.8250000000000455,0.794444444444423,0.7888888888888914,1.0457746478873782,0.02674391064529578,1.0714685007777651,41.666666666666664,1.0714285714010205,1.0070422535210963,0.0,0.99750796249644,0
323,272.93333333333334,0.794444444444423,0.8333333333333144,0.7861111111110972,1.0106007067137714,0.026504225864407257,1.061865765551642,38.888888888888886,0.9999999999742858,1.0600706713780865,0.0,0.9985667576233899,0
324,273.76666666666665,0.8333333333333144,0.9083333333333599,0.7972222222222172,1.0452961672473695,0.027359682251886182,1.096138785123446,41.666666666666664,1.0714285714010205,1.1393728222996922,0.0,0.9988559201911904,0
325,274.675,0.9083333333333599,0.8499999999999659,0.8125,1.1179487179487506,0.02777449699410861,1.112757930163394,41.666666666666664,1.0714285714010205,1.0461538461538042,0.0,0.9990916766495709,0
326,275.525,0.8499999999999659,0.8500000000000227,0.825000000000017,1.0303030303029677,0.026541012478713207,1.0633395851063754,38.888888888888886,0.9999999999742858,1.0303030303030365,0.0,0.9987932320574499,0
327,276.375,0.8500000000000227,0.8611111111110858,0.8263888888889142,1.0285714285714247,0.02857501124031169,1.1448297468324844,41.666666666666664,1.0714285714010205,1.0420168067226268,0.0,0.9982041175203722,0
328,277.2361111111111,0.8611111111110858,0.8444444444444912,0.8305555555555486,1.036789297658841,0.02795066080128642,1.1198157599950727,41.666666666666664,1.0714285714010205,1.0167224080268207,0.0,0.9985196700826275,0
329,278.0805555555556,0.8444444444444912,0.8138888888888687,0.8388888888889028,1.0066225165563305,0.023580972927690732,0.944748509102507,41.666666666666664,1.0714285714010205,0.9701986754966486,0.0,0.996076893602875,0
330,278.89444444444445,0.8138888888888687,0.8000000000000114,0.8388888888889028,0.9701986754966486,0.027521672018103342,1.1026287459317983,41.666666666666664,1.0714285714010205,0.953642384105958,0.0,0.9994308957568765,0
331,279.69444444444446,0.8000000000000114,0.8694444444444116,0.8388888888889028,0.953642384105958,0.02691497549710816,1.078322045973087,41.666666666666664,1.0714285714010205,1.0364238410595463,0.0,0.9996952861619145,0
332,280.56388888888887,0.8694444444444116,0.9000000000000341,0.8472222222222285,1.0262295081966748,0.028348055004678806,1.1357369682646459,44.44444444444444,1.1428571428277552,1.0622950819672454,0.0,0.9968562454292458,0
333,281.4638888888889,0.9000000000000341,0.8777777777777374,0.8499999999999943,1.058823529411812,0.023718741760557875,0.950268082016277,38.888888888888886,0.9999999999742858,1.0326797385620508,0.0,0.9959911373630391,0
334,282.34166666666664,0.8777777777777374,0.8833333333333826,0.8555555555555543,1.0259740259739802,0.023320367780006554,0.934307619937584,38.888888888888886,0.9999999999742858,1.0324675324675916,0.0,0.9956479674355044,0
335,283.225,0.8833333333333826,0.8666666666666174,0.8555555555555543,1.0324675324675916,0.021648151334812408,0.8673119112219906,38.888888888888886,0.9999999999742858,1.012987012986957,0.0,0.9954980390393877,0
336,284.09166666666664,0.8666666666666174,0.8527777777778169,0.8638888888888516,1.0032154340835875,0.021298305527073545,0.8532956827020497,38.888888888888886,0.9999999999742858,0.9871382636656828,0.0,0.9961532708159537,0
337,284.94444444444446,0.8527777777778169,0.8472222222222285,0.8638888888888516,0.9871382636656828,0.026524333328837593,1.062671351355953,38.888888888888886,0.9999999999742858,0.9807073954984419,0.0,0.9983581567795254,0
338,285.7916666666667,0.8472222222222285,0.8805555555555316,0.8597222222222172,0.9854604200323234,0.026689164642459216,1.0692751559688902,38.888888888888886,0.9999999999742858,1.0242326332794611,0.0,0.9994842520242504,0
339,286.6722222222222,0.8805555555555316,0.9055555555555657,0.8680555555555145,1.0144000000000204,0.023906206971636607,0.9577786914902078,41.666666666666664,1.0714285714010205,1.043200000000061,0.0,0.995216969932726,0
340,287.5777777777778,0.9055555555555657,0.88611111111112,0.8736111111110745,1.0365659777425034,0.02359882903488843,0.9454638964915316,41.666666666666664,1.0714285714010205,1.0143084260731845,0.0,0.9949165470039616,0
341,288.4638888888889,0.88611111111112,0.88611111111112,0.8791666666666345,1.0078988941548652,0.027408377611030946,1.0980897168383206,41.666666666666664,1.0714285714010205,1.0078988941548652,0.0,0.9996011882177754,0
342,289.35,0.88611111111112,0.8583333333332916,0.8819444444444571,1.0047244094488146,0.022492653933394138,0.9011460780050918,38.888888888888886,0.9999999999742858,0.9732283464566317,0.0,0.9968748779222569,0
343,290.2083333333333,0.8583333333332916,0.875,0.8791666666666345,0.9763033175355333,0.02777348749723533,1.1127174856631226,41.666666666666664,1.0714285714010205,0.9952606635071455,0.0,0.9994964919169578,0
344,291.0833333333333,0.875,0.8500000000000227,0.8777777777777658,0.9968354430379883,0.028037107233915982,1.1232791513739797,41.666666666666664,1.0714285714010205,0.968354430379786,0.0,0.9995244792623845,0
345,291.93333333333334,0.8500000000000227,0.88611111111112,0.8708333333333087,0.9760765550239772,0.026502648256630512,1.0618025602462628,38.888888888888886,0.9999999999742858,1.0175438596491617,0.0,0.9983593458409833,0
346,292.81944444444446,0.88611111111112,0.9527777777777828,0.8777777777777658,1.0094936708860998,0.027174556300970314,1.0887218958093257,41.666666666666664,1.0714285714010205,1.0854430379747042,0.0,0.9983613870565112,0
347,293.77222222222224,0.9527777777777828,0.9027777777777715,0.8833333333333258,1.0786163522012728,0.026914741460783032,1.0783126695376903,41.666666666666664,1.0714285714010205,1.0220125786163539,0.0,0.9996679348558734,0
348,294.675,0.9027777777777715,0.8777777777777942,0.88611111111112,1.0188087774294499,0.027026058383779514,1.0827724726747912,38.888888888888886,0.9999999999742858,0.9905956112852751,0.0,0.9995835819664955,0
349,295.5527777777778,0.8777777777777942,0.8527777777777601,0.88611111111112,0.9905956112852751,0.022324263579270257,0.8943996839316324,38.888888888888886,0.9999999999742858,0.9623824451410363,0.0,0.9949929937671648,0
350,296.40555555555557,0.8527777777777601,0.8722222222222058,0.8819444444444571,0.9669291338582339,0.021555825162683288,0.8636129538576106,38.888888888888886,0.9999999999742858,0.9889763779527231,0.0,0.9955320539868878,0
351,297.27777777777777,0.8722222222222058,0.875,0.8763888888888971,0.9952456418383238,0.02241680941752029,0.8981074420032974,38.888888888888886,0.9999999999742858,0.9984152139461079,0.0,0.9963907193543546,0
352,298.15277777777777,0.875,0.8833333333333258,0.875,1.0,0.0276029701733038,1.1058858766343327,38.888888888888886,0.9999999999742858,1.0095238095238008,0.0,0.9989808694979168,0
353,299.0361111111111,0.8833333333333258,0.9472222222222513,0.8763888888888971,1.0079239302693956,0.027791888773581803,1.1134547147183962,41.666666666666664,1.0714285714010205,1.080824088748042,0.0,0.9995276059864874,0
354,299.98333333333335,0.9472222222222513,0.9055555555555657,0.88055555555556,1.0757097791798382,0.0233326645902958,0.9348002795586738,41.666666666666664,1.0714285714010205,1.0283911671924353,0.0,0.9954193556745199,0
355,300.8888888888889,0.9055555555555657,0.8305555555555202,0.8847222222222229,1.0235478806907485,0.027366738708230007,1.0964214951130136,41.666666666666664,1.0714285714010205,0.9387755102040409,0.0,0.9993968689348165,0
356,301.71944444444443,0.8305555555555202,0.841666666666697,0.88055555555556,0.943217665615097,0.026486817955661317,1.0611683347931762,38.888888888888886,0.9999999999742858,0.95583596214514,0.0,0.9986459134247062,0
357,302.56111111111113,0.841666666666697,0.8527777777777601,0.8763888888888971,0.9603803486529574,0.025971285371042,1.040514028365432,38.888888888888886,0.9999999999742858,0.9730586370839643,0.0,0.9979339487342517,0
358,303.4138888888889,0.8527777777777601,0.8583333333333485,0.8736111111111029,0.9761526232114357,0.0267535711380269,1.071855538926399,41.666666666666664,1.0714285714010205,0.9825119236884209,0.0,0.9995734623452217,0
359,304.27222222222224,0.8583333333333485,0.86388888888888,0.8652777777777771,0.9919743178170327,0.0276878249336765,1.1092854992282852,38.888888888888886,0.9999999999742858,0.9983948635633934,0.0,0.9996189930755113,0
360,305.1361111111111,0.86388888888888,0.8972222222222399,0.8680555555555429,0.9952000000000043,0.02203321735984835,0.8827392031396851,38.888888888888886,0.9999999999742858,1.0336000000000354,0.0,0.9947856362488137,0
361,306.03333333333336,0.8972222222222399,0.8805555555555316,0.86944444444444,1.0319488817891629,0.027615481578042774,1.106387133771185,41.666666666666664,1.0714285714010205,1.0127795527156325,0.0,0.9990764291193701,0
362,306.9138888888889,0.8805555555555316,0.8416666666666401,0.8722222222222058,1.00955414012738,0.02663003501849841,1.0669061856871271,41.666666666666664,1.0714285714010205,0.9649681528662298,0.0,0.9984509477220784,0
363,307.75555555555553,0.8416666666666401,0.8277777777777828,0.8611111111111143,0.9774193548386753,0.027049523404406466,1.0837125756689021,41.666666666666664,1.0714285714010205,0.9612903225806475,0.0,0.9996948237891375,0
364,308.5833333333333,0.8277777777777828,0.830555555555577,0.8555555555555543,0.9675324675324749,0.02712431444152742,1.086709005079636,38.888888888888886,0.9999999999742858,0.9707792207792473,0.0,0.9992930227475909,0
365,309.4138888888889,0.830555555555577,0.8777777777777942,0.8472222222222285,0.980327868852477,0.026698092670783914,1.0696328486508186,41.666666666666664,1.0714285714010205,1.0360655737705036,0.0,0.999665715251761,0
366,310.2916666666667,0.8777777777777942,0.8805555555555316,0.8555555555555543,1.0259740259740466,0.02665559102587659,1.0679300620107708,41.666666666666664,1.0714285714010205,1.0292207792207526,0.0,0.9974504815238725,0
367,311.1722222222222,0.8805555555555316,0.8833333333333258,0.8611111111111143,1.0225806451612587,0.02204124421066922,0.8830607910304417,38.888888888888886,0.9999999999742858,1.0258064516128906,0.0,0.9950524056850651,0
368,312.05555555555554,0.8833333333333258,0.88611111111112,0.8708333333333371,1.0143540669856328,0.028472874755375174,1.1407377489253312,44.44444444444444,1.1428571428277552,1.0175438596491286,0.0,0.9977755793977493,0
369,312.94166666666666,0.88611111111112,0.8388888888889028,0.8791666666666629,1.0078988941548328,0.02643669583607494,1.0591602413231784,41.666666666666664,1.0714285714010205,0.9541864139020736,0.0,0.998209144285894,0
370,313.78055555555557,0.8388888888889028,0.8249999999999886,0.8791666666666629,0.9541864139020736,0.025376762243792206,1.0166950434652526,36.111111111111114,0.9285714285475513,0.9383886255924082,0.0,0.9942191307405132,0
371,314.60555555555555,0.8249999999999886,0.8361111111111086,0.8597222222222172,0.9596122778675207,0.02684155746764143,1.0753806247648683,38.888888888888886,0.9999999999742858,0.972536348949922,0.0,0.9997083605542336,0
372,315.44166666666666,0.8361111111111086,0.8833333333333258,0.8402777777777715,0.9950413223140541,0.02206025715619237,0.8838225260102377,38.888888888888886,0.9999999999742858,1.0512396694214865,0.0,0.9966181850658639,0
373,316.325,0.8833333333333258,0.9055555555555657,0.8583333333333485,1.029126213592206,0.02784000309830951,1.1153823678602899,41.666666666666664,1.0714285714010205,1.0550161812297667,0.0,0.9994305107619312,0
374,317.23055555555555,0.9055555555555657,0.8972222222222399,0.8791666666666629,1.0300157977883255,0.02708841750112645,1.0852708294356899,41.666666666666664,1.0714285714010205,1.020537124802552,0.0,0.9994259481375869,0
375,318.1277777777778,0.8972222222222399,0.9250000000000114,0.8819444444444287,1.0173228346457075,0.028620060718223993,1.1466346098983131,41.666666666666664,1.0714285714010205,1.048818897637827,0.0,0.9979667327757581,0
376,319.0527777777778,0.9250000000000114,0.8777777777777374,0.8833333333333258,1.0471698113207766,0.0277972244081368,1.1136684816739162,41.666666666666664,1.0714285714010205,0.9937106918238622,0.0,0.9983669206035188,0
377,319.93055555555554,0.8777777777777374,0.8388888888889028,0.8833333333333258,0.9937106918238622,0.026664831224543373,1.0683002614907084,41.666666666666664,1.0714285714010205,0.9496855345912188,0.0,0.9983696030330799,0
378,320.76944444444445,0.8388888888889028,0.8500000000000227,0.8805555555555316,0.95268138801266,0.0256575281933967,1.027943655348612,38.888888888888886,0.9999999999742858,0.9652996845426389,0.0,0.9969408876781493,0
379,321.61944444444447,0.8500000000000227,0.8666666666666174,0.86388888888888,0.9839228295820299,0.021108927520082414,0.8457084389394491,38.888888888888886,0.9999999999742858,1.0032154340835546,0.0,0.9939990279566697,0
380,322.4861111111111,0.8666666666666174,0.8972222222222399,0.8722222222221774,0.9936305732484022,0.027568143405601795,1.1044905764079926,41.666666666666664,1.0714285714010205,1.0286624203822388,0.0,0.998770364866121,0
381,323.3833333333333,0.8972222222222399,0.8805555555555884,0.8805555555555316,1.0189274447950005,0.022776758833566883,0.9125284616620329,38.888888888888886,0.9999999999742858,1.0000000000000646,0.0,0.9946860661898641,0
382,324.2638888888889,0.8805555555555884,0.8805555555555316,0.8819444444444571,0.9984251968504166,0.02721215496243801,1.0902282492356572,38.888888888888886,0.9999999999742858,0.9984251968503521,0.0,0.9995972382041387,0
383,325.14444444444445,0.8805555555555316,0.8500000000000227,0.88055555555556,0.9999999999999677,0.02791589920790919,1.1184230709140126,41.666666666666664,1.0714285714010205,0.9652996845426077,0.0,0.9986633738088305,0
384,325.99444444444447,0.8500000000000227,0.8333333333333144,0.8791666666666345,0.9668246445498243,0.02651323739429452,1.0622268036416236,41.666666666666664,1.0714285714010205,0.9478672985782123,0.0,0.9974517072436451,0
385,326.8277777777778,0.8333333333333144,0.8416666666666401,0.8722222222221774,0.9554140127388809,0.021533019965952842,0.8626992860595539,38.888888888888886,0.9999999999742858,0.9649681528662613,0.0,0.9956711005077461,0
386,327.6694444444444,0.8416666666666401,0.8666666666666742,0.8583333333333201,0.9805825242718289,0.027622411034992397,1.1066647556548164,38.888888888888886,0.9999999999742858,1.009708737864102,0.0,0.9995830997604893,0
387,328.5361111111111,0.8666666666666742,0.9000000000000341,0.8583333333333201,1.009708737864102,0.027725495713198593,1.110794741993601,44.44444444444444,1.1428571428277552,1.0485436893204443,0.0,0.9987052402124048,0
388,329.43611111111113,0.9000000000000341,0.8833333333333258,0.8666666666666458,1.0384615384616027,0.027378175617368054,1.0968797036394404,38.888888888888886,0.9999999999742858,1.019230769230785,0.0,0.9995008691125992,0
389,330.31944444444446,0.8833333333333258,0.875,0.8736111111111029,1.011128775834659,0.026249244471202055,1.0516501865838792,38.888888888888886,0.9999999999742858,1.0015898251192463,0.0,0.9976246607271309,0
390,331.19444444444446,0.875,0.86388888888888,0.8777777777777658,0.9968354430379883,0.02248815748214734,0.9009659321042127,38.888888888888886,0.9999999999742858,0.9841772151898768,0.0,0.9959571088008006,0
391,332.05833333333334,0.86388888888888,0.8249999999999886,0.8708333333333371,0.9920255183412934,0.020917430540430108,0.8380363006193333,38.888888888888886,0.9999999999742858,0.9473684210526144,0.0,0.9952057756343422,0
392,332.8833333333333,0.8249999999999886,0.8222222222222513,0.8652777777777771,0.9534510433386714,0.02529578261485931,1.0134506742046363,38.888888888888886,0.9999999999742858,0.9502407704655238,0.0,0.9960779331036644,0
393,333.7055555555556,0.8222222222222513,0.8472222222222285,0.8569444444444514,0.9594813614262822,0.026445395764158663,1.059508795393089,41.666666666666664,1.0714285714010205,0.988654781199351,0.0,0.9981702489314943,0
394,334.5527777777778,0.8472222222222285,0.8888888888888573,0.8555555555555543,0.990259740259749,0.02238971628291971,0.8970219821879073,38.888888888888886,0.9999999999742858,1.0389610389610036,0.0,0.9964787444227807,0
395,335.44166666666666,0.8888888888888573,0.8833333333333258,0.8652777777777771,1.027287319422115,0.023836333890901604,0.9549792951695718,41.666666666666664,1.0714285714010205,1.0208667736757544,0.0,0.9954333496772798,0
396,336.325,0.8833333333333258,0.8388888888889028,0.8708333333333371,1.0143540669856328,0.027121145287412343,1.0865820360341045,38.888888888888886,0.9999999999742858,0.9633173843700277,0.0,0.9993956931861243,0
397,337.1638888888889,0.8388888888889028,0.8333333333333144,0.86944444444444,0.9648562300319697,0.026543084505901288,1.0634225988396409,38.888888888888886,0.9999999999742858,0.9584664536741044,0.0,0.9996077913472289,0
398,337.9972222222222,0.8333333333333144,0.8138888888889255,0.8555555555555543,0.9740259740259534,0.027076771452685618,1.0848042419486024,38.888888888888886,0.9999999999742858,0.9512987012987455,0.0,0.9995572904747492,0
399,338.81111111111113,0.8138888888889255,0.8027777777777487,0.8430555555555657,0.9654036243822395,0.021218643118530615,0.8501040865820241,36.111111111111114,0.9285714285475513,0.9522240527182407,0.0,0.9951232541000334,0
400,339.6138888888889,0.8027777777777487,0.8388888888889028,0.8361111111111086,0.9601328903654166,0.02130809999021745,0.8536880882436293,36.111111111111114,0.9285714285475513,1.0033222591362323,0.0,0.9945640455766716,0
401,340.4527777777778,0.8388888888889028,0.86388888888888,0.8361111111111086,1.0033222591362323,0.026947231910685827,1.0796143674871288,38.888888888888886,0.9999999999742858,1.0332225913621187,0.0,0.999328468907617,0
402,341.31666666666666,0.86388888888888,0.8722222222222058,0.8388888888889028,1.0298013245032838,0.02838377847339482,1.1371681939359917,41.666666666666664,1.0714285714010205,1.0397350993377115,0.0,0.9978789498259442,0
403,342.18888888888887,0.8722222222222058,0.841666666666697,0.8430555555555657,1.0345963756177605,0.02772875304379493,1.11092524374321,41.666666666666664,1.0714285714010205,0.9983525535420339,0.0,0.9994973878642752,0
404,343.03055555555557,0.841666666666697,0.7916666666666288,0.8402777777777999,1.0016528925619932,0.026294191909613872,1.0534509615373875,38.888888888888886,0.9999999999742858,0.9421487603305087,0.0,0.9998019665564988,0
405,343.8222222222222,0.7916666666666288,0.8277777777777828,0.8388888888889028,0.9437086092714624,0.025866613644933537,1.0363204585119155,36.111111111111114,0.9285714285475513,0.9867549668874069,0.0,0.9981262796949477,0
406,344.65,0.8277777777777828,0.8000000000000114,0.8361111111111086,0.9900332225913712,0.021788150591283573,0.8729208438657866,38.888888888888886,0.9999999999742858,0.9568106312292524,0.0,0.995762493827814,0
407,345.45,0.8000000000000114,0.7916666666666856,0.8305555555555486,0.9632107023411589,0.02602526105577277,1.0426765111363316,38.888888888888886,0.9999999999742858,0.9531772575251144,0.0,0.9980809422862026,0
408,346.2416666666667,0.7916666666666856,0.8388888888889028,0.8208333333333542,0.9644670050761407,0.020996719137085985,0.841212920333421,38.888888888888886,0.9999999999742858,1.0219966159052363,0.0,0.9953179105339296,0
409,347.0805555555556,0.8388888888889028,0.8527777777777601,0.8333333333333428,1.006666666666672,0.025809267933752256,1.0340229589427472,38.888888888888886,0.9999999999742858,1.0233333333333006,0.0,0.9987054858944491,0
410,347.93333333333334,0.8527777777777601,0.8500000000000227,0.8388888888889028,1.0165562913906905,0.02705900778662088,1.084092558122735,41.666666666666664,1.0714285714010205,1.013245033112593,0.0,0.998366715573747,0
411,348.78333333333336,0.8500000000000227,0.8111111111110745,0.8402777777777999,1.0115702479338848,0.02209733158513802,0.8853078765756971,36.111111111111114,0.9285714285475513,0.9652892561982781,0.0,0.9946753135205926,0
412,349.59444444444443,0.8111111111110745,0.8000000000000114,0.8333333333333428,0.9733333333332783,0.02548582550430793,1.0210645558295663,36.111111111111114,0.9285714285475513,0.9600000000000027,0.0,0.9972543672702381,0
413,350.39444444444445,0.8000000000000114,0.8416666666666401,0.8194444444444287,0.9762711864407106,0.025702405896607144,1.0297416364298007,38.888888888888886,0.9999999999742858,1.027118644067784,0.0,0.9984726823668403,0
414,351.2361111111111,0.8416666666666401,0.8500000000000227,0.8194444444444287,1.027118644067784,0.026479024994584523,1.06085611746519,38.888888888888886,0.9999999999742858,1.0372881355932682,0.0,0.998629263917245,0
415,352.0861111111111,0.8500000000000227,0.86388888888888,0.8333333333333428,1.0200000000000158,0.02576133130508709,1.0321024250189905,38.888888888888886,0.9999999999742858,1.0366666666666442,0.0,0.9965039025244753,0
416,352.95,0.86388888888888,0.8944444444444457,0.8402777777777715,1.0280991735537162,0.026581342704366653,1.0649553759677066,38.888888888888886,0.9999999999742858,1.064462809917365,0.0,0.998898094484625,0
417,353.84444444444443,0.8944444444444457,0.9138888888888914,0.8458333333333314,1.05747126436782,0.02302522971030897,0.9224832031850947,38.888888888888886,0.9999999999742858,1.0804597701149479,0.0,0.9970244631958197,0
418,354.7583333333333,0.9138888888888914,0.8777777777777942,0.8500000000000227,1.0751633986927847,0.02772253511616678,1.1106761285826772,41.666666666666664,1.0714285714010205,1.0326797385620832,0.0,0.9979153496874209,0
419,355.6361111111111,0.8777777777777942,0.8305555555555202,0.8513888888888914,1.0309951060359053,0.026404179188408847,1.0578574937860963,38.888888888888886,0.9999999999742858,0.9755301794453063,0.0,0.9996926019554552,0
420,356.46666666666664,0.8305555555555202,0.8611111111111427,0.8500000000000227,0.9771241830064682,0.020440698241997672,0.8189364895315487,36.111111111111114,0.9285714285475513,1.0130718954248465,0.0,0.9924156022037947,0
421,357.3277777777778,0.8611111111111427,0.8666666666666742,0.8555555555555827,1.0064935064935114,0.027088490944792355,1.0852737718839969,41.666666666666664,1.0714285714010205,1.0129870129869898,0.0,0.9997474183818325,0
422,358.19444444444446,0.8666666666666742,0.8805555555555316,0.8625000000000114,1.0048309178743917,0.02765730071452813,1.108062576381956,41.666666666666664,1.0714285714010205,1.0209339774556754,0.0,0.9989028962074904,0
423,359.075,0.8805555555555316,0.88611111111112,0.8652777777777771,1.0176565008025413,0.026639455111750365,1.0672835924668507,41.666666666666664,1.0714285714010205,1.0240770465489677,0.0,0.9986189856396877,0
424,359.9611111111111,0.88611111111112,0.875,0.8722222222222342,1.015923566878977,0.02654442174700131,1.0634761740903071,38.888888888888886,0.9999999999742858,1.0031847133757823,0.0,0.9996919114433152,0
425,360.8361111111111,0.875,0.8555555555555543,0.8763888888888971,0.9984152139461079,0.027095357650245348,1.085548879690577,41.666666666666664,1.0714285714010205,0.9762282091917486,0.0,0.9983236284237205,0
426,361.69166666666666,0.8555555555555543,0.8083333333333371,0.8763888888888971,0.9762282091917486,0.024673560176652055,0.9885219436289722,36.111111111111114,0.9285714285475513,0.9223454833597421,0.0,0.9931340099518584,0
427,362.5,0.8083333333333371,0.8138888888888687,0.8708333333333371,0.9282296650717706,0.02515528882408206,1.0078219285298087,38.888888888888886,0.9999999999742858,0.9346092503986968,0.0,0.9971765699094919,0
428,363.31388888888887,0.8138888888888687,0.8638888888889369,0.8638888888889085,0.9421221864951321,0.02706657290674085,1.084395647226668,38.888888888888886,0.9999999999742858,1.0000000000000329,0.0,0.9998081436116532,0
429,364.1777777777778,0.8638888888889369,0.8499999999999659,0.8625000000000398,1.0016103059581416,0.026442544066078908,1.0593945449116724,38.888888888888886,0.9999999999742858,0.9855072463767266,0.0,0.9998990203391379,0
430,365.02777777777777,0.8499999999999659,0.8472222222222285,0.8625000000000398,0.9855072463767266,0.02723051768293396,1.0909639335886654,41.666666666666664,1.0714285714010205,0.9822866344605095,0.0,0.9995792169112221,0
431,365.875,0.8472222222222285,0.8666666666666742,0.8597222222222456,0.9854604200322907,0.022351006715785455,0.8954711214176485,36.111111111111114,0.9285714285475513,1.0080775444264758,0.0,0.9954378805690723,0
432,366.7416666666667,0.8666666666666742,0.86388888888888,0.8597222222222456,1.0080775444264758,0.026780458516508402,1.0729327553250594,38.888888888888886,0.9999999999742858,1.004846526655859,0.0,0.9998961595741667,0
433,367.60555555555555,0.86388888888888,0.8138888888888687,0.8597222222222172,1.0048465266558921,0.02730673270127855,1.0940174134078853,38.888888888888886,0.9999999999742858,0.9466882067851193,0.0,0.9997801359726766,0
434,368.4194444444444,0.8138888888888687,0.8000000000000114,0.8527777777777601,0.9543973941368039,0.02148456673849425,0.8607580551127614,36.111111111111114,0.9285714285475513,0.9381107491857006,0.0,0.9950171158036756,0
435,369.21944444444443,0.8000000000000114,0.830555555555577,0.8486111111110972,0.9427168576105035,0.02598966377800527,1.0412503411813396,38.888888888888886,0.9999999999742858,0.9787234042553605,0.0,0.998388936659012,0
436,370.05,0.830555555555577,0.8305555555555202,0.8388888888889028,0.9900662251655721,0.0223635529006372,0.8959737719855431,38.888888888888886,0.9999999999742858,0.9900662251655044,0.0,0.9940677050805546,0
437,370.88055555555553,0.8305555555555202,0.8083333333333371,0.8388888888889028,0.9900662251655044,0.02796960300606638,1.1205746608165041,41.666666666666664,1.0714285714010205,0.963576158940386,0.0,0.9986483729019441,0
438,371.68888888888887,0.8083333333333371,0.7861111111111541,0.8388888888889028,0.963576158940386,0.027323855505226844,1.0947034217227845,38.888888888888886,0.9999999999742858,0.9370860927152674,0.0,0.9987869735140525,0
439,372.475,0.7861111111111541,0.7694444444444457,0.8305555555555486,0.9464882943144409,0.02215247743636543,0.8875172409174502,38.888888888888886,0.9999999999742858,0.9264214046822835,0.0,0.9966886217351587,0
440,373.24444444444447,0.7694444444444457,0.7861111111110972,0.8222222222221944,0.9358108108108439,0.026463405653809724,1.0602303439249972,38.888888888888886,0.9999999999742858,0.9560810810810965,0.0,0.9982323632546661,0
441,374.03055555555557,0.7861111111110972,0.7805555555555657,0.8111111111111029,0.9691780821917735,0.027525659092521602,1.1027884841505682,38.888888888888886,0.9999999999742858,0.9623287671233098,0.0,0.9996544723417844,0
442,374.81111111111113,0.7805555555555657,0.8249999999999886,0.8041666666666742,0.970639032815202,0.02715356877226581,1.087881051094643,41.666666666666664,1.0714285714010205,1.0259067357512714,0.0,0.9995133052542515,0
443,375.6361111111111,0.8249999999999886,0.9111111111110972,0.8041666666666742,1.0259067357512714,0.021697429521330747,0.8692861933428868,38.888888888888886,0.9999999999742858,1.1329879101899547,0.0,0.9958474916136992,0
444,376.5472222222222,0.9111111111110972,0.9499999999999886,0.8041666666666742,1.1329879101899547,0.023294346135745724,0.9332650883297832,41.666666666666664,1.0714285714010205,1.181347150259042,0.0,0.9945598577577364,0
445,377.4972222222222,0.9499999999999886,0.9250000000000114,0.8166666666666629,1.1632653061224405,0.02871642729773789,1.15049544221436,44.44444444444444,1.1428571428277552,1.132653061224509,0.0,0.9966237500174977,0
446,378.4222222222222,0.9250000000000114,0.919444444444423,0.8166666666666629,1.132653061224509,0.02236284541089963,0.8959454271044042,38.888888888888886,0.9999999999742858,1.1258503401360334,0.0,0.9965099513113733,0
447,379.34166666666664,0.919444444444423,0.922222222222274,0.8166666666666629,1.1258503401360334,0.02648825718495152,1.061225996100466,41.666666666666664,1.0714285714010205,1.1292517006803409,0.0,0.9978773494245123,0
448,380.2638888888889,0.922222222222274,0.908333333333303,0.8680555555555429,1.062400000000075,0.027511876543651097,1.1022362998731439,41.666666666666664,1.0714285714010205,1.0463999999999802,0.0,0.9986196510232221,0
449,381.1722222222222,0.908333333333303,0.8916666666666515,0.9097222222222001,0.998473282442739,0.02678456325410109,1.073097207603294,38.888888888888886,0.9999999999742858,0.9801526717557324,0.0,0.9994698980017537,0
450,382.06388888888887,0.8916666666666515,0.9750000000000227,0.9097222222222001,0.9801526717557324,0.021954313847150294,0.8795780114359745,38.888888888888886,0.9999999999742858,1.0717557251908907,0.0,0.9965628575090493,0
451,383.0388888888889,0.9750000000000227,0.9444444444444571,0.9152777777777601,1.0652503793627162,0.028907022029162156,1.158131432845791,44.44444444444444,1.1428571428277552,1.0318664643399427,0.0,0.997354275407047,0
452,383.98333333333335,0.9444444444444571,0.9027777777777715,0.9208333333333485,1.0256410256410224,0.022445005365284168,0.8992370849444238,41.666666666666664,1.0714285714010205,0.9803921568627221,0.0,0.9952829435688366,0
453,384.8861111111111,0.9027777777777715,0.875,0.9208333333333485,0.9803921568627221,0.0269306041371182,1.078948192078002,38.888888888888886,0.9999999999742858,0.9502262443438758,0.0,0.9996035827598542,0
454,385.7611111111111,0.875,0.8805555555555316,0.9208333333333485,0.9502262443438758,0.0269818734221742,1.081002245605307,41.666666666666664,1.0714285714010205,0.9562594268476203,0.0,0.9985575192075196,0
455,386.64166666666665,0.8805555555555316,0.8777777777777942,0.913888888888863,0.9635258358662624,0.027107982295933454,1.0860546737147827,41.666666666666664,1.0714285714010205,0.9604863221884951,0.0,0.9998213736857795,0
456,387.51944444444445,0.8777777777777942,0.8694444444444684,0.9055555555555372,0.9693251533742708,0.027112755764200143,1.08624591803036,38.888888888888886,0.9999999999742858,0.960122699386549,0.0,0.9995396854780934,0
457,388.3888888888889,0.8694444444444684,0.9333333333332803,0.8972222222222115,0.969040247678057,0.02267282635456839,0.9083645090175747,38.888888888888886,0.9999999999742858,1.0402476780185292,0.0,0.9944637349575225,0
458,389.3222222222222,0.9333333333332803,0.9277777777778056,0.8972222222222115,1.0402476780185292,0.023960528689093395,0.959955037722255,41.666666666666664,1.0714285714010205,1.0340557275542228,0.0,0.9945354082718729,0
459,390.25,0.9277777777778056,0.8777777777777942,0.8972222222222115,1.0340557275542228,0.028335681968877095,1.1352412547433004,44.44444444444444,1.1428571428277552,0.9783281733746431,0.0,0.9981399893815562,0
460,391.1277777777778,0.8777777777777942,0.8583333333332916,0.8916666666666515,0.9844236760124963,0.026009211169522588,1.042033488214732,41.666666666666664,1.0714285714010205,0.9626168224298761,0.0,0.9989045965253072,0
461,391.9861111111111,0.8583333333332916,0.8611111111111427,0.8791666666666629,0.9763033175355018,0.026016152770287803,1.0423115966284024,38.888888888888886,0.9999999999742858,0.9794628751975125,0.0,0.9979962830631526,0
462,392.84722222222223,0.8611111111111427,0.8694444444444116,0.8777777777777942,0.9810126582278658,0.02635087096059158,1.0557217520205764,41.666666666666664,1.0714285714010205,0.9905063291138682,0.0,0.9974413387944949,0
463,393.71666666666664,0.8694444444444116,0.8638888888889369,0.8763888888888971,0.9920760697305396,0.026315082350881557,1.0542879165393146,41.666666666666664,1.0714285714010205,0.9857369255151011,0.0,0.9984159231103565,0
464,394.5805555555556,0.8638888888889369,0.908333333333303,0.8736111111111313,0.9888712241653739,0.026418496545421284,1.0584311046262114,41.666666666666664,1.0714285714010205,1.0397456279808635,0.0,0.9993682531612736,0
465,395.4888888888889,0.908333333333303,0.9027777777777715,0.8736111111111313,1.0397456279808635,0.02772134291896506,1.1106283643732726,41.666666666666664,1.0714285714010205,1.0333863275039434,0.0,0.998257454201898,0
466,396.39166666666665,0.9027777777777715,0.8611111111111427,0.8736111111111313,1.0333863275039434,0.02680209354730243,1.0737995415747075,41.666666666666664,1.0714285714010205,0.9856915739268813,0.0,0.9995727910214188,0
467,397.2527777777778,0.8611111111111427,0.8388888888888459,0.8736111111111029,0.9856915739269134,0.02663435030608512,1.0670790734439806,38.888888888888886,0.9999999999742858,0.9602543720190377,0.0,0.9997373250275765,0
468,398.09166666666664,0.8388888888888459,0.8361111111111654,0.8666666666666742,0.9679487179486599,0.026509305485042673,1.0620692755610392,38.888888888888886,0.9999999999742858,0.9647435897436439,0.0,0.9997337755795209,0
469,398.9277777777778,0.8361111111111654,0.8499999999999659,0.8625000000000398,0.9694041867955094,0.026366921619644306,1.0563648059037505,41.666666666666664,1.0714285714010205,0.9855072463767266,0.0,0.9974830912354045,0
470,399.77777777777777,0.8499999999999659,0.8361111111111086,0.8611111111111427,0.9870967741934725,0.027101179770753766,1.0857821372277876,38.888888888888886,0.9999999999742858,0.9709677419354453,0.0,0.9991150933387334,0
471,400.6138888888889,0.8361111111111086,0.8555555555555543,0.8611111111111427,0.9709677419354453,0.02258049339736563,0.9046652798158865,38.888888888888886,0.9999999999742858,0.9935483870967363,0.0,0.9968440158834596,0
472,401.46944444444443,0.8555555555555543,0.8972222222222399,0.8583333333333485,0.9967637540452884,0.02783417877571278,1.115149022098575,41.666666666666664,1.0714285714010205,1.045307443365698,0.0,0.9995132513532365,0
473,402.3666666666667,0.8972222222222399,0.8499999999999659,0.8583333333333485,1.045307443365698,0.02242209224403466,0.8983190932565601,38.888888888888886,0.9999999999742858,0.9902912621358652,0.0,0.9942663259566459,0
474,403.21666666666664,0.8499999999999659,0.8166666666667197,0.8527777777777601,0.9967426710097527,0.02118832308518153,0.8488893442391053,38.888888888888886,0.9999999999742858,0.9576547231271179,0.0,0.9940023836408736,0
475,404.03333333333336,0.8166666666667197,0.8055555555555429,0.8499999999999659,0.9607843137255911,0.026524348941442812,1.0626719768596398,38.888888888888886,0.9999999999742858,0.9477124183006768,0.0,0.9981996112918922,0
476,404.8388888888889,0.8055555555555429,0.8444444444444343,0.8444444444444059,0.9539473684210812,0.025813331916592862,1.0341857784218862,36.111111111111114,0.9285714285475513,1.0000000000000338,0.0,0.996929014133878,0
477,405.68333333333334,0.8444444444444343,0.8694444444444684,0.8416666666666401,1.003300330033023,0.026936058366416764,1.0791667104153888,41.666666666666664,1.0714285714010205,1.033003300330094,0.0,0.9982156032781277,0
478,406.5527777777778,0.8694444444444684,0.8722222222222058,0.8472222222222001,1.0262295081967765,0.026237481861788387,1.0511789291959508,41.666666666666664,1.0714285714010205,1.0295081967213189,0.0,0.9972820963429645,0
479,407.425,0.8722222222222058,0.8916666666666515,0.8499999999999659,1.026143790849695,0.022102349422625383,0.8855089113039775,38.888888888888886,0.9999999999742858,1.0490196078431615,0.0,0.9964391966226733,0
480,408.31666666666666,0.8916666666666515,0.8999999999999773,0.8527777777777601,1.0456026058631962,0.027683515153791634,1.109112832132094,38.888888888888886,0.9999999999742858,1.0553745928338714,0.0,0.9995076852910756,0
481,409.21666666666664,0.8999999999999773,0.8361111111111654,0.8625000000000114,1.043478260869525,0.02149773223516144,0.8612855177999907,36.111111111111114,0.9285714285475513,0.9694041867955413,0.0,0.9933601712126935,0
482,410.0527777777778,0.8361111111111654,0.8499999999999659,0.8597222222222172,0.9725363489499881,0.026354410691562993,1.0558635678637192,38.888888888888886,0.9999999999742858,0.988691437802874,0.0,0.9988419328089314,0
483,410.90277777777777,0.8499999999999659,0.8527777777777601,0.8499999999999659,1.0,0.022058150137256233,0.88373811036697,38.888888888888886,0.9999999999742858,1.0032679738562287,0.0,0.9938891966309455,0
484,411.75555555555553,0.8527777777777601,0.9027777777778283,0.851388888888863,1.0016313213703196,0.027156914477932354,1.0880150935046002,38.888888888888886,0.9999999999742858,1.0603588907015598,0.0,0.9995946069182444,0
485,412.65833333333336,0.9027777777778283,0.8944444444444457,0.8611111111111143,1.0483870967742484,0.02696068496300103,1.0801533508088366,38.888888888888886,0.9999999999742858,1.0387096774193525,0.0,0.999765745047452,0
486,413.5527777777778,0.8944444444444457,0.8833333333333258,0.8708333333333371,1.0271132376395504,0.02718301261525721,1.0890606897318473,38.888888888888886,0.9999999999742858,1.0143540669856328,0.0,0.99964414890367,0
487,414.43611111111113,0.8833333333333258,0.9111111111110972,0.8777777777777658,1.0063291139240558,0.02263312535014338,0.9067739272864725,41.666666666666664,1.0714285714010205,1.0379746835443022,0.0,0.9947232852468809,0
488,415.34722222222223,0.9111111111110972,0.8499999999999659,0.8874999999999886,1.0266040688575875,0.025933469406643084,1.0389989689106884,38.888888888888886,0.9999999999742858,0.9577464788732133,0.0,0.998135111597453,0
489,416.1972222222222,0.8499999999999659,0.830555555555577,0.8874999999999886,0.9577464788732133,0.025364120655216267,1.0161885706408944,38.888888888888886,0.9999999999742858,0.9358372456964368,0.0,0.9971706963397264,0
490,417.02777777777777,0.830555555555577,0.8583333333333485,0.8680555555555429,0.9568000000000386,0.021616147207269586,0.8660296973000323,36.111111111111114,0.9285714285475513,0.9888000000000319,0.0,0.9949413722967341,0
491,417.8861111111111,0.8583333333333485,0.9027777777777715,0.8555555555555543,1.0032467532467724,0.022619542353815664,0.9062297378855897,38.888888888888886,0.9999999999742858,1.0551948051947995,0.0,0.9964543061805295,0
492,418.7888888888889,0.9027777777777715,0.8944444444444457,0.8708333333333371,1.0366826156299722,0.023380447280616726,0.936714646093932,41.666666666666664,1.0714285714010205,1.0271132376395504,0.0,0.9947915661732721,0
493,419.68333333333334,0.8944444444444457,0.8694444444444684,0.8888888888888857,1.006250000000005,0.028349374897301403,1.1357898484656113,41.666666666666664,1.0714285714010205,0.9781250000000304,0.0,0.9976112865673881,0
494,420.5527777777778,0.8694444444444684,0.8833333333333258,0.8888888888888857,0.9781250000000304,0.02733978842054984,1.0953417583191247,41.666666666666664,1.0714285714010205,0.993749999999995,0.0,0.9996528969969991,0
495,421.43611111111113,0.8833333333333258,0.8305555555555202,0.8833333333333258,1.0,0.026581886078486387,1.064977145717881,38.888888888888886,0.9999999999742858,0.9402515723270121,0.0,0.9998056007267955,0
496,422.26666666666665,0.8305555555555202,0.8083333333333371,0.8763888888888971,0.9477020602218208,0.021577530008404656,0.8644825371737207,36.111111111111114,0.9285714285475513,0.9223454833597421,0.0,0.9934655248995019,0
497,423.075,0.8083333333333371,0.8166666666666629,0.8638888888889085,0.9356913183279575,0.026397188965645333,1.0575774373798412,38.888888888888886,0.9999999999742858,0.9453376205787524,0.0,0.9975966554754365,0
498,423.89166666666665,0.8166666666666629,0.8694444444444684,0.8541666666666572,0.9560975609756159,0.020460649119856664,0.8197358018487447,36.111111111111114,0.9285714285475513,1.017886178861828,0.0,0.9909265794910902,0
499,424.7611111111111,0.8694444444444684,0.9166666666666856,0.8638888888889085,1.0064308681672076,0.026984963466390323,1.0811260451904723,41.666666666666664,1.0714285714010205,1.0610932475884223,0.0,0.9998178887722273,0
500,425.6777777777778,0.9166666666666856,0.8861111111110631,0.8694444444444684,1.0543130990415261,0.026600326547232076,1.0657159449781177,41.666666666666664,1.0714285714010205,1.0191693290733992,0.0,0.9996366627548184,0
501,426.56388888888887,0.8861111111110631,0.8833333333333258,0.8763888888888971,1.0110935023771148,0.02673407633486162,1.0710744987936562,41.666666666666664,1.0714285714010205,1.0079239302693956,0.0,0.9996214740551566,0
502,427.4472222222222,0.8833333333333258,0.8583333333333485,0.8763888888888971,1.0079239302693956,0.026710889301039847,1.070145533067738,41.666666666666664,1.0714285714010205,0.9793977812995327,0.0,0.9993073334117546,0
503,428.30555555555554,0.8583333333333485,0.8388888888889028,0.8694444444444684,0.9872204472843352,0.02614843039909032,1.0476111698471156,38.888888888888886,0.9999999999742858,0.9648562300319382,0.0,0.9969290931775057,0
504,429.14444444444445,0.8388888888889028,0.8722222222222058,0.8638888888889085,0.9710610932475825,0.02622633322090925,1.0507322698540575,38.888888888888886,0.9999999999742858,1.009646302250762,0.0,0.9981959570767072,0
505,430.01666666666665,0.8722222222222058,0.88611111111112,0.8638888888889085,1.009646302250762,0.023199181717102144,0.9294524194077324,38.888888888888886,0.9999999999742858,1.0257234726687974,0.0,0.9961007911392634,0
506,430.90277777777777,0.88611111111112,0.9250000000000114,0.8708333333333371,1.0175438596491286,0.023664495226274375,0.9480947479241907,41.666666666666664,1.0714285714010205,1.0622009569378075,0.0,0.9956060983099793,0
507,431.8277777777778,0.9250000000000114,0.8888888888888573,0.8777777777777658,1.0537974683544578,0.022916818797003,0.9181398264707276,38.888888888888886,0.9999999999742858,1.0126582278480791,0.0,0.9956530590432686,0
508,432.71666666666664,0.8888888888888573,0.8361111111111654,0.8847222222221944,1.0047095761381435,0.02753290143852941,1.1030786416268632,38.888888888888886,0.9999999999742858,0.9450549450550362,0.0,0.9993877689451346,0
509,433.5527777777778,0.8361111111111654,0.8694444444444116,0.8847222222221944,0.9450549450550362,0.02630791011156811,1.0540005678188407,41.666666666666664,1.0714285714010205,0.9827315541601194,0.0,0.9984996569924257,0
510,434.4222222222222,0.8694444444444116,0.830555555555577,0.8777777777777658,0.9905063291139001,0.020819689877347246,0.8341204169953039,36.111111111111114,0.9285714285475513,0.946202531645607,0.0,0.9925010614602474,0
511,435.2527777777778,0.830555555555577,0.8277777777777828,0.8708333333333087,0.953748006379637,0.025284740879647907,1.0130082979332726,36.111111111111114,0.9285714285475513,0.9505582137161411,0.0,0.9942126576273818,0
512,436.0805555555556,0.8277777777777828,0.8805555555555316,0.86388888888888,0.9581993569131989,0.02620398712234175,1.049836995372778,38.888888888888886,0.9999999999742858,1.0192926045015904,0.0,0.9998901663272893,0
513,436.9611111111111,0.8805555555555316,0.9055555555555657,0.8708333333333087,1.01116427432217,0.02158414945396131,0.8647477387555176,38.888888888888886,0.9999999999742858,1.039872408293502,0.0,0.9960363091162919,0
514,437.8666666666667,0.9055555555555657,0.8777777777777942,0.8763888888888687,1.0332805071315727,0.027223562946333345,1.0906852989006575,41.666666666666664,1.0714285714010205,1.0015847860539246,0.0,0.9983743478424596,0
515,438.74444444444447,0.8777777777777942,0.8416666666666401,0.8791666666666629,0.9984202211690593,0.027355276180964727,1.095962260221492,41.666666666666664,1.0714285714010205,0.957345971563955,0.0,0.9987303893480721,0
516,439.5861111111111,0.8416666666666401,0.8388888888889028,0.8736111111111029,0.9634340222575304,0.025644896042949568,1.0274375606536101,38.888888888888886,0.9999999999742858,0.9602543720191028,0.0,0.9984000969971935,0
517,440.425,0.8388888888889028,0.8194444444444571,0.8555555555555259,0.9805194805195308,0.025322913663975096,1.0145376530278225,38.888888888888886,0.9999999999742858,0.9577922077922558,0.0,0.9987173010251382,0
518,441.24444444444447,0.8194444444444571,0.8222222222221944,0.8402777777777715,0.9752066115702703,0.02603931254326788,1.0432394701754852,38.888888888888886,0.9999999999742858,0.9785123966941892,0.0,0.9987517084617565,0
519,442.06666666666666,0.8222222222221944,0.875,0.8402777777777715,0.9785123966941892,0.025720797124593197,1.0304784629073878,38.888888888888886,0.9999999999742858,1.0413223140495946,0.0,0.9990843919847444,0
520,442.94166666666666,0.875,0.9027777777777715,0.8402777777777715,1.0413223140495946,0.022059776101057978,0.8838032530089749,36.111111111111114,0.9285714285475513,1.0743801652892568,0.0,0.9941207456281624,0
521,443.84444444444443,0.9027777777777715,0.9111111111110972,0.8583333333333201,1.0517799352750898,0.02198694538153464,0.8808853617965331,38.888888888888886,0.9999999999742858,1.0614886731391588,0.0,0.9965897324422635,0
522,444.75555555555553,0.9111111111110972,0.8611111111111427,0.8763888888888971,1.0396196513470426,0.02619519628166488,1.049484798979156,38.888888888888886,0.9999999999742858,0.9825673534073168,0.0,0.9985057566662536,0
523,445.6166666666667,0.8611111111111427,0.8666666666666742,0.8680555555555713,0.9920000000000183,0.0248539101657987,0.9957474887277864,36.111111111111114,0.9285714285475513,0.9983999999999905,0.0,0.9976414277540617,0
524,446.48333333333335,0.8666666666666742,0.8805555555555316,0.8638888888889085,1.0032154340835873,0.020398310244841497,0.8172382560769778,36.111111111111114,0.9285714285475513,1.019292604501557,0.0,0.9924072027465163,0
525,447.3638888888889,0.8805555555555316,0.875,0.8638888888889085,1.019292604501557,0.025838507966513182,1.0351944321233364,36.111111111111114,0.9285714285475513,1.0128617363343821,0.0,0.9979936630131083,0
526,448.2388888888889,0.875,0.9083333333333599,0.8708333333333371,1.004784688995211,0.021084511164937703,0.8447302216626889,36.111111111111114,0.9285714285475513,1.0430622009569637,0.0,0.9947420787539349,0
527,449.14722222222224,0.9083333333333599,0.9166666666666288,0.875,1.0380952380952684,0.022928644446349164,0.918613609491607,41.666666666666664,1.0714285714010205,1.0476190476190044,0.0,0.9956414852696258,0
528,450.06388888888887,0.9166666666666288,0.9388888888889255,0.8777777777777658,1.0443037974683256,0.026773399572736282,1.0726499456791216,38.888888888888886,0.9999999999742858,1.0696202531646133,0.0,0.9995939485587222,0
529,451.0027777777778,0.9388888888889255,0.875,0.8916666666666515,1.0529595015576914,0.022191707595862704,0.8890889587091865,38.888888888888886,0.9999999999742858,0.9813084112149699,0.0,0.994058587631321,0
530,451.8777777777778,0.875,0.8388888888888459,0.8916666666666515,0.9813084112149699,0.02601929089228923,1.0424373224027934,38.888888888888886,0.9999999999742858,0.9408099688473198,0.0,0.9983674586807336,0
531,452.71666666666664,0.8388888888888459,0.8722222222222626,0.8777777777777658,0.9556962025316097,0.027219384753618618,1.0905179037151371,38.888888888888886,0.9999999999742858,0.993670886076009,0.0,0.9990543118629941,0
532,453.5888888888889,0.8722222222222626,0.8499999999999659,0.875,0.996825396825443,0.02567234450046512,1.0285372561324395,41.666666666666664,1.0714285714010205,0.9714285714285325,0.0,0.9982313975038322,0
533,454.43888888888887,0.8499999999999659,0.8555555555555543,0.875,0.9714285714285325,0.0265777470837534,1.0648113209609822,41.666666666666664,1.0714285714010205,0.9777777777777763,0.0,0.998023008610784,0
534,455.2944444444444,0.8555555555555543,0.8805555555555884,0.875,0.9777777777777763,0.026373718691257462,1.0566371238989616,38.888888888888886,0.9999999999742858,1.0063492063492439,0.0,0.9989312087086174,0
535,456.175,0.8805555555555884,0.8666666666666742,0.875,1.0063492063492439,0.026275505787128034,1.0527023204014372,38.888888888888886,0.9999999999742858,0.9904761904761992,0.0,0.9999054845287139,0
536,457.0416666666667,0.8666666666666742,0.8166666666666629,0.8736111111111313,0.9920508744038014,0.02634287755190333,1.055401503956002,38.888888888888886,0.9999999999742858,0.9348171701112618,0.0,0.9996549271132384,0
537,457.85833333333335,0.8166666666666629,0.8000000000000114,0.8694444444444684,0.9392971246006087,0.021465741213051677,0.8600038289343301,38.888888888888886,0.9999999999742858,0.9201277955271442,0.0,0.9957633349049706,0
538,458.65833333333336,0.8000000000000114,0.8333333333333144,0.8611111111111143,0.9290322580645259,0.025830596336411285,1.0348774604374666,38.888888888888886,0.9999999999742858,0.9677419354838455,0.0,0.9977779344303811,0
539,459.4916666666667,0.8333333333333144,0.8416666666666401,0.8527777777777601,0.9771986970684019,0.02758164718973869,1.105031592250286,41.666666666666664,1.0714285714010205,0.9869706840390773,0.0,0.9993290245139681,0
540,460.3333333333333,0.8416666666666401,0.8583333333333485,0.845833333333303,0.9950738916256201,0.02796721048929675,1.120478806983075,44.44444444444444,1.1428571428277552,1.014778325123207,0.0,0.9983367089627131,0
541,461.19166666666666,0.8583333333333485,0.8777777777777942,0.8527777777777601,1.0065146579804947,0.022611751003379324,0.9059175850863308,38.888888888888886,0.9999999999742858,1.0293159609120928,0.0,0.9945429454365335,0
542,462.06944444444446,0.8777777777777942,0.8805555555555316,0.8527777777777601,1.0293159609120928,0.02749872079979964,1.1017092279228935,41.666666666666664,1.0714285714010205,1.0325732899022735,0.0,0.9995671654737115,0
543,462.95,0.8805555555555316,0.841666666666697,0.8569444444444514,1.0275526742301095,0.027140302772242705,1.087349561839216,41.666666666666664,1.0714285714010205,0.9821717990275801,0.0,0.9991836765987383,0
544,463.7916666666667,0.841666666666697,0.8055555555555429,0.8500000000000227,0.9901960784313817,0.02611506564066698,1.0462744435859188,38.888888888888886,0.9999999999742858,0.9477124183006134,0.0,0.9996838707169934,0
545,464.59722222222223,0.8055555555555429,0.8138888888888687,0.8416666666666686,0.9570957095709399,0.021242732835073608,0.8510692174041696,36.111111111111114,0.9285714285475513,0.9669966996699408,0.0,0.9935959835163238,0
546,465.4111111111111,0.8138888888888687,0.875,0.8374999999999773,0.9718076285240487,0.022546846324220132,0.9033172428927558,38.888888888888886,0.9999999999742858,1.0447761194030134,0.0,0.9965588010338823,0
547,466.2861111111111,0.875,0.8666666666666742,0.8416666666666686,1.0396039603960372,0.02185962748749763,0.8757844954776421,36.111111111111114,0.9285714285475513,1.0297029702970364,0.0,0.9953851582024641,0
548,467.15277777777777,0.8666666666666742,0.8555555555555543,0.8500000000000227,1.0196078431372366,0.02205632692890492,0.8836650653159042,36.111111111111114,0.9285714285475513,1.0065359477123899,0.0,0.9944950022057375,0
549,468.0083333333333,0.8555555555555543,0.8583333333333485,0.8569444444444514,0.9983792544570407,0.026562259376106182,1.0641908211726998,41.666666666666664,1.0714285714010205,1.0016207455429593,0.0,0.9984276840651489,0
550,468.8666666666667,0.8583333333333485,0.8722222222222058,0.8583333333333485,1.0,0.026772065917235428,1.0725965140819627,38.888888888888886,0.9999999999742858,1.0161812297734256,0.0,0.9990635119536798,0
551,469.7388888888889,0.8722222222222058,0.8444444444444343,0.8625000000000114,1.011272141706892,0.027005566915353656,1.0819515021277313,38.888888888888886,0.9999999999742858,0.9790660225442588,0.0,0.999511549457701,0
552,470.5833333333333,0.8444444444444343,0.8222222222222513,0.8569444444444514,0.9854132901134324,0.0214553865201581,0.8595889783383256,36.111111111111114,0.9285714285475513,0.9594813614262822,0.0,0.9935853708607575,0
