beat_index,peak_time_s,rr_prev_s,rr_next_s,rr_baseline_s,prematurity_index,aa_ratio,morph_index,qrs_width_ms,width_index,pause_index,pvc_score,morphology_score,is_pvc_candidate
0,0.5444444444444444,,0.7277777777777777,0.7027777777777828,,0.03664902028432912,1.061860408578931,63.888888888888886,1.045454545437438,1.0355731225296367,0.0,0.9995084188624761,0
1,1.2722222222222221,0.7277777777777777,0.6944444444444444,0.7027777777777828,1.0355731225296367,0.036353894426507154,1.0533094988537113,63.888888888888886,1.045454545437438,0.9881422924901114,0.0,0.9977294093093517,0
2,1.9666666666666666,0.6944444444444444,0.711111111111111,0.7027777777777828,0.9881422924901114,0.0357092654565515,1.0346321651594292,61.111111111111114,0.9999999999836364,1.011857707509874,0.0,0.9995600413305656,0
3,2.6777777777777776,0.711111111111111,0.713888888888889,0.7027777777777828,1.011857707509874,0.035286636752928854,1.022387016873765,61.111111111111114,0.9999999999836364,1.0158102766798347,0.0,0.9997058803520984,0
4,3.3916666666666666,0.713888888888889,0.7138888888888886,0.7027777777777828,1.0158102766798347,0.0348360816756824,1.0093327361671998,61.111111111111114,0.9999999999836364,1.015810276679834,0.0,0.9992144582095155,0
5,4.105555555555555,0.7138888888888886,0.7277777777777779,0.7138888888888886,1.0,0.03625932878343854,1.0505695753412316,61.111111111111114,0.9999999999836364,1.0194552529182885,0.0,0.9995231483635654,0
6,4.833333333333333,0.7277777777777779,0.7638888888888893,0.7138888888888888,1.019455252918288,0.03608920520473574,1.0456404533240873,63.888888888888886,1.045454545437438,1.0700389105058372,0.0,0.9981818717088148,0
7,5.597222222222222,0.7638888888888893,0.7527777777777773,0.713888888888889,1.070038910505837,0.03793648471161576,1.0991631111391407,66.66666666666667,1.0909090908912398,1.0544747081712054,0.0,0.9981799188827383,0
8,6.35,0.7527777777777773,0.7333333333333334,0.7208333333333334,1.0443159922928702,0.035296570467560656,1.0226748340703993,61.111111111111114,0.9999999999836364,1.0173410404624277,0.0,0.9997840184738205,0
9,7.083333333333333,0.7333333333333334,0.7000000000000002,0.7277777777777777,1.0076335877862597,0.03648503904303581,1.057109253253956,63.888888888888886,1.045454545437438,0.9618320610687026,0.0,0.9992899536113355,0
10,7.783333333333333,0.7000000000000002,0.6916666666666664,0.7208333333333334,0.9710982658959538,0.03487085622190535,1.0103402859891042,61.111111111111114,0.9999999999836364,0.9595375722543348,0.0,0.9997328341286097,0
11,8.475,0.6916666666666664,0.6972222222222229,0.7138888888888888,0.9688715953307391,0.03534501154726672,1.0240783549364314,61.111111111111114,0.9999999999836364,0.9766536964980554,0.0,0.9988770145331924,0
12,9.172222222222222,0.6972222222222229,0.7249999999999996,0.7138888888888888,0.9766536964980554,0.03351449928072862,0.9710415073433722,61.111111111111114,0.9999999999836364,1.01556420233463,0.0,0.9985862812645416,0
13,9.897222222222222,0.7249999999999996,0.7555555555555564,0.7194444444444443,1.0077220077220075,0.036199027703147584,1.0488224255058818,61.111111111111114,0.9999999999836364,1.0501930501930516,0.0,0.9979129413261307,0
14,10.652777777777779,0.7555555555555564,0.7388888888888889,0.7263888888888888,1.0401529636711295,0.03794235088012845,1.0993330761762783,66.66666666666667,1.0909090908912398,1.0172084130019123,0.0,0.9988246254451651,0
15,11.391666666666667,0.7388888888888889,0.7472222222222218,0.7305555555555556,1.0114068441064639,0.03769145644109775,1.0920637175557084,66.66666666666667,1.0909090908912398,1.022813688212927,0.0,0.9988337406490883,0
16,12.13888888888889,0.7472222222222218,0.7361111111111107,0.7361111111111112,1.0150943396226408,0.03648973145999111,1.0572452102794572,63.888888888888886,1.045454545437438,0.9999999999999994,0.0,0.9994161120655489,0
17,12.875,0.7361111111111107,0.7361111111111107,0.734722222222222,1.0018903591682418,0.03628098910844179,1.0511971566893679,63.888888888888886,1.045454545437438,1.0018903591682418,0.0,0.9993555116753321,0
18,13.61111111111111,0.7361111111111107,0.7055555555555557,0.734722222222222,1.0018903591682418,0.03519029585051051,1.0195956573991831,63.888888888888886,1.045454545437438,0.9603024574669191,0.0,0.9994310623857012,0
19,14.316666666666666,0.7055555555555557,0.7027777777777775,0.7305555555555552,0.9657794676806091,0.03584968835765252,1.0387007464742952,61.111111111111114,0.9999999999836364,0.9619771863117872,0.0,0.999532444095564,0
20,15.019444444444444,0.7027777777777775,0.43055555555555536,0.7305555555555552,0.9619771863117872,0.033558129608313406,0.9723056425676206,58.333333333333336,0.9545454545298347,0.5893536121673004,0.0,0.9984867628186129,0
21,15.45,0.43055555555555536,1.0,0.7305555555555552,0.5893536121673004,0.03794457340168114,1.099397471012094,66.66666666666667,1.0909090908912398,1.368821292775666,0.0,0.9850658842268135,0
22,16.45,1.0,0.7555555555555564,0.7361111111111107,1.3584905660377367,0.03557626852507389,1.0307787422056116,61.111111111111114,0.9999999999836364,1.0264150943396244,0.0,0.9994756476521904,0
23,17.205555555555556,0.7555555555555564,0.7611111111111093,0.7374999999999998,1.0244821092278733,0.0369796661850594,1.0714404679780776,66.66666666666667,1.0909090908912398,1.032015065913369,0.0,0.9987966876750036,0
24,17.966666666666665,0.7611111111111093,0.7444444444444471,0.7374999999999998,1.032015065913369,0.037356287406323255,1.082352605895765,66.66666666666667,1.0909090908912398,1.0094161958568777,0.0,0.9987923514662699,0
25,18.711111111111112,0.7444444444444471,0.719444444444445,0.7402777777777789,1.005628517823642,0.035159692396777804,1.0187089598658678,61.111111111111114,0.9999999999836364,0.9718574108818003,0.0,0.9998465354644732,0
26,19.430555555555557,0.719444444444445,0.6972222222222193,0.7361111111111107,0.977358490566039,0.03346928931534055,0.9697316040513778,58.333333333333336,0.9545454545298347,0.9471698113207513,0.0,0.9984921741900931,0
27,20.127777777777776,0.6972222222222193,0.722222222222225,0.7277777777777779,0.9580152671755684,0.03486823747056925,1.0102644108813348,61.111111111111114,0.9999999999836364,0.9923664122137441,0.0,0.9991518717822505,0
28,20.85,0.722222222222225,0.7222222222222214,0.720833333333335,1.0019267822736047,0.03658170638360659,1.0599100708735916,61.111111111111114,0.9999999999836364,1.0019267822735998,0.0,0.9987397834839014,0
29,21.572222222222223,0.7222222222222214,0.43611111111111,0.7222222222222232,0.9999999999999976,0.034844910416482855,1.009588538102446,61.111111111111114,0.9999999999836364,0.6038461538461515,0.0,0.9997515644684419,0
30,22.008333333333333,0.43611111111111,1.0194444444444457,0.7222222222222232,0.6038461538461515,0.0389873126133916,1.1296095606340801,72.22222222222223,1.1818181817988431,1.4115384615384614,1.0,0.9809624348590551,1
31,23.02777777777778,1.0194444444444457,0.7583333333333329,0.7333333333333361,1.3901515151515118,0.03622993206202184,1.0497178413965793,63.888888888888886,1.045454545437438,1.0340909090909045,0.0,0.9993764920330849,0
32,23.78611111111111,0.7583333333333329,0.7388888888888872,0.7333333333333361,1.0340909090909045,0.03646954783896512,1.0566604146177179,63.888888888888886,1.045454545437438,1.0075757575757516,0.0,0.9990080565904398,0
33,24.525,0.7388888888888872,0.7333333333333343,0.7305555555555561,1.0114068441064608,0.03596859997944984,1.0421460648573482,63.888888888888886,1.045454545437438,1.0038022813688219,0.0,0.9993986379927011,0
34,25.258333333333333,0.7333333333333343,0.7111111111111121,0.7277777777777796,1.0076335877862583,0.035588894464778434,1.031144563321411,63.888888888888886,1.045454545437438,0.9770992366412203,0.0,0.9985906549587146,0
35,25.969444444444445,0.7111111111111121,0.6972222222222229,0.7222222222222232,0.9846153846153847,0.034875832723509116,1.0104844740188326,61.111111111111114,0.9999999999836364,0.965384615384615,0.0,0.998617060924547,0
36,26.666666666666668,0.6972222222222229,0.6805555555555536,0.7222222222222232,0.965384615384615,0.03491005448716257,1.011476007643836,63.888888888888886,1.045454545437438,0.9423076923076883,0.0,0.9976346375561648,0
37,27.34722222222222,0.6805555555555536,0.719444444444445,0.7222222222222232,0.9423076923076883,0.03334599243085495,0.9661592280609513,61.111111111111114,0.9999999999836364,0.9961538461538456,0.0,0.9988988291311058,0
38,28.066666666666666,0.719444444444445,0.7666666666666657,0.7208333333333332,0.9980732177263979,0.03652206410666232,1.0581820090571152,66.66666666666667,1.0909090908912398,1.0635838150289005,0.0,0.9976409122478889,0
39,28.833333333333332,0.7666666666666657,0.7333333333333343,0.7263888888888896,1.0554493307839363,0.03624021476067676,1.0500157699772152,63.888888888888886,1.045454545437438,1.009560229445507,0.0,0.9990737524808344,0
40,29.566666666666666,0.7333333333333343,0.7305555555555543,0.7333333333333343,1.0,0.03816069176354964,1.105659235453672,66.66666666666667,1.0909090908912398,0.9962121212121182,0.0,0.9977238076767458,0
41,30.29722222222222,0.7305555555555543,0.7250000000000014,0.7319444444444443,0.9981024667931674,0.03639399247653246,1.0544712906684106,66.66666666666667,1.0909090908912398,0.9905123339658466,0.0,0.9996242228126282,0
42,31.022222222222222,0.7250000000000014,0.7083333333333321,0.7277777777777779,0.996183206106872,0.03534261813000269,1.0240090086070024,61.111111111111114,0.9999999999836364,0.9732824427480898,0.0,0.9999465483620138,0
43,31.730555555555554,0.7083333333333321,0.7000000000000028,0.7222222222222232,0.9807692307692278,0.0342352175611475,0.9919234354761998,61.111111111111114,0.9999999999836364,0.9692307692307719,0.0,0.997646696167549,0
44,32.43055555555556,0.7000000000000028,0.7083333333333286,0.7152777777777786,0.978640776699032,0.03559495391438952,1.0313201284412932,58.333333333333336,0.9545454545298347,0.9902912621359146,0.0,0.9997293684147868,0
45,33.138888888888886,0.7083333333333286,0.7111111111111157,0.7138888888888886,0.9922178988326786,0.03607405542292297,1.0452015069789793,63.888888888888886,1.045454545437438,0.9961089494163493,0.0,0.9990068068683199,0
46,33.85,0.7111111111111157,0.7277777777777743,0.7152777777777803,0.9941747572815562,0.035739700975081626,1.0355139969762412,61.111111111111114,0.9999999999836364,1.0174757281553313,0.0,0.9997971663896521,0
47,34.577777777777776,0.7277777777777743,0.49444444444444713,0.7222222222222232,1.0076923076923014,0.03639793569088375,1.054585540467442,63.888888888888886,1.045454545437438,0.6846153846153874,0.0,0.9975970909859444,0
48,35.07222222222222,0.49444444444444713,1.00277777777778,0.7180555555555586,0.6885880077369447,0.038735499316699444,1.1223135792398524,66.66666666666667,1.0909090908912398,1.3965183752417767,0.0,0.9864788213312083,0
49,36.075,1.00277777777778,0.7361111111111072,0.7180555555555586,1.3965183752417767,0.037092257706104456,1.0747026691941506,63.888888888888886,1.045454545437438,1.0251450676982494,0.0,0.9983862152183014,0
50,36.81111111111111,0.7361111111111072,0.7083333333333357,0.7180555555555586,1.0251450676982494,0.036056992240556904,1.0447071221998414,63.888888888888886,1.045454545437438,0.986460348162475,0.0,0.9998770556800589,0
51,37.519444444444446,0.7083333333333357,0.68888888888889,0.7097222222222257,0.9980430528375719,0.034290288917184754,0.9935190604661458,58.333333333333336,0.9545454545298347,0.9706457925635976,0.0,0.9984546274335291,0
52,38.208333333333336,0.68888888888889,0.6944444444444429,0.7083333333333339,0.9725490196078439,0.03533192760651369,1.0236992638020423,61.111111111111114,0.9999999999836364,0.9803921568627421,0.0,0.9997050784181598,0
53,38.90277777777778,0.6944444444444429,0.68611111111111,0.7083333333333321,0.9803921568627445,0.03569373068781721,1.0341820642905002,63.888888888888886,1.045454545437438,0.9686274509803923,0.0,0.9981646349744926,0
54,39.58888888888889,0.68611111111111,0.7333333333333343,0.7083333333333321,0.9686274509803923,0.03637030466310954,1.053784965330258,63.888888888888886,1.045454545437438,1.0352941176470618,0.0,0.998026135726237,0
55,40.32222222222222,0.7333333333333343,0.75,0.7097222222222257,1.0332681017612486,0.03644974497630923,1.0560866509627096,63.888888888888886,1.045454545437438,1.0567514677103667,0.0,0.9987727564300317,0
56,41.07222222222222,0.75,0.7388888888888872,0.718055555555555,1.0444874274661518,0.03609341504550188,1.0457624282964413,61.111111111111114,0.9999999999836364,1.0290135396518358,0.0,0.9980846157954666,0
57,41.81111111111111,0.7388888888888872,0.7194444444444485,0.720833333333335,1.0250481695568354,0.039381421332285615,1.1410283773452123,66.66666666666667,1.0909090908912398,0.9980732177264003,0.0,0.9930190348286229,0
58,42.53055555555556,0.7194444444444485,0.7305555555555543,0.7263888888888914,0.9904397705544955,0.035917688128083755,1.0406709564131476,63.888888888888886,1.045454545437438,1.0057361376672989,0.0,0.9990815705432337,0
59,43.26111111111111,0.7305555555555543,0.7194444444444414,0.7250000000000014,1.0076628352490384,0.03632249363843152,1.0523996995358302,63.888888888888886,1.045454545437438,0.9923371647509518,0.0,0.9997443745604879,0
60,43.980555555555554,0.7194444444444414,0.6944444444444429,0.719444444444445,0.9999999999999951,0.03494902788057395,1.0126052139126653,61.111111111111114,0.9999999999836364,0.9652509652509623,0.0,0.9996059871548566,0
61,44.675,0.6944444444444429,0.7000000000000028,0.719444444444445,0.9652509652509623,0.0343269503631847,0.9945812808945932,61.111111111111114,0.9999999999836364,0.9729729729729761,0.0,0.9995325124848825,0
62,45.375,0.7000000000000028,0.7055555555555557,0.719444444444445,0.9729729729729761,0.03442341360607765,0.9973761850343624,61.111111111111114,0.9999999999836364,0.9806949806949802,0.0,0.9984122341562199,0
63,46.080555555555556,0.7055555555555557,0.7333333333333343,0.719444444444445,0.9806949806949802,0.03609160678024614,1.0457100360286975,61.111111111111114,0.9999999999836364,1.01930501930502,0.0,0.9992011794936417,0
64,46.81388888888889,0.7333333333333343,0.7611111111111128,0.7250000000000014,1.0114942528735626,0.035211539784327,1.0202111743234334,63.888888888888886,1.045454545437438,1.0498084291187744,0.0,0.9989320592574356,0
65,47.575,0.7611111111111128,0.7527777777777729,0.7250000000000014,1.0498084291187744,0.03655003989938719,1.0589925733358512,63.888888888888886,1.045454545437438,1.038314176245202,0.0,0.9984817957595319,0
66,48.327777777777776,0.7527777777777729,0.7250000000000014,0.7250000000000014,1.038314176245202,0.035280740097422665,1.0222161685133866,61.111111111111114,0.9999999999836364,1.0,0.0,0.9996584901813035,0
67,49.05277777777778,0.7250000000000014,0.7111111111111086,0.722222222222225,1.003846153846152,0.03567787258413948,1.0337225951881919,63.888888888888886,1.045454545437438,0.9846153846153773,0.0,0.9990783813127279,0
68,49.763888888888886,0.7111111111111086,0.7027777777777828,0.7222222222222214,0.9846153846153822,0.03511050968905095,1.017283951237624,58.333333333333336,0.9545454545298347,0.9730769230769312,0.0,0.9975398344029576,0
69,50.46666666666667,0.7027777777777828,0.7166666666666615,0.715277777777775,0.9825242718446711,0.03516171934746358,1.0187676882757044,61.111111111111114,0.9999999999836364,1.001941747572812,0.0,0.9994361038663583,0
70,51.18333333333333,0.7166666666666615,0.7111111111111157,0.713888888888885,1.0038910505836558,0.03557734662197255,1.030809978740843,61.111111111111114,0.9999999999836364,0.9961089494163542,0.0,0.9996951359304974,0
71,51.894444444444446,0.7111111111111157,0.7333333333333343,0.7138888888888886,0.9961089494163493,0.03707329093613613,1.0741531302992022,66.66666666666667,1.0909090908912398,1.0272373540856048,0.0,0.9988646758834686,0
72,52.62777777777778,0.7333333333333343,0.7388888888888872,0.7208333333333314,1.0173410404624317,0.035520494191560906,1.0291627493055875,61.111111111111114,0.9999999999836364,1.0250481695568403,0.0,0.9998661791306263,0
73,53.36666666666667,0.7388888888888872,0.75277777777778,0.7291666666666679,1.0133333333333292,0.03574893961945862,1.0357816753648246,61.111111111111114,0.9999999999836364,1.0323809523809537,0.0,0.9997304168401571,0
74,54.11944444444445,0.75277777777778,0.7305555555555543,0.7291666666666679,1.0323809523809537,0.03659420731685917,1.0602722700807796,66.66666666666667,1.0909090908912398,1.0019047619047585,0.0,0.9989912187763943,0
75,54.85,0.7305555555555543,0.7250000000000014,0.7277777777777779,1.003816793893128,0.03660390008494372,1.0605531061467557,66.66666666666667,1.0909090908912398,0.996183206106872,0.0,0.9977879202672837,0
76,55.575,0.7250000000000014,0.7055555555555557,0.7250000000000014,1.0,0.03685539119022159,1.0678397524399585,63.888888888888886,1.045454545437438,0.9731800766283508,0.0,0.9985374235771656,0
77,56.28055555555556,0.7055555555555557,0.7027777777777757,0.7208333333333314,0.9788053949903689,0.034097445609119204,0.9879316621590277,58.333333333333336,0.9545454545298347,0.9749518304431596,0.0,0.9976960869271704,0
78,56.983333333333334,0.7027777777777757,0.6944444444444429,0.7208333333333314,0.9749518304431596,0.035170237886735047,1.0190145025021453,61.111111111111114,0.9999999999836364,0.9633911368015418,0.0,0.9997810115811557,0
79,57.67777777777778,0.6944444444444429,0.7388888888888872,0.7208333333333314,0.9633911368015418,0.03358121885271459,0.9729746251025809,58.333333333333336,0.9545454545298347,1.0250481695568403,0.0,0.9975817379009273,0
80,58.416666666666664,0.7388888888888872,0.4777777777777814,0.7277777777777779,1.0152671755725167,0.0370341574223183,1.073019284738002,66.66666666666667,1.0909090908912398,0.6564885496183255,0.0,0.9993494053488723,0
81,58.894444444444446,0.4777777777777814,1.0361111111111114,0.7277777777777779,0.6564885496183255,0.03864724201667305,1.1197564322291267,66.66666666666667,1.0909090908912398,1.423664122137405,0.0,0.9826512539161545,0
82,59.93055555555556,1.0361111111111114,0.7277777777777743,0.7277777777777779,1.423664122137405,0.036491917937488634,1.0573085607829864,63.888888888888886,1.045454545437438,0.9999999999999951,0.0,0.9971085529134494,0
83,60.65833333333333,0.7277777777777743,0.7305555555555543,0.7263888888888879,1.001912045889098,0.033703801799866,0.9765263156344739,58.333333333333336,0.9545454545298347,1.0057361376673037,0.0,0.9901608370827475,0
84,61.388888888888886,0.7305555555555543,0.6972222222222229,0.7263888888888879,1.0057361376673037,0.03763788830942055,1.090511646647721,66.66666666666667,1.0909090908912398,0.9598470363288741,0.0,0.9980119033986705,0
85,62.08611111111111,0.6972222222222229,0.7000000000000028,0.7152777777777786,0.9747572815533979,0.03674071028187361,1.0645170137896525,69.44444444444444,1.1363636363450413,0.978640776699032,0.0,0.9970251343061671,0
86,62.78611111111111,0.7000000000000028,0.7111111111111086,0.7041666666666657,0.9940828402366918,0.034610664183455035,1.0028015408299062,61.111111111111114,0.9999999999836364,1.0098619329388538,0.0,0.9985696970556104,0
87,63.49722222222222,0.7111111111111086,0.7083333333333286,0.7069444444444422,1.0058939096267188,0.0386497813192892,1.1198300054076884,66.66666666666667,1.0909090908912398,1.0019646365422363,0.0,0.9964019038913544,0
88,64.20555555555555,0.7083333333333286,0.7250000000000085,0.7097222222222186,0.9980430528375718,0.03696598381649069,1.0710440381317683,63.888888888888886,1.045454545437438,1.02152641878671,0.0,0.9986812810876218,0
89,64.93055555555556,0.7250000000000085,0.7361111111111143,0.7180555555555586,1.0096711798839535,0.036848979600455724,1.0676539844910309,66.66666666666667,1.0909090908912398,1.0251450676982592,0.0,0.9993481243935645,0
90,65.66666666666667,0.7361111111111143,0.7666666666666657,0.7180555555555586,1.0251450676982592,0.03730179815865276,1.0807738467817245,66.66666666666667,1.0909090908912398,1.0676982591876152,0.0,0.9982310320819099,0
91,66.43333333333334,0.7666666666666657,0.7333333333333343,0.7263888888888914,1.0554493307839339,0.03781811130480283,1.095733386875079,69.44444444444444,1.1363636363450413,1.0095602294455044,0.0,0.9981367499834827,0
92,67.16666666666667,0.7333333333333343,0.6916666666666629,0.7263888888888914,1.0095602294455044,0.03668444183179071,1.062886704468105,63.888888888888886,1.045454545437438,0.952198852772458,0.0,0.9995235127803022,0
93,67.85833333333333,0.6916666666666629,0.6861111111111171,0.7180555555555586,0.9632495164409965,0.034040619878884903,0.9862852063286602,58.333333333333336,0.9545454545298347,0.9555125725338535,0.0,0.998239764468992,0
94,68.54444444444445,0.6861111111111171,0.4638888888888886,0.7097222222222186,0.9667318982387609,0.03496857523439687,1.013171574512649,63.888888888888886,1.045454545437438,0.6536203522504921,0.0,0.9985675904834207,0
95,69.00833333333334,0.4638888888888886,0.9666666666666544,0.7097222222222186,0.6536203522504921,0.03750587235579716,1.086686646323949,61.111111111111114,0.9999999999836364,1.3620352250489134,0.0,0.9879273966069402,0
96,69.975,0.9666666666666544,0.75277777777778,0.7180555555555586,1.3462282398452383,0.03660383809903605,1.0605513101811135,66.66666666666667,1.0909090908912398,1.048355899419728,0.0,0.9987340812761518,0
97,70.72777777777777,0.75277777777778,0.75,0.7291666666666714,1.0323809523809486,0.03839405840834031,1.1124207477359547,69.44444444444444,1.1363636363450413,1.0285714285714218,0.0,0.9976556092727138,0
98,71.47777777777777,0.75,0.7361111111111143,0.7347222222222243,1.0207939508506587,0.03630490847988652,1.0518901911371705,63.888888888888886,1.045454545437438,1.0018903591682435,0.0,0.9992350038436797,0
99,72.21388888888889,0.7361111111111143,0.7111111111111086,0.7361111111111143,1.0,0.03709064051014965,1.0746558129250334,63.888888888888886,1.045454545437438,0.9660377358490491,0.0,0.999383221581713,0
100,72.925,0.7111111111111086,0.7305555555555543,0.7347222222222243,0.9678638941398804,0.03657001475557673,1.0595713202925277,63.888888888888886,1.045454545437438,0.9943289224952696,0.0,0.9988826618059699,0
101,73.65555555555555,0.7305555555555543,0.7083333333333428,0.7319444444444443,0.9981024667931674,0.03658063373331663,1.0598789921471667,63.888888888888886,1.045454545437438,0.9677419354838841,0.0,0.9993627793630475,0
102,74.3638888888889,0.7083333333333428,0.6888888888888829,0.7208333333333314,0.982658959537588,0.03497359160578168,1.0133169177203782,61.111111111111114,0.9999999999836364,0.9556840077071233,0.0,0.9982235549323418,0
103,75.05277777777778,0.6888888888888829,0.7027777777777828,0.7208333333333314,0.9556840077071233,0.03564844651892975,1.0328700110431297,61.111111111111114,0.9999999999836364,0.9749518304431695,0.0,0.9971053658389152,0
104,75.75555555555556,0.7027777777777828,0.7138888888888886,0.7208333333333314,0.9749518304431695,0.03622847044767808,1.049675492913804,63.888888888888886,1.045454545437438,0.9903660886319867,0.0,0.9994739868875867,0
105,76.46944444444445,0.7138888888888886,0.7361111111111001,0.7222222222222214,0.9884615384615391,0.035760364969493794,1.0361127108676125,63.888888888888886,1.045454545437438,1.019230769230755,0.0,0.9996067031974787,0
106,77.20555555555555,0.7361111111111001,0.75277777777778,0.7222222222222214,1.019230769230755,0.03578970326564773,1.0369627520119415,63.888888888888886,1.045454545437438,1.0423076923076966,0.0,0.999137122302894,0
107,77.95833333333333,0.75277777777778,0.74722222222222,0.7222222222222214,1.0423076923076966,0.03630564606197626,1.0519115616734929,63.888888888888886,1.045454545437438,1.0346153846153827,0.0,0.9995360011053873,0
108,78.70555555555555,0.74722222222222,0.7083333333333428,0.7222222222222214,1.0346153846153827,0.036188689572891175,1.0485228908625859,63.888888888888886,1.045454545437438,0.9807692307692449,0.0,0.9992814210957213,0
109,79.41388888888889,0.7083333333333428,0.6833333333333371,0.7124999999999986,0.994152046783641,0.03687015214387288,1.068267432966029,63.888888888888886,1.045454545437438,0.9590643274853874,0.0,0.9991061552547921,0
110,80.09722222222223,0.6833333333333371,0.7055555555555486,0.7111111111111157,0.9609374999999991,0.03640360477360617,1.0547497951855545,63.888888888888886,1.045454545437438,0.9921874999999838,0.0,0.9993018794887958,0
111,80.80277777777778,0.7055555555555486,0.7194444444444485,0.7083333333333428,0.9960784313725259,0.03647800708053559,1.056905510766008,63.888888888888886,1.045454545437438,1.015686274509796,0.0,0.9983545315693023,0
112,81.52222222222223,0.7194444444444485,0.7111111111111086,0.7111111111111157,1.0117187499999993,0.036564363641731046,1.0594075862005778,66.66666666666667,1.0909090908912398,0.99999999999999,0.0,0.9992464653454731,0
113,82.23333333333333,0.7111111111111086,0.7361111111111143,0.7124999999999986,0.998050682261207,0.03838682078470675,1.1122110464689348,69.44444444444444,1.1363636363450413,1.0331384015594607,0.0,0.9968547595788477,0
114,82.96944444444445,0.7361111111111143,0.74166666666666,0.7166666666666686,1.027131782945738,0.037538054495613885,1.0876190843501123,66.66666666666667,1.0909090908912398,1.0348837209302206,0.0,0.9986470936908978,0
115,83.71111111111111,0.74166666666666,0.7361111111111143,0.7277777777777743,1.0190839694656446,0.037303895253499295,1.0808346075325792,66.66666666666667,1.0909090908912398,1.0114503816793985,0.0,0.9975935647270204,0
116,84.44722222222222,0.7361111111111143,0.7222222222222285,0.7277777777777814,1.0114503816793885,0.036377258324563476,1.0539864391414353,61.111111111111114,0.9999999999836364,0.9923664122137442,0.0,0.9977813026826552,0
117,85.16944444444445,0.7222222222222285,0.7083333333333286,0.7208333333333385,1.0019267822736047,0.03532937160643867,1.023625206835091,63.888888888888886,1.045454545437438,0.9826589595375586,0.0,0.9981829306175272,0
118,85.87777777777778,0.7083333333333286,0.6916666666666629,0.7152777777777786,0.9902912621359146,0.032834629625940644,0.9513431180327508,55.55555555555556,0.9090909090760331,0.9669902912621295,0.0,0.9955957701058078,0
119,86.56944444444444,0.6916666666666629,0.6944444444444429,0.7152777777777786,0.9669902912621295,0.03429376083916336,0.9936196551467719,61.111111111111114,0.9999999999836364,0.9708737864077637,0.0,0.9956341030348757,0
120,87.26388888888889,0.6944444444444429,0.7027777777777828,0.7152777777777786,0.9708737864077637,0.03671684242290031,1.063825471852524,63.888888888888886,1.045454545437438,0.9825242718446662,0.0,0.9978295167792176,0
121,87.96666666666667,0.7027777777777828,0.73888888888888,0.7152777777777786,0.9825242718446662,0.035362901944986265,1.0245967072657634,61.111111111111114,0.9999999999836364,1.0330097087378505,0.0,0.9996258212523987,0
122,88.70555555555555,0.73888888888888,0.75833333333334,0.7166666666666686,1.0310077519379695,0.038127965410785725,1.104711029524903,69.44444444444444,1.1363636363450413,1.0581395348837275,0.0,0.9970619388749724,0
123,89.46388888888889,0.75833333333334,0.74722222222222,0.7291666666666714,1.0400000000000023,0.03830036464089131,1.1097060857501,66.66666666666667,1.0909090908912398,1.024761904761895,0.0,0.9975420431852993,0
124,90.21111111111111,0.74722222222222,0.7166666666666686,0.7291666666666714,1.024761904761895,0.03571588647893421,1.034824001161537,63.888888888888886,1.045454545437438,0.9828571428571391,0.0,0.9987677963229593,0
125,90.92777777777778,0.7166666666666686,0.6972222222222229,0.7194444444444485,0.996138996138993,0.036662367057863014,1.0622471149707513,63.888888888888886,1.045454545437438,0.9691119691119645,0.0,0.9982513485718181,0
126,91.625,0.6972222222222229,0.6916666666666629,0.7124999999999986,0.9785575048732972,0.03465020407797726,1.0039471607735446,61.111111111111114,0.9999999999836364,0.9707602339181253,0.0,0.9997443483083109,0
127,92.31666666666666,0.6916666666666629,0.7111111111111086,0.7055555555555557,0.9803149606299156,0.03513530369703798,1.0180023272063992,61.111111111111114,0.9999999999836364,1.0078740157480277,0.0,0.9983383654485731,0
128,93.02777777777777,0.7111111111111086,0.7166666666666686,0.7069444444444457,1.0058939096267137,0.03497490519395863,1.0133549773265411,61.111111111111114,0.9999999999836364,1.0137524557956787,0.0,0.9985705128928204,0
129,93.74444444444444,0.7166666666666686,0.7277777777777885,0.7138888888888886,1.0038910505836607,0.034680722680910214,1.0048313998590164,63.888888888888886,1.045454545437438,1.0194552529183034,0.0,0.9985685473691079,0
130,94.47222222222223,0.7277777777777885,0.7305555555555543,0.7166666666666686,1.0155038759690045,0.03649634489076225,1.0574368263239315,63.888888888888886,1.045454545437438,1.019379844961236,0.0,0.999099793871276,0
131,95.20277777777778,0.7305555555555543,0.74722222222222,0.7222222222222285,1.0115384615384508,0.03764954943111215,1.090849513345053,63.888888888888886,1.045454545437438,1.0346153846153725,0.0,0.9982361362025922,0
132,95.95,0.74722222222222,0.7666666666666657,0.7222222222222285,1.0346153846153725,0.03715001186137236,1.0763760250010486,66.66666666666667,1.0909090908912398,1.0615384615384509,0.0,0.9989729756848231,0
133,96.71666666666667,0.7666666666666657,0.7138888888888886,0.7222222222222285,1.0615384615384509,0.03668217692385572,1.0628210815388537,63.888888888888886,1.045454545437438,0.9884615384615294,0.0,0.9988778026352317,0
134,97.43055555555556,0.7138888888888886,0.6833333333333371,0.7166666666666686,0.9961240310077488,0.03769313138731556,1.092112247067859,63.888888888888886,1.045454545437438,0.9534883720930261,0.0,0.9987975484605096,0
135,98.1138888888889,0.6833333333333371,0.6944444444444429,0.7152777777777786,0.9553398058252469,0.03445307227913884,0.9982355087066006,58.333333333333336,0.9545454545298347,0.9708737864077637,0.0,0.9979896904705193,0
136,98.80833333333334,0.6944444444444429,0.7194444444444343,0.7152777777777786,0.9708737864077637,0.034515225581580634,1.0000363244068118,61.111111111111114,0.9999999999836364,1.0058252427184313,0.0,0.9980159655740857,0
137,99.52777777777777,0.7194444444444343,0.7305555555555685,0.7180555555555515,1.0019342359767809,0.03364948019613758,0.9749524137980206,58.333333333333336,0.9545454545298347,1.0174081237911263,0.0,0.9986356435535715,0
138,100.25833333333334,0.7305555555555685,0.7555555555555458,0.7236111111111114,1.009596928982743,0.036907957213495074,1.0693627884861476,66.66666666666667,1.0909090908912398,1.0441458733205236,0.0,0.9990184113841742,0
139,101.01388888888889,0.7555555555555458,0.7416666666666742,0.7291666666666714,1.0361904761904561,0.03814925610303447,1.1053279012173733,69.44444444444444,1.1363636363450413,1.017142857142861,0.0,0.996059650929186,0
140,101.75555555555556,0.7416666666666742,0.44999999999998863,0.7305555555555614,1.0152091254752875,0.037642138983018526,1.0906348047012913,63.888888888888886,1.045454545437438,0.6159695817490289,0.0,0.9985852411339712,0
141,102.20555555555555,0.44999999999998863,0.9916666666666742,0.7250000000000014,0.6206896551723969,0.03820133792116866,1.1068369080135838,69.44444444444444,1.1363636363450413,1.3678160919540308,0.0,0.9817717260511734,0
142,103.19722222222222,0.9916666666666742,0.7249999999999943,0.7250000000000014,1.3678160919540308,0.03584062619789225,1.038438181511003,63.888888888888886,1.045454545437438,0.9999999999999902,0.0,0.9987516694606573,0
143,103.92222222222222,0.7249999999999943,0.7027777777777828,0.7222222222222143,1.003846153846157,0.03886470474877434,1.1260571481491783,66.66666666666667,1.0909090908912398,0.9730769230769407,0.0,0.9973725658085462,0
144,104.625,0.7027777777777828,0.6916666666666629,0.7222222222222143,0.9730769230769407,0.03524581015212584,1.0212041161939311,61.111111111111114,0.9999999999836364,0.957692307692313,0.0,0.9986839307608224,0
145,105.31666666666666,0.6916666666666629,0.6972222222222229,0.7222222222222143,0.957692307692313,0.0332524670440771,0.963449444698505,55.55555555555556,0.9090909090760331,0.9653846153846268,0.0,0.9982033987161107,0
146,106.01388888888889,0.6972222222222229,0.7333333333333343,0.7222222222222143,0.9653846153846268,0.03485492432845229,1.0098786789185672,61.111111111111114,0.9999999999836364,1.0153846153846278,0.0,0.9985339260062762,0
147,106.74722222222222,0.7333333333333343,0.7277777777777743,0.7277777777777814,1.007633587786256,0.03588229704284325,1.0396455431294642,63.888888888888886,1.045454545437438,0.9999999999999902,0.0,0.9989016632480547,0
148,107.475,0.7277777777777743,0.7416666666666742,0.7263888888888843,1.0019120458891029,0.036450085448520554,1.0560965157274051,66.66666666666667,1.0909090908912398,1.0210325047801316,0.0,0.9976364117780858,0
149,108.21666666666667,0.7416666666666742,0.74166666666666,0.7263888888888843,1.0210325047801316,0.03595807993034486,1.041841259338559,63.888888888888886,1.045454545437438,1.021032504780112,0.0,0.9976163587700337,0
150,108.95833333333333,0.74166666666666,0.7000000000000028,0.7263888888888843,1.021032504780112,0.03680460934218842,1.066368410682865,63.888888888888886,1.045454545437438,0.9636711281070846,0.0,0.9995027428045589,0
151,109.65833333333333,0.7000000000000028,0.6749999999999972,0.7263888888888843,0.9636711281070846,0.034516393897820005,1.0000701749367757,61.111111111111114,0.9999999999836364,0.9292543021032524,0.0,0.9983167741467545,0
152,110.33333333333333,0.6749999999999972,0.7083333333333428,0.7138888888888886,0.9455252918287902,0.03475239026526578,1.0069078802073383,61.111111111111114,0.9999999999836364,0.9922178988326985,0.0,0.9986270587926115,0
153,111.04166666666667,0.7083333333333428,0.7111111111111086,0.7055555555555628,1.0039370078740188,0.035932143525653944,1.0410897838265671,63.888888888888886,1.045454545437438,1.0078740157480175,0.0,0.999321862908876,0
154,111.75277777777778,0.7111111111111086,0.7138888888888886,0.7097222222222257,1.0019569471624181,0.03506139038424305,1.0158607796311858,61.111111111111114,0.9999999999836364,1.0058708414872746,0.0,0.998942713868268,0
155,112.46666666666667,0.7138888888888886,0.7111111111111086,0.7124999999999986,1.001949317738793,0.03636636612479768,1.0536708510137338,63.888888888888886,1.045454545437438,0.998050682261207,0.0,0.9984829491773575,0
156,113.17777777777778,0.7111111111111086,0.7361111111111143,0.7124999999999986,0.998050682261207,0.035899796107072474,1.0401525570509287,66.66666666666667,1.0909090908912398,1.0331384015594607,0.0,0.9981539777756089,0
157,113.91388888888889,0.7361111111111143,0.7277777777777743,0.7124999999999986,1.0331384015594607,0.03614902063397921,1.0473735320160422,63.888888888888886,1.045454545437438,1.0214424951267027,0.0,0.9987449652217285,0
158,114.64166666666667,0.7277777777777743,0.7083333333333286,0.7124999999999986,1.0214424951267027,0.03526133955637863,1.021654061633589,61.111111111111114,0.9999999999836364,0.994152046783621,0.0,0.9988892755129385,0
159,115.35,0.7083333333333286,0.7083333333333428,0.7111111111111086,0.9960937499999969,0.03668407717668795,1.062876139033793,63.888888888888886,1.045454545437438,0.9960937500000169,0.0,0.996975192628463,0
160,116.05833333333334,0.7083333333333428,0.6805555555555571,0.7097222222222257,0.9980430528375819,0.03306858655763107,0.9581217331539004,61.111111111111114,0.9999999999836364,0.9589041095890386,0.0,0.9986299861636228,0
161,116.7388888888889,0.6805555555555571,0.6861111111111029,0.7097222222222257,0.9589041095890386,0.033906106951213634,0.9823878592446718,58.333333333333336,0.9545454545298347,0.9667318982387313,0.0,0.9973703805353415,0
162,117.425,0.6861111111111029,0.6944444444444429,0.7097222222222257,0.9667318982387313,0.03435187151126768,0.9953033405916969,61.111111111111114,0.9999999999836364,0.9784735812133002,0.0,0.9968539825746754,0
163,118.11944444444444,0.6944444444444429,0.74722222222222,0.7097222222222257,0.9784735812133002,0.03506610535836251,1.0159973902228494,63.888888888888886,1.045454545437438,1.0528375733855104,0.0,0.9984943574877838,0
164,118.86666666666666,0.74722222222222,0.7361111111111143,0.7097222222222257,1.0528375733855104,0.035338820869866595,1.0238989876523272,63.888888888888886,1.045454545437438,1.037181996086105,0.0,0.999000000551711,0
165,119.60277777777777,0.7361111111111143,0.7333333333333343,0.7097222222222257,1.037181996086105,0.0360306843593695,1.0439448836120218,63.888888888888886,1.045454545437438,1.0332681017612486,0.0,0.9993455442578757,0
166,120.33611111111111,0.7333333333333343,0.7000000000000028,0.7180555555555586,1.0212765957446779,0.034558395138200484,1.0012871093575386,61.111111111111114,0.9999999999836364,0.9748549323017407,0.0,0.9968292089080112,0
167,121.03611111111111,0.7000000000000028,0.6833333333333371,0.7083333333333357,0.9882352941176478,0.0351856389903646,1.0194607305886199,61.111111111111114,0.9999999999836364,0.9647058823529433,0.0,0.9997823673644551,0
168,121.71944444444445,0.6833333333333371,0.6722222222222172,0.7041666666666657,0.9704142011834387,0.035736211945595654,1.0354129066265736,63.888888888888886,1.045454545437438,0.9546351084812564,0.0,0.9988140283424289,0
169,122.39166666666667,0.6722222222222172,0.6972222222222229,0.6972222222222229,0.9641434262948126,0.03447964455508274,0.9990054078081798,61.111111111111114,0.9999999999836364,1.0,0.0,0.9984031961141626,0
170,123.08888888888889,0.6972222222222229,0.7083333333333286,0.6958333333333329,1.0019960079840335,0.03539712526888692,1.0255882860970156,63.888888888888886,1.045454545437438,1.0179640718562812,0.0,0.9972315747406844,0
171,123.79722222222222,0.7083333333333286,0.6888888888888971,0.6986111111111128,1.0139165009940265,0.03479405233470587,1.008114987566135,58.333333333333336,0.9545454545298347,0.9860834990059735,0.0,0.9988586568637695,0
172,124.48611111111111,0.6888888888888971,0.7222222222222143,0.6986111111111128,0.9860834990059735,0.0360522063584516,1.0445684571362648,66.66666666666667,1.0909090908912398,1.0337972166997873,0.0,0.9974160013895228,0
173,125.20833333333333,0.7222222222222143,0.7305555555555543,0.7041666666666657,1.0256410256410158,0.036155907746089136,1.047573077641607,63.888888888888886,1.045454545437438,1.0374753451676524,0.0,0.9992113516546182,0
174,125.93888888888888,0.7305555555555543,0.75,0.7041666666666657,1.0374753451676524,0.03554593399394757,1.0298998363749525,63.888888888888886,1.045454545437438,1.0650887573964511,0.0,0.9984301867085477,0
175,126.68888888888888,0.75,0.4333333333333371,0.7041666666666657,1.0650887573964511,0.035985706462805654,1.0426417042295506,66.66666666666667,1.0909090908912398,0.6153846153846216,0.0,0.9994482409974002,0
176,127.12222222222222,0.4333333333333371,0.9388888888888829,0.6986111111111128,0.6202783300198846,0.03755581878161714,1.0881337827471549,63.888888888888886,1.045454545437438,1.3439363817097296,0.0,0.9848346446156282,0
177,128.0611111111111,0.9388888888888829,0.6777777777777771,0.7027777777777757,1.3359683794466357,0.03349594634030616,0.9705039586519068,58.333333333333336,0.9545454545298347,0.9644268774703576,0.0,0.994115473995819,0
178,128.73888888888888,0.6777777777777771,0.6888888888888971,0.7027777777777757,0.9644268774703576,0.03424280185965939,0.9921431812225837,61.111111111111114,0.9999999999836364,0.9802371541502122,0.0,0.998285996048019,0
179,129.42777777777778,0.6888888888888971,0.6944444444444571,0.7027777777777757,0.9802371541502122,0.03496937853686214,1.013194849216239,61.111111111111114,0.9999999999836364,0.9881422924901394,0.0,0.9984615121787548,0
180,130.12222222222223,0.6944444444444571,0.7277777777777601,0.7013888888888928,0.9900990099010025,0.03720456756903116,1.07795670971173,69.44444444444444,1.1363636363450413,1.0376237623762066,0.0,0.9981460911502787,0
181,130.85,0.7277777777777601,0.7361111111111143,0.7083333333333357,1.0274509803921286,0.03644149435889731,1.0558475994435126,66.66666666666667,1.0909090908912398,1.0392156862745108,0.0,0.999146947042681,0
182,131.5861111111111,0.7361111111111143,0.7305555555555543,0.7249999999999872,1.0153256704981066,0.03641272050160216,1.0550139122227689,63.888888888888886,1.045454545437438,1.0076628352490582,0.0,0.9998026854707134,0
183,132.31666666666666,0.7305555555555543,0.7055555555555486,0.7291666666666572,1.0019047619047732,0.03545854313407949,1.0273677934050272,61.111111111111114,0.9999999999836364,0.9676190476190507,0.0,0.9996152597135416,0
184,133.0222222222222,0.7055555555555486,0.700000000000017,0.7166666666666544,0.9844961240310149,0.03514816590522649,1.0183749939117113,61.111111111111114,0.9999999999836364,0.9767441860465522,0.0,0.999205148753154,0
185,133.72222222222223,0.700000000000017,0.7027777777777828,0.7027777777777828,0.9960474308300566,0.035257171039272395,1.0215332839635922,63.888888888888886,1.045454545437438,1.0,0.0,0.9989865863727138,0
186,134.425,0.7027777777777828,0.6916666666666629,0.7041666666666657,0.9980276134122373,0.035022214650138446,1.014725710788964,58.333333333333336,0.9545454545298347,0.9822485207100551,0.0,0.999040707235205,0
187,135.11666666666667,0.6916666666666629,0.6833333333333371,0.7013888888888999,0.9861386138613651,0.03545978753434039,1.0274038483761894,61.111111111111114,0.9999999999836364,0.9742574257425644,0.0,0.9995079164601457,0
188,135.8,0.6833333333333371,0.7111111111111086,0.7013888888888999,0.9742574257425644,0.03419956466315112,0.9908904364890577,61.111111111111114,0.9999999999836364,1.0138613861385943,0.0,0.9993073300203892,0
189,136.51111111111112,0.7111111111111086,0.73888888888888,0.7041666666666657,1.0098619329388538,0.03676435439077029,1.0652020728427658,66.66666666666667,1.0909090908912398,1.049309664694269,0.0,0.9989287963865692,0
190,137.25,0.73888888888888,0.74444444444444,0.7083333333333286,1.0431372549019553,0.03585354889222981,1.038812600728291,61.111111111111114,0.9999999999836364,1.0509803921568635,0.0,0.9997470506911199,0
191,137.99444444444444,0.74444444444444,0.7333333333333485,0.7083333333333286,1.0509803921568635,0.03633613781927234,1.0527950229395653,63.888888888888886,1.045454545437438,1.0352941176470871,0.0,0.999613632289496,0
192,138.7277777777778,0.7333333333333485,0.7111111111111086,0.7083333333333286,1.0352941176470871,0.0375001994946364,1.0865222821302205,66.66666666666667,1.0909090908912398,1.003921568627454,0.0,0.998259317646164,0
193,139.4388888888889,0.7111111111111086,0.6944444444444287,0.7083333333333286,1.003921568627454,0.03533604881712269,1.023818670824308,61.111111111111114,0.9999999999836364,0.9803921568627294,0.0,0.9985384634105322,0
194,140.13333333333333,0.6944444444444287,0.6750000000000114,0.7069444444444457,0.9823182711198187,0.034125024841761574,0.988730736595799,58.333333333333336,0.9545454545298347,0.9548133595285017,0.0,0.9989258200744288,0
195,140.80833333333334,0.6750000000000114,0.7166666666666686,0.7069444444444457,0.9548133595285017,0.03505560834983792,1.0156932522766149,61.111111111111114,0.9999999999836364,1.0137524557956787,0.0,0.9997574327731409,0
196,141.525,0.7166666666666686,0.7166666666666686,0.7111111111111086,1.0078125000000062,0.03706482744399997,1.0739079109959853,63.888888888888886,1.045454545437438,1.0078125000000062,0.0,0.9986113675010106,0
197,142.24166666666667,0.7166666666666686,0.7361111111111143,0.7138888888888886,1.0038910505836607,0.03610600747688589,1.0461272785497546,66.66666666666667,1.0909090908912398,1.0311284046692655,0.0,0.999618205939224,0
198,142.9777777777778,0.7361111111111143,0.7305555555555543,0.7166666666666686,1.027131782945738,0.03467480693891005,1.0046599984908868,61.111111111111114,0.9999999999836364,1.019379844961236,0.0,0.9987190323913945,0
199,143.70833333333334,0.7305555555555543,0.73888888888888,0.7236111111111114,1.0095969289827234,0.03498751379692134,1.013720296131511,63.888888888888886,1.045454545437438,1.0211132437619834,0.0,0.9992240097289347,0
200,144.44722222222222,0.73888888888888,0.7083333333333428,0.7236111111111114,1.0211132437619834,0.036152773916120005,1.0474822787622475,66.66666666666667,1.0909090908912398,0.9788867562380165,0.0,0.9996590147417939,0
201,145.15555555555557,0.7083333333333428,0.7111111111111086,0.7166666666666686,0.9883720930232665,0.03542565407756417,1.0264148733346354,61.111111111111114,0.9999999999836364,0.9922480620154978,0.0,0.9994717816950034,0
202,145.86666666666667,0.7111111111111086,0.7138888888888744,0.7138888888888886,0.9961089494163393,0.0355052625559959,1.0287214313484114,63.888888888888886,1.045454545437438,0.9999999999999801,0.0,0.9991575653478993,0
203,146.58055555555555,0.7138888888888744,0.6972222222222229,0.7152777777777715,0.9980582524271729,0.035133417404216306,1.0179476741856421,61.111111111111114,0.9999999999836364,0.9747572815534076,0.0,0.9989856746073149,0
204,147.27777777777777,0.6972222222222229,0.6972222222222229,0.7152777777777715,0.9747572815534076,0.035277045979048564,1.02210913596475,58.333333333333336,0.9545454545298347,0.9747572815534076,0.0,0.9997025437345052,0
205,147.975,0.6972222222222229,0.7388888888889085,0.7152777777777715,0.9747572815534076,0.03591972580540653,1.0407299956141338,63.888888888888886,1.045454545437438,1.0330097087379007,0.0,0.9996269019681144,0
206,148.7138888888889,0.7388888888889085,0.7694444444444173,0.7152777777777715,1.0330097087379007,0.037362484790855764,1.082532167510803,69.44444444444444,1.1363636363450413,1.0757281553397773,0.0,0.9981677538106362,0
207,149.48333333333332,0.7694444444444173,0.7333333333333485,0.7222222222222143,1.0653846153845894,0.03590633977046561,1.0403421516712033,63.888888888888886,1.045454545437438,1.0153846153846475,0.0,0.9998144128492109,0
208,150.21666666666667,0.7333333333333485,0.7055555555555486,0.7222222222222143,1.0153846153846475,0.03653795840673132,1.0586425269054616,66.66666666666667,1.0909090908912398,0.976923076923078,0.0,0.9988774852735376,0
209,150.92222222222222,0.7055555555555486,0.7083333333333428,0.7124999999999915,0.9902534113060449,0.035983953175481045,1.042590904879925,63.888888888888886,1.045454545437438,0.9941520467836509,0.0,0.9988976905759543,0
210,151.63055555555556,0.7083333333333428,0.6944444444444287,0.7097222222222257,0.9980430528375819,0.0354213251262243,1.0262894472795099,63.888888888888886,1.045454545437438,0.9784735812132802,0.0,0.9990784962531798,0
211,152.325,0.6944444444444287,0.7027777777777828,0.7097222222222257,0.9784735812132802,0.03404344907159064,0.9863671787169848,58.333333333333336,0.9545454545298347,0.9902152641878692,0.0,0.9978498324505485,0
212,153.02777777777777,0.7027777777777828,0.7166666666666686,0.7069444444444457,0.9941060903732863,0.034364689640881844,0.9956747301743847,61.111111111111114,0.9999999999836364,1.0137524557956787,0.0,0.9990556462759359,0
213,153.74444444444444,0.7166666666666686,0.7194444444444628,0.7069444444444457,1.0137524557956787,0.03638303025152891,1.0541536736453392,63.888888888888886,1.045454545437438,1.0176817288801812,0.0,0.9989435761356363,0
214,154.4638888888889,0.7194444444444628,0.7361111111110858,0.7125000000000057,1.0097465886939747,0.03623155271673756,1.0497647978790514,63.888888888888886,1.045454545437438,1.0331384015594105,0.0,0.9996836533598159,0
215,155.2,0.7361111111110858,0.7416666666666742,0.7180555555555657,1.0251450676982097,0.03619743994937793,1.0487764222879652,63.888888888888886,1.045454545437438,1.0328820116054118,0.0,0.9993464148084905,0
216,155.94166666666666,0.7416666666666742,0.76111111111112,0.7180555555555657,1.0328820116054118,0.03651035480198553,1.057842746316889,66.66666666666667,1.0909090908912398,1.0599613152804617,0.0,0.9994499183352656,0
217,156.70277777777778,0.76111111111112,0.7055555555555486,0.7180555555555657,1.0599613152804617,0.03668079525262644,1.0627810493097611,63.888888888888886,1.045454545437438,0.982591876208874,0.0,0.9987082479200982,0
218,157.40833333333333,0.7055555555555486,0.6972222222222229,0.7125000000000057,0.9902534113060253,0.03466157507241977,1.0042766213897085,61.111111111111114,0.9999999999836364,0.9785575048732874,0.0,0.9991210898169358,0
219,158.10555555555555,0.6972222222222229,0.6861111111111029,0.7125000000000057,0.9785575048732874,0.03521553845878536,1.020327031011039,58.333333333333336,0.9545454545298347,0.9629629629629437,0.0,0.9978599566142086,0
220,158.79166666666666,0.6861111111111029,0.4166666666666856,0.7111111111111086,0.9648437499999919,0.03551428458569715,1.0289828335924676,58.333333333333336,0.9545454545298347,0.5859375000000288,0.0,0.9983103885685234,0
221,159.20833333333334,0.4166666666666856,0.9749999999999943,0.7111111111111086,0.5859375000000288,0.03828312731002285,1.109206655231718,69.44444444444444,1.1363636363450413,1.371093749999997,0.0,0.9858263006680794,0
222,160.18333333333334,0.9749999999999943,0.76111111111112,0.7180555555555657,1.3578336557059691,0.035557729111589845,1.0302415854405944,63.888888888888886,1.045454545437438,1.0599613152804617,0.0,0.9996943705450939,0
223,160.94444444444446,0.76111111111112,0.7472222222222058,0.7277777777777743,1.0458015267175744,0.0366532041420781,1.0619816307252339,63.888888888888886,1.045454545437438,1.0267175572518907,0.0,0.9983741428890593,0
224,161.69166666666666,0.7472222222222058,0.7305555555555543,0.73888888888888,1.0112781954887118,0.0342705039690763,0.9929458158631751,61.111111111111114,0.9999999999836364,0.9887218045112883,0.0,0.999314045918549,0
225,162.42222222222222,0.7305555555555543,0.7138888888889028,0.7361111111111143,0.9924528301886733,0.036745224818513486,1.0646478169512041,66.66666666666667,1.0909090908912398,0.9698113207547316,0.0,0.9994284223132157,0
226,163.13611111111112,0.7138888888889028,0.7083333333333144,0.7222222222222285,0.988461538461549,0.03554265472550314,1.029804823594168,61.111111111111114,0.9999999999836364,0.980769230769196,0.0,0.9991637880998177,0
227,163.84444444444443,0.7083333333333144,0.7083333333333428,0.7111111111111086,0.9960937499999769,0.03522307344034804,1.0205453478593125,63.888888888888886,1.045454545437438,0.9960937500000169,0.0,0.9984565774597106,0
228,164.55277777777778,0.7083333333333428,0.7027777777777828,0.7111111111111228,0.996093749999997,0.034857858361833596,1.0099636889368675,58.333333333333336,0.9545454545298347,0.9882812499999909,0.0,0.9991039507203718,0
229,165.25555555555556,0.7027777777777828,0.6944444444444287,0.7111111111111228,0.9882812499999909,0.03532705162157827,1.0235579881194843,63.888888888888886,1.045454545437438,0.9765624999999617,0.0,0.9978028289776734,0
230,165.95,0.6944444444444287,0.7222222222222285,0.7111111111111228,0.9765624999999617,0.03561055381369484,1.0317721163886278,63.888888888888886,1.045454545437438,1.0156249999999922,0.0,0.9992450978267473,0
231,166.67222222222222,0.7222222222222285,0.74444444444444,0.7180555555555657,1.0058027079303622,0.036628534041477465,1.061266844820993,66.66666666666667,1.0909090908912398,1.0367504835589734,0.0,0.9987384649149704,0
232,167.41666666666666,0.74444444444444,0.7583333333333542,0.7180555555555657,1.0367504835589734,0.03576051099892942,1.0361169418913883,63.888888888888886,1.045454545437438,1.0560928433269001,0.0,0.9981791966326647,0
233,168.175,0.7583333333333542,0.7361111111110858,0.7180555555555657,1.0560928433269001,0.03649045867235323,1.0572662803656414,63.888888888888886,1.045454545437438,1.0251450676982097,0.0,0.9993773229731999,0
234,168.9111111111111,0.7361111111110858,0.7027777777777828,0.7180555555555657,1.0251450676982097,0.03714014643017245,1.076090186233096,66.66666666666667,1.0909090908912398,0.9787234042553125,0.0,0.99918756098002,0
235,169.61388888888888,0.7027777777777828,0.6916666666666629,0.7111111111111228,0.9882812499999909,0.03533683646844473,1.023841492055221,63.888888888888886,1.045454545437438,0.9726562499999787,0.0,0.9984974138680405,0
236,170.30555555555554,0.6916666666666629,0.6888888888888971,0.7083333333333286,0.9764705882352953,0.034275074164515716,0.9930782316701716,58.333333333333336,0.9545454545298347,0.9725490196078612,0.0,0.9984547617801753,0
237,170.99444444444444,0.6888888888888971,0.7222222222222285,0.7055555555555628,0.9763779527559071,0.034188578457117674,0.9905721246450603,61.111111111111114,0.9999999999836364,1.023622047244093,0.0,0.9990611047697979,0
238,171.71666666666667,0.7222222222222285,0.7277777777777885,0.7125000000000057,1.0136452241715408,0.0363573107139926,1.0534084815931397,66.66666666666667,1.0909090908912398,1.0214424951267125,0.0,0.9994375362170294,0
239,172.44444444444446,0.7277777777777885,0.74444444444444,0.7222222222222285,1.0076923076923137,0.03605073135161288,1.0445257206223753,63.888888888888886,1.045454545437438,1.0307692307692156,0.0,0.9990929249223772,0
240,173.1888888888889,0.74444444444444,0.7249999999999943,0.7250000000000085,1.0268199233716293,0.035585018297665624,1.0310322561338736,63.888888888888886,1.045454545437438,0.9999999999999803,0.0,0.99876463968727,0
241,173.9138888888889,0.7249999999999943,0.7416666666666742,0.7263888888888914,0.9980879541108874,0.03407964150474411,0.9874158100735027,61.111111111111114,0.9999999999836364,1.0210325047801216,0.0,0.9970522285457514,0
242,174.65555555555557,0.7416666666666742,0.7027777777777544,0.7263888888888914,1.0210325047801216,0.0361738741634442,1.0480936325466315,61.111111111111114,0.9999999999836364,0.9674952198852417,0.0,0.9985034036448559,0
243,175.35833333333332,0.7027777777777544,0.7027777777777828,0.7236111111111114,0.9712092130517906,0.03549339849112889,1.0283776846215045,63.888888888888886,1.045454545437438,0.97120921305183,0.0,0.9991218204032959,0
244,176.0611111111111,0.7027777777777828,0.7027777777777828,0.7125000000000057,0.9863547758284592,0.03635891231101108,1.0534548859022108,63.888888888888886,1.045454545437438,0.9863547758284592,0.0,0.9993515237237749,0
245,176.76388888888889,0.7027777777777828,0.6972222222222229,0.7125000000000057,0.9863547758284592,0.033053549335431226,0.95768604808551,58.333333333333336,0.9545454545298347,0.9785575048732874,0.0,0.9973083679930408,0
246,177.4611111111111,0.6972222222222229,0.6888888888888971,0.7125000000000057,0.9785575048732874,0.03445719593565649,0.9983549865960695,61.111111111111114,0.9999999999836364,0.9668615984405496,0.0,0.9978108311959784,0
247,178.15,0.6888888888888971,0.7361111111111143,0.7125000000000057,0.9668615984405496,0.03396220676262654,0.9840132824676108,58.333333333333336,0.9545454545298347,1.0331384015594505,0.0,0.9986269017412371,0
248,178.88611111111112,0.7361111111111143,0.7638888888888857,0.7138888888888886,1.0311284046692655,0.036601713474562377,1.0604897517930805,63.888888888888886,1.045454545437438,1.0700389105058326,0.0,0.9988649693656448,0
249,179.65,0.7638888888888857,0.7277777777777601,0.7138888888888886,1.0700389105058326,0.03527000695468577,1.021905188867996,63.888888888888886,1.045454545437438,1.0194552529182637,0.0,0.9996820092368547,0
250,180.37777777777777,0.7277777777777601,0.6972222222222229,0.7138888888888886,1.0194552529182637,0.035614005038277136,1.0318721113875833,63.888888888888886,1.045454545437438,0.9766536964980558,0.0,0.9971638081708458,0
251,181.075,0.6972222222222229,0.6944444444444571,0.7027777777777828,0.9920948616600728,0.035894777598533156,1.040007151921769,61.111111111111114,0.9999999999836364,0.9881422924901294,0.0,0.9993488638029993,0
252,181.76944444444445,0.6944444444444571,0.6888888888888971,0.7027777777777686,0.9881422924901494,0.0353917557582844,1.0254327111136183,61.111111111111114,0.9999999999836364,0.9802371541502221,0.0,0.9983521520812355,0
253,182.45833333333334,0.6888888888888971,0.6888888888888687,0.7000000000000028,0.9841269841269918,0.03329639716194958,0.9647222659786128,55.55555555555556,0.9090909090760331,0.9841269841269512,0.0,0.9961364791076787,0
254,183.1472222222222,0.6888888888888687,0.7083333333333428,0.6972222222222229,0.9880478087649104,0.034396000092715755,0.9965819121104694,61.111111111111114,0.9999999999836364,1.0159362549800923,0.0,0.9992896183830046,0
255,183.85555555555555,0.7083333333333428,0.7111111111111086,0.6972222222222229,1.0159362549800923,0.036362024785054015,1.0535450660198042,63.888888888888886,1.045454545437438,1.0199203187250951,0.0,0.9967654430399895,0
256,184.56666666666666,0.7111111111111086,0.7249999999999943,0.7027777777777828,1.0118577075098705,0.03832377497566515,1.1103843714847543,66.66666666666667,1.0909090908912398,1.0316205533596683,0.0,0.9985997910661122,0
257,185.29166666666666,0.7249999999999943,0.45277777777778283,0.7097222222222257,1.0215264187866797,0.036077627638640294,1.045305007547663,63.888888888888886,1.045454545437438,0.6379647749510803,0.0,0.9990137993974186,0
258,185.74444444444444,0.45277777777778283,1.0,0.7027777777777828,0.6442687747035599,0.03926304351823231,1.1375985253867664,66.66666666666667,1.0909090908912398,1.4229249011857605,0.0,0.9856909246429743,0
259,186.74444444444444,1.0,0.7166666666666686,0.7027777777777828,1.4229249011857605,0.036943347642180276,1.0703881827469466,66.66666666666667,1.0909090908912398,1.0197628458497978,0.0,0.9973672476568252,0
260,187.4611111111111,0.7166666666666686,0.6916666666666629,0.7027777777777828,1.0197628458497978,0.03419781584367753,0.9908397665899349,55.55555555555556,0.9090909090760331,0.9841897233201456,0.0,0.997021387272461,0
261,188.15277777777777,0.6916666666666629,0.6750000000000114,0.7013888888888999,0.9861386138613651,0.03456046551642537,1.0013470960270523,61.111111111111114,0.9999999999836364,0.9623762376237635,0.0,0.9963686435853679,0
262,188.82777777777778,0.6750000000000114,0.6861111111111029,0.7000000000000028,0.9642857142857266,0.036345919431784605,1.0530784331638565,63.888888888888886,1.045454545437438,0.9801587301587145,0.0,0.9984768112087645,0
263,189.51388888888889,0.6861111111111029,0.6944444444444571,0.7000000000000028,0.9801587301587145,0.03612494409246914,1.0466759437583835,61.111111111111114,0.9999999999836364,0.9920634920635061,0.0,0.9991934936558111,0
264,190.20833333333334,0.6944444444444571,0.7361111111111143,0.7013888888888999,0.9900990099009925,0.03605476974373561,1.0446427280805877,63.888888888888886,1.045454545437438,1.0495049504950376,0.0,0.9995093609393901,0
265,190.94444444444446,0.7361111111111143,0.74444444444444,0.7027777777777828,1.0474308300395228,0.03654123945842681,1.0587375913537582,66.66666666666667,1.0909090908912398,1.0592885375493932,0.0,0.9985193550377249,0
266,191.6888888888889,0.74444444444444,0.7222222222222001,0.7055555555555628,1.0551181102362033,0.03572440126120921,1.0350707065336138,63.888888888888886,1.045454545437438,1.0236220472440527,0.0,0.9983097446138169,0
267,192.4111111111111,0.7222222222222001,0.705555555555577,0.7055555555555628,1.0236220472440527,0.03727635470705452,1.08003665398093,66.66666666666667,1.0909090908912398,1.0000000000000202,0.0,0.9987343276796199,0
268,193.11666666666667,0.705555555555577,0.6916666666666629,0.7111111111111228,0.9921875000000139,0.03585384040481939,1.0388210469480008,58.333333333333336,0.9545454545298347,0.9726562499999787,0.0,0.998147693572111,0
269,193.80833333333334,0.6916666666666629,0.7111111111111086,0.700000000000017,0.9880952380952086,0.03574583093270427,1.0356916049792724,61.111111111111114,0.9999999999836364,1.0158730158729876,0.0,0.9993687858628411,0
270,194.51944444444445,0.7111111111111086,0.6805555555555429,0.700000000000017,1.0158730158729876,0.034676024691323776,1.0046952813733636,58.333333333333336,0.9545454545298347,0.9722222222221805,0.0,0.9994396677896414,0
271,195.2,0.6805555555555429,0.6972222222222229,0.700000000000017,0.9722222222221805,0.03433435453297876,0.9947958076323262,58.333333333333336,0.9545454545298347,0.9960317460317226,0.0,0.9978482352072329,0
272,195.8972222222222,0.6972222222222229,0.7138888888889028,0.7013888888888999,0.9940594059405793,0.03514288259582181,1.0182219165022859,61.111111111111114,0.9999999999836364,1.0178217821782216,0.0,0.9979019161872871,0
273,196.61111111111111,0.7138888888889028,0.73888888888888,0.7083333333333428,1.0078431372549082,0.034596955278197276,1.0024043421155822,58.333333333333336,0.9545454545298347,1.0431372549019344,0.0,0.9987285074155943,0
274,197.35,0.73888888888888,0.7333333333333485,0.7125000000000057,1.0370370370370163,0.03659861690881428,1.0604000325988168,66.66666666666667,1.0909090908912398,1.0292397660818844,0.0,0.9992947691465703,0
275,198.08333333333334,0.7333333333333485,0.74444444444444,0.7125000000000057,1.0292397660818844,0.03800249470732366,1.1010756697960677,66.66666666666667,1.0909090908912398,1.0448343079921882,0.0,0.9984583901147681,0
276,198.82777777777778,0.74444444444444,0.7027777777777828,0.7125000000000057,1.0448343079921882,0.03760086708793745,1.0894390021659544,63.888888888888886,1.045454545437438,0.9863547758284592,0.0,0.9980835841121498,0
277,199.53055555555557,0.7027777777777828,0.6861111111111029,0.7083333333333428,0.9921568627450918,0.034160684969844875,0.989763945065841,58.333333333333336,0.9545454545298347,0.9686274509803676,0.0,0.9984919959970641,0
278,200.21666666666667,0.6861111111111029,0.6888888888888971,0.7069444444444457,0.9705304518663914,0.034805483153613245,1.0084461815227868,58.333333333333336,0.9545454545298347,0.974459724950894,0.0,0.997985672631319,0
279,200.90555555555557,0.6888888888888971,0.44444444444442865,0.7069444444444457,0.974459724950894,0.03642380485905955,1.0553350678838815,61.111111111111114,0.9999999999836364,0.628683693516676,0.0,0.9996977900840829,0
280,201.35,0.44444444444442865,0.9972222222222342,0.7000000000000028,0.6349206349206098,0.03870001764802981,1.1212855414124208,63.888888888888886,1.045454545437438,1.424603174603186,0.0,0.9863146901404904,0
281,202.34722222222223,0.9972222222222342,0.75555555555556,0.7083333333333428,1.4078431372549,0.03474166604833743,1.0065971591763017,61.111111111111114,0.9999999999836364,1.0666666666666587,0.0,0.9953458216193983,0
282,203.1027777777778,0.75555555555556,0.7249999999999943,0.7236111111111256,1.0441458733205227,0.035854153122437206,1.0388301075573936,63.888888888888886,1.045454545437438,1.0019193857965172,0.0,0.9986426587884154,0
283,203.82777777777778,0.7249999999999943,0.7361111111111143,0.7291666666666714,0.9942857142857,0.03796803831990071,1.1000773382351356,69.44444444444444,1.1363636363450413,1.0095238095238073,0.0,0.9981506886046607,0
284,204.5638888888889,0.7361111111111143,0.7194444444444343,0.7291666666666714,1.0095238095238073,0.03704454236733729,1.07332017578162,66.66666666666667,1.0909090908912398,0.9866666666666464,0.0,0.9979595090813376,0
285,205.28333333333333,0.7194444444444343,0.7138888888889028,0.7222222222222143,0.9961538461538431,0.03702505525626851,1.072755560641543,63.888888888888886,1.045454545437438,0.9884615384615685,0.0,0.997940501281445,0
286,205.99722222222223,0.7138888888889028,0.3916666666666515,0.7166666666666686,0.9961240310077687,0.037285315207101634,1.080296273478731,63.888888888888886,1.045454545437438,0.5465116279069542,0.0,0.9993168137073197,0
287,206.38888888888889,0.3916666666666515,0.99444444444444,0.7166666666666686,0.5465116279069542,0.03764234805610736,1.0906408623375885,66.66666666666667,1.0909090908912398,1.3875968992247965,0.0,0.9784401950874895,0
288,207.38333333333333,0.99444444444444,0.7166666666666686,0.7222222222222143,1.3769230769230858,0.035914611950950616,1.0405818279539933,61.111111111111114,0.9999999999836364,0.9923076923077058,0.0,0.9963468419941808,0
289,208.1,0.7166666666666686,0.7416666666666742,0.7222222222222143,0.9923076923077058,0.03701380787744891,1.0724296816364247,63.888888888888886,1.045454545437438,1.0269230769230986,0.0,0.9977749544145218,0
290,208.84166666666667,0.7416666666666742,0.7666666666666515,0.7305555555555543,1.0152091254752973,0.038755830188452856,1.1229026413107988,66.66666666666667,1.0909090908912398,1.0494296577946578,0.0,0.9978180318366224,0
291,209.60833333333332,0.7666666666666515,0.7444444444444684,0.7305555555555543,1.0494296577946578,0.0370985473338911,1.0748849034443302,66.66666666666667,1.0909090908912398,1.0190114068441412,0.0,0.9989462350016083,0
292,210.3527777777778,0.7444444444444684,0.7083333333333144,0.7305555555555543,1.0190114068441412,0.03524076085919565,1.0210578191248065,63.888888888888886,1.045454545437438,0.9695817490494054,0.0,0.9982078570058674,0
293,211.0611111111111,0.7083333333333144,0.6944444444444571,0.7277777777777743,0.9732824427480702,0.03464420835325767,1.0037734420042277,61.111111111111114,0.9999999999836364,0.9541984732824647,0.0,0.9992094888537166,0
294,211.75555555555556,0.6944444444444571,0.6999999999999886,0.7180555555555515,0.9671179883946073,0.034596469747976005,1.0023902744729785,58.333333333333336,0.9545454545298347,0.9748549323017306,0.0,0.9986600691764276,0
295,212.45555555555555,0.6999999999999886,0.700000000000017,0.7152777777777857,0.9786407766990024,0.03358758924957341,0.9731591995375546,58.333333333333336,0.9545454545298347,0.9786407766990421,0.0,0.9969886875259875,0
296,213.15555555555557,0.700000000000017,0.7222222222222001,0.7124999999999915,0.9824561403509129,0.035820936673927245,1.0378677017055404,61.111111111111114,0.9999999999836364,1.013645224171521,0.0,0.9995354857042298,0
297,213.87777777777777,0.7222222222222001,0.7250000000000227,0.7194444444444343,1.0038610038609872,0.0370193758689222,1.0725910073595932,63.888888888888886,1.045454545437438,1.0077220077220534,0.0,0.9988694365082078,0
298,214.6027777777778,0.7250000000000227,0.7472222222222058,0.7194444444444343,1.0077220077220534,0.03482555583984647,1.0090277629849793,61.111111111111114,0.9999999999836364,1.0386100386100303,0.0,0.9997436178666828,0
299,215.35,0.7472222222222058,0.7249999999999943,0.7236111111111114,1.0326295585412437,0.03623615202315181,1.0498980571408358,61.111111111111114,0.9999999999836364,1.0019193857965367,0.0,0.9979793400153028,0
300,216.075,0.7249999999999943,0.7444444444444684,0.7236111111110972,1.0019193857965565,0.0379920770638012,1.1007738313534199,66.66666666666667,1.0909090908912398,1.0287907869482296,0.0,0.9989993906554759,0
301,216.81944444444446,0.7444444444444684,0.7138888888888744,0.7236111111110972,1.0287907869482296,0.03598245175723533,1.042547403127914,63.888888888888886,1.045454545437438,0.9865642994241831,0.0,0.9990561080843219,0
302,217.53333333333333,0.7138888888888744,0.6916666666666629,0.7180555555555372,0.9941972920696376,0.03454733094807953,1.000966538020262,66.66666666666667,1.0909090908912398,0.9632495164410251,0.0,0.9981133871641206,0
303,218.225,0.6916666666666629,0.6833333333333371,0.7180555555555372,0.9632495164410251,0.03577292183563005,1.0364765306614971,63.888888888888886,1.045454545437438,0.9516441005803004,0.0,0.9971757518810707,0
304,218.90833333333333,0.6833333333333371,0.7083333333333428,0.7180555555555372,0.9516441005803004,0.03551439899614686,1.0289861484949108,61.111111111111114,0.9999999999836364,0.9864603481625142,0.0,0.9985725698807284,0
305,219.61666666666667,0.7083333333333428,0.7055555555555486,0.7180555555555372,0.9864603481625142,0.036404237244599166,1.0547681202567794,63.888888888888886,1.045454545437438,0.9825918762089129,0.0,0.9988183788495456,0
306,220.32222222222222,0.7055555555555486,0.7416666666666742,0.7180555555555372,0.9825918762089129,0.03595949395481505,1.0418822289631222,63.888888888888886,1.045454545437438,1.0328820116054527,0.0,0.9982601690434766,0
307,221.0638888888889,0.7416666666666742,0.75555555555556,0.7194444444444343,1.030888030888056,0.03721672719753971,1.0783090200326086,63.888888888888886,1.045454545437438,1.0501930501930712,0.0,0.9975797420210825,0
308,221.81944444444446,0.75555555555556,0.7361111111110858,0.7194444444444343,1.0501930501930712,0.03746554220486129,1.0855181296700642,66.66666666666667,1.0909090908912398,1.0231660231660025,0.0,0.9918276791916301,0
309,222.55555555555554,0.7361111111110858,0.6916666666666913,0.7194444444444343,1.0231660231660025,0.037543349781825455,1.0877725087728265,61.111111111111114,0.9999999999836364,0.9613899613900091,0.0,0.9941281164586421,0
310,223.24722222222223,0.6916666666666913,0.7083333333333144,0.7111111111111086,0.9726562500000381,0.03381872922974211,0.9798561969436711,61.111111111111114,0.9999999999836364,0.9960937499999769,0.0,0.9985082392520771,0
311,223.95555555555555,0.7083333333333144,0.7138888888889028,0.7083333333333286,0.9999999999999799,0.036459936559734146,1.0563819395913192,63.888888888888886,1.045454545437438,1.0078431372549284,0.0,0.998673591924897,0
312,224.66944444444445,0.7138888888889028,0.6916666666666629,0.7083333333333286,1.0078431372549284,0.03461699646292069,1.0029850108601683,61.111111111111114,0.9999999999836364,0.9764705882352953,0.0,0.999162161471671,0
313,225.36111111111111,0.6916666666666629,0.6916666666666629,0.7083333333333286,0.9764705882352953,0.03506871866902018,1.0160731076936347,61.111111111111114,0.9999999999836364,0.9764705882352953,0.0,0.9998931795718174,0
314,226.05277777777778,0.6916666666666629,0.7277777777777885,0.7083333333333286,0.9764705882352953,0.03559771478560583,1.0314001212982657,63.888888888888886,1.045454545437438,1.027450980392179,0.0,0.9991692076798118,0
315,226.78055555555557,0.7277777777777885,0.7361111111111143,0.7111111111111086,1.0234375000000187,0.03753192550667813,1.0874415044135954,66.66666666666667,1.0909090908912398,1.0351562500000082,0.0,0.9972110685743616,0
316,227.51666666666668,0.7361111111111143,0.7361111111110858,0.7208333333333456,1.0211946050096208,0.034611972032523156,1.0028394341524305,61.111111111111114,0.9999999999836364,1.0211946050095815,0.0,0.9993779888222267,0
317,228.25277777777777,0.7361111111110858,0.7361111111111143,0.7208333333333456,1.0211946050095815,0.03556754678151598,1.030526040384224,63.888888888888886,1.045454545437438,1.0211946050096208,0.0,0.9990999570648853,0
318,228.98888888888888,0.7361111111111143,0.7027777777777828,0.7208333333333456,1.0211946050096208,0.03691434329623888,1.0695478174003983,66.66666666666667,1.0909090908912398,0.9749518304431503,0.0,0.9993927190667881,0
319,229.69166666666666,0.7027777777777828,0.6805555555555713,0.7111111111111086,0.9882812500000107,0.034578247039254974,1.0018622938399955,58.333333333333336,0.9545454545298347,0.9570312500000256,0.0,0.9983633183050271,0
320,230.37222222222223,0.6805555555555713,0.6861111111111029,0.7111111111111086,0.9570312500000256,0.03386890879544642,0.9813100883090529,58.333333333333336,0.9545454545298347,0.9648437499999919,0.0,0.9976702425022959,0
321,231.05833333333334,0.6861111111111029,0.7305555555555543,0.7083333333333428,0.9686274509803676,0.03630176082190995,1.051798991608257,66.66666666666667,1.0909090908912398,1.0313725490195922,0.0,0.996691598410409,0
322,231.7888888888889,0.7305555555555543,0.7166666666666686,0.7152777777777857,1.0213592233009579,0.03793948623443218,1.0992500765810402,66.66666666666667,1.0909090908912398,1.0019417475728072,0.0,0.9987371781916861,0
323,232.50555555555556,0.7166666666666686,0.74444444444444,0.7222222222222285,0.9923076923076862,0.03585187838162216,1.0387641997325041,66.66666666666667,1.0909090908912398,1.0307692307692156,0.0,0.9983028815552614,0
324,233.25,0.74444444444444,0.7249999999999943,0.7291666666666714,1.0209523809523682,0.036625532357892294,1.0611798747210164,63.888888888888886,1.045454545437438,0.9942857142857,0.0,0.9987690087094072,0
325,233.975,0.7249999999999943,0.7249999999999943,0.7277777777777743,0.9961832061068672,0.035187033385898195,1.0195011314888223,63.888888888888886,1.045454545437438,0.9961832061068672,0.0,0.9989216879179459,0
326,234.7,0.7249999999999943,0.705555555555577,0.7249999999999943,1.0,0.03628071515225806,1.0511892191449823,63.888888888888886,1.045454545437438,0.9731800766283898,0.0,0.9994197411097321,0
327,235.40555555555557,0.705555555555577,0.7138888888888744,0.7208333333333314,0.9788053949903984,0.03623076586382573,1.049741999781095,63.888888888888886,1.045454545437438,0.9903660886319671,0.0,0.9996596436683525,0
328,236.11944444444444,0.7138888888888744,0.7027777777777828,0.7152777777777715,0.9980582524271729,0.03500243194342683,1.0141525311277173,58.333333333333336,0.9545454545298347,0.982524271844676,0.0,0.9992630887996552,0
329,236.82222222222222,0.7027777777777828,0.6916666666666629,0.7152777777777715,0.982524271844676,0.03391242382859818,0.982570883018526,55.55555555555556,0.9090909090760331,0.9669902912621392,0.0,0.9975231639609476,0
330,237.51388888888889,0.6916666666666629,0.7083333333333428,0.7152777777777715,0.9669902912621392,0.035978229007847064,1.0424250541440678,63.888888888888886,1.045454545437438,0.9902912621359443,0.0,0.9975601031898579,0
331,238.22222222222223,0.7083333333333428,0.7527777777777658,0.7152777777777715,0.9902912621359443,0.03536324390721206,1.0246066152018003,66.66666666666667,1.0909090908912398,1.052427184466012,0.0,0.9951232919426471,0
332,238.975,0.7527777777777658,0.76111111111112,0.7152777777777715,1.052427184466012,0.038779130259009496,1.1235777322750113,69.44444444444444,1.1363636363450413,1.0640776699029344,0.0,0.9956410011149581,0
333,239.73611111111111,0.76111111111112,0.7333333333333201,0.7194444444444343,1.057915057915085,0.03867648218942575,1.1206036303682643,69.44444444444444,1.1363636363450413,1.0193050193050153,0.0,0.9964381745276851,0
334,240.46944444444443,0.7333333333333201,0.700000000000017,0.7194444444444343,1.0193050193050153,0.03641046093861738,1.054948444156894,66.66666666666667,1.0909090908912398,0.9729729729730103,0.0,0.9987229379411473,0
335,241.16944444444445,0.700000000000017,0.6944444444444287,0.7111111111111086,0.9843750000000275,0.033872459624266,0.981412969218608,58.333333333333336,0.9545454545298347,0.9765624999999812,0.0,0.9987648887554595,0
336,241.86388888888888,0.6944444444444287,0.6861111111111313,0.7069444444444599,0.982318271119799,0.03475822579337574,1.0070769574763905,61.111111111111114,0.9999999999836364,0.9705304518664121,0.0,0.99871114327628,0
337,242.55,0.6861111111111313,0.7055555555555486,0.7055555555555628,0.9724409448819084,0.03417710621011232,0.9902397303600858,58.333333333333336,0.9545454545298347,0.9999999999999799,0.0,0.9972017683205872,0
338,243.25555555555556,0.7055555555555486,0.7194444444444343,0.7041666666666657,1.0019723865877628,0.034494446698568854,0.9994342817591905,61.111111111111114,0.9999999999836364,1.0216962524654702,0.0,0.9986961713252496,0
339,243.975,0.7194444444444343,0.7277777777777885,0.7069444444444457,1.017681728880141,0.03545520104982882,1.0272709606133075,63.888888888888886,1.045454545437438,1.0294695481336087,0.0,0.9974249360715268,0
340,244.70277777777778,0.7277777777777885,0.75555555555556,0.7138888888888886,1.0194552529183034,0.03591951370780979,1.0407238503464298,63.888888888888886,1.045454545437438,1.0583657587548705,0.0,0.9994005321191795,0
341,245.45833333333334,0.75555555555556,0.7361111111111143,0.7236111111111114,1.044145873320543,0.03616701807341945,1.0478949857479327,63.888888888888886,1.045454545437438,1.0172744721689098,0.0,0.997708433876416,0
342,246.19444444444446,0.7361111111111143,0.7527777777777658,0.7236111111111114,1.0172744721689098,0.0350788408938483,1.0163663867419785,63.888888888888886,1.045454545437438,1.0403071017274301,0.0,0.9989810106853361,0
343,246.94722222222222,0.7527777777777658,0.7111111111111086,0.7236111111111114,1.0403071017274301,0.03654985375013487,1.0589871798895985,66.66666666666667,1.0909090908912398,0.9827255278310901,0.0,0.9960188448385459,0
344,247.65833333333333,0.7111111111111086,0.6972222222222229,0.7152777777777715,0.9941747572815587,0.03529314775043756,1.0225756650401066,63.888888888888886,1.045454545437438,0.9747572815534076,0.0,0.997331412757769,0
345,248.35555555555555,0.6972222222222229,0.6888888888888971,0.7152777777777715,0.9747572815534076,0.03388109651197143,0.9816632124457553,58.333333333333336,0.9545454545298347,0.9631067961165248,0.0,0.9978652280567679,0
346,249.04444444444445,0.6888888888888971,0.7111111111111086,0.7152777777777715,0.9631067961165248,0.03068097069063649,0.8889434920880543,44.44444444444444,0.7272727272608265,0.9941747572815587,0.0,0.9570243829562104,0
347,249.75555555555556,0.7111111111111086,0.7194444444444343,0.7152777777777715,0.9941747572815587,0.03734736999244044,1.082094234766725,63.888888888888886,1.045454545437438,1.0058252427184413,0.0,0.9951896435730894,0
348,250.475,0.7194444444444343,0.7583333333333258,0.7194444444444343,1.0,0.039144921167209364,1.1341760751562713,75.0,1.2272727272526447,1.0540540540540584,0.0,0.9934230375583513,0
349,251.23333333333332,0.7583333333333258,0.75,0.7236111111111114,1.0479846449136168,0.03830921484030725,1.1099625094224084,66.66666666666667,1.0909090908912398,1.0364683301343565,0.0,0.9971552747940636,0
350,251.98333333333332,0.75,0.7388888888889085,0.7277777777777743,1.030534351145043,0.03666129308487703,1.0622159979208314,63.888888888888886,1.045454545437438,1.0152671755725509,0.0,0.9981694952255384,0
351,252.72222222222223,0.7388888888889085,0.7027777777777828,0.7277777777777743,1.0152671755725509,0.0362809071655396,1.051194782494289,63.888888888888886,1.045454545437438,0.9656488549618436,0.0,0.9987329489600509,0
352,253.425,0.7027777777777828,0.7027777777777544,0.7152777777777715,0.982524271844676,0.03758534865820388,1.0889893746995294,66.66666666666667,1.0909090908912398,0.9825242718446362,0.0,0.9991928291782963,0
353,254.12777777777777,0.7027777777777544,0.7194444444444628,0.7111111111111086,0.9882812499999707,0.03750081569030611,1.086540135643917,66.66666666666667,1.0909090908912398,1.0117187500000293,0.0,0.9988555272329722,0
354,254.84722222222223,0.7194444444444628,0.7083333333333144,0.7152777777777715,1.005825242718481,0.03423168673060506,0.9918211339921947,61.111111111111114,0.9999999999836364,0.9902912621359046,0.0,0.9983317800331233,0
355,255.55555555555554,0.7083333333333144,0.705555555555577,0.7152777777777715,0.9902912621359046,0.031925988743036524,0.925016363001194,102.77777777777777,1.681818181790661,0.98640776699033,0.0,0.9876673421906379,0
356,256.2611111111111,0.705555555555577,0.7416666666666742,0.7152777777777715,0.98640776699033,0.04097989109496968,1.1873420780154194,61.111111111111114,0.9999999999836364,1.0368932038835148,0.0,0.9894203209324293,0
357,257.0027777777778,0.7416666666666742,0.75,0.7194444444444485,1.0308880308880355,0.03547297935137745,1.0277860650935857,61.111111111111114,0.9999999999836364,1.0424710424710366,0.0,0.9964135328603327,0
358,257.7527777777778,0.75,0.7472222222222058,0.7291666666666856,1.0285714285714018,0.03764414502940343,1.0906929274346515,66.66666666666667,1.0909090908912398,1.0247619047618557,0.0,0.9791040915044196,0
359,258.5,0.7472222222222058,0.75,0.7291666666666856,1.0247619047618557,0.03627854521091798,1.0511263477563315,61.111111111111114,0.9999999999836364,1.0285714285714018,0.0,0.9931161970321682,0
360,259.25,0.75,0.7027777777777828,0.7291666666666856,1.0285714285714018,0.03518452314052286,1.0194284002081713,61.111111111111114,0.9999999999836364,0.9638095238095057,0.0,0.9887012728037838,0
361,259.9527777777778,0.7027777777777828,0.6805555555555429,0.7138888888888886,0.9844357976653771,0.03682455998894368,1.0669464562008788,66.66666666666667,1.0909090908912398,0.9533073929960917,0.0,0.9993243494780089,0
362,260.6333333333333,0.6805555555555429,0.7083333333333144,0.7138888888888886,0.9533073929960917,0.031808499903221855,0.9216122679808856,58.333333333333336,0.9545454545298347,0.9922178988326588,0.0,0.9900363417230236,0
363,261.34166666666664,0.7083333333333144,0.7527777777777942,0.7138888888888886,0.9922178988326588,0.036318907377253386,1.0522957920171478,63.888888888888886,1.045454545437438,1.0544747081712298,0.0,0.9975013506319199,0
364,262.09444444444443,0.7527777777777942,0.7333333333333485,0.7249999999999943,1.0383141762452415,0.03753608137996923,1.0875619157445575,66.66666666666667,1.0909090908912398,1.011494252873592,0.0,0.9991424280822374,0
365,262.8277777777778,0.7333333333333485,0.73888888888888,0.7375000000000114,0.994350282485881,0.03753247969294232,1.0874575612808284,66.66666666666667,1.0909090908912398,1.0018832391713473,0.0,0.9972114571305961,0
366,263.56666666666666,0.73888888888888,0.7527777777777942,0.7402777777777771,0.998123827392109,0.0341847154252743,0.990460198035843,69.44444444444444,1.1363636363450413,1.0168855534709424,0.0,0.9894145365812919,0
367,264.31944444444446,0.7527777777777942,0.7444444444444116,0.7430555555555429,1.013084112149572,0.03801827281668404,1.1015328211611528,66.66666666666667,1.0909090908912398,1.0018691588784776,0.0,0.9967640194182559,0
368,265.06388888888887,0.7444444444444116,0.7138888888889028,0.7416666666666458,1.003745318352044,0.0334376535856324,0.968814997587877,47.22222222222222,0.772727272714628,0.9625468164794465,0.0,0.9392848512761613,0
369,265.77777777777777,0.7138888888889028,0.7083333333333144,0.7361111111111143,0.9698113207547316,0.03877963879545314,1.1235924664946886,69.44444444444444,1.1363636363450413,0.9622641509433664,0.0,0.995714287318678,0
370,266.4861111111111,0.7083333333333144,0.7027777777777828,0.7236111111111256,0.978886756237958,0.03728556403183933,1.080303482870294,63.888888888888886,1.045454545437438,0.9712092130518108,0.0,0.9981699331573426,0
371,267.18888888888887,0.7027777777777828,0.7138888888889028,0.7236111111111256,0.9712092130518108,0.035910004443321535,1.0404483310720687,63.888888888888886,1.045454545437438,0.9865642994241837,0.0,0.9988955953277578,0
372,267.90277777777777,0.7138888888889028,0.7277777777777601,0.7236111111111256,0.9865642994241837,0.03705847506597625,1.0737238586346567,63.888888888888886,1.045454545437438,1.0057581573895906,0.0,0.999152659413302,0
373,268.63055555555553,0.7277777777777601,0.7722222222222399,0.7305555555555543,0.9961977186311562,0.038920312809591774,1.127668323501801,66.66666666666667,1.0909090908912398,1.0570342205323455,0.0,0.9885241471469102,0
374,269.40277777777777,0.7722222222222399,0.7527777777777942,0.7305555555555543,1.0570342205323455,0.040416594397796116,1.171021247161787,77.77777777777777,1.2727272727064463,1.0304182509505946,0.0,0.9938667266693842,0
375,270.15555555555557,0.7527777777777942,0.73888888888888,0.7333333333333201,1.0265151515151925,0.036180576725958896,1.0482878310740453,63.888888888888886,1.045454545437438,1.0075757575757638,0.0,0.9966356888463188,0
376,270.89444444444445,0.73888888888888,0.7083333333333144,0.7333333333333201,1.0075757575757638,0.035342093369061515,1.0239938043024104,61.111111111111114,0.9999999999836364,0.9659090909090825,0.0,0.999132521365959,0
377,271.60277777777776,0.7083333333333144,0.7000000000000455,0.7208333333333314,0.9826589595375486,0.03503341669914756,1.0150502764184257,61.111111111111114,0.9999999999836364,0.9710982658960194,0.0,0.9989692440684615,0
378,272.3027777777778,0.7000000000000455,0.6888888888888687,0.7138888888889028,0.9805447470817567,0.03521892975157876,1.0204252895599244,66.66666666666667,1.0909090908912398,0.9649805447470347,0.0,0.9993098726948928,0
379,272.9916666666667,0.6888888888888687,0.7333333333333485,0.7111111111111086,0.968749999999975,0.03566687865812848,1.0334040596673142,63.888888888888886,1.045454545437438,1.031250000000025,0.0,0.999746721895302,0
380,273.725,0.7333333333333485,0.7416666666666174,0.7208333333333314,1.0173410404624514,0.036057754516231215,1.0447292082024875,63.888888888888886,1.045454545437438,1.0289017341039806,0.0,0.9995099913166765,0
381,274.46666666666664,0.7416666666666174,0.7472222222222626,0.7305555555555543,1.0152091254752196,0.03607468738572919,1.045219817326116,61.111111111111114,0.9999999999836364,1.0228136882129848,0.0,0.9998464355863836,0
382,275.2138888888889,0.7472222222222626,0.73888888888888,0.7361111111111143,1.0150943396226921,0.037915190977397276,1.0985461513093284,66.66666666666667,1.0909090908912398,1.0037735849056442,0.0,0.9984574332598706,0
383,275.9527777777778,0.73888888888888,0.7583333333333258,0.73888888888888,1.0,0.038325630974601836,1.1104381467773525,66.66666666666667,1.0909090908912398,1.0263157894736863,0.0,0.9975772690947362,0
384,276.7111111111111,0.7583333333333258,0.7361111111110858,0.73888888888888,1.0263157894736863,0.03793993704178494,1.0992631381711202,69.44444444444444,1.1363636363450413,0.9962406015037372,0.0,0.997971985425143,0
385,277.4472222222222,0.7361111111110858,0.705555555555577,0.737499999999983,0.9981167608286141,0.03597849811165584,1.042432851096841,61.111111111111114,0.9999999999836364,0.9566854990584317,0.0,0.9993394956843106,0
386,278.15277777777777,0.705555555555577,0.6888888888888687,0.7347222222222172,0.9603024574669545,0.0358418764403166,1.038474405751685,61.111111111111114,0.9999999999836364,0.9376181474479941,0.0,0.9998989840857488,0
387,278.84166666666664,0.6888888888888687,0.7000000000000455,0.7347222222222172,0.9376181474479941,0.03584951649735654,1.0386957670330252,61.111111111111114,0.9999999999836364,0.9527410207940193,0.0,0.9996713835614535,0
388,279.5416666666667,0.7000000000000455,0.7166666666666401,0.7347222222222172,0.9527410207940193,0.037007019094373275,1.0722329849740169,66.66666666666667,1.0909090908912398,0.975425330812825,0.0,0.9983817017460936,0
389,280.2583333333333,0.7166666666666401,0.7555555555555884,0.7347222222222172,0.975425330812825,0.03767685927175963,1.091640782479212,63.888888888888886,1.045454545437438,1.0283553875236813,0.0,0.9982547287958385,0
390,281.0138888888889,0.7555555555555884,0.7611111111110631,0.737499999999983,1.0244821092279401,0.03741876349220788,1.084162773850302,66.66666666666667,1.0909090908912398,1.0320150659133298,0.0,0.9984376138697738,0
391,281.775,0.7611111111110631,0.7250000000000227,0.737499999999983,1.0320150659133298,0.03845419525651206,1.1141631391471,66.66666666666667,1.0909090908912398,0.9830508474576807,0.0,0.9977998025066119,0
392,282.5,0.7250000000000227,0.7166666666666401,0.7305555555555543,0.9923954372623902,0.03836638003599799,1.1116188008479835,66.66666666666667,1.0909090908912398,0.980988593155859,0.0,0.9983254511906052,0
393,283.21666666666664,0.7166666666666401,0.4361111111111313,0.7208333333333314,0.9942196531791566,0.03635665590313848,1.0533895092518413,61.111111111111114,0.9999999999836364,0.6050096339113976,0.0,0.9998736274247852,0
394,283.65277777777777,0.4361111111111313,0.9805555555555543,0.7166666666666401,0.6085271317829964,0.03794746557491341,1.0994812681839221,66.66666666666667,1.0909090908912398,1.3682170542636147,0.0,0.986613508331804,0
395,284.6333333333333,0.9805555555555543,0.6999999999999886,0.7166666666666401,1.3682170542636147,0.03644954881350931,1.0560809673861975,61.111111111111114,0.9999999999836364,0.9767441860465319,0.0,0.9992286777072472,0
396,285.3333333333333,0.6999999999999886,0.7027777777777828,0.7166666666666401,0.9767441860465319,0.035935120604729316,1.0411760410410527,66.66666666666667,1.0909090908912398,0.9806201550388031,0.0,0.9989836082947944,0
397,286.0361111111111,0.7027777777777828,0.7222222222222285,0.7166666666666401,0.9806201550388031,0.0343960609582349,0.9965836756142282,55.55555555555556,0.9090909090760331,1.0077519379845423,0.0,0.9858705751764067,0
398,286.7583333333333,0.7222222222222285,0.7444444444444684,0.7194444444444343,1.0038610038610267,0.03761623258349994,1.089884198552363,66.66666666666667,1.0909090908912398,1.0347490347490826,0.0,0.9992669069142679,0
399,287.5027777777778,0.7444444444444684,0.7249999999999659,0.7236111111111256,1.0287907869481892,0.03667655394774782,1.062658162703342,63.888888888888886,1.045454545437438,1.0019193857964779,0.0,0.9996686724167219,0
400,288.22777777777776,0.7249999999999659,0.7305555555555543,0.7236111111110972,1.0019193857965172,0.03568244129981575,1.0338549681208664,63.888888888888886,1.045454545437438,1.0095969289827431,0.0,0.9989990302252684,0
401,288.9583333333333,0.7305555555555543,0.7027777777777828,0.7236111111110972,1.0095969289827431,0.036890222393231774,1.068848943822777,66.66666666666667,1.0909090908912398,0.971209213051849,0.0,0.9978251087370198,0
402,289.6611111111111,0.7027777777777828,0.6916666666666629,0.7194444444444343,0.9768339768339975,0.03475940669955287,1.0071111727843582,58.333333333333336,0.9545454545298347,0.9613899613899696,0.0,0.9975163880550117,0
403,290.35277777777776,0.6916666666666629,0.6750000000000114,0.7125000000000057,0.9707602339181156,0.033460315197051595,0.9694715899817242,61.111111111111114,0.9999999999836364,0.94736842105264,0.0,0.9987118822768981,0
404,291.02777777777777,0.6750000000000114,0.7138888888889028,0.7125000000000057,0.94736842105264,0.03537744139127732,1.0250179698877748,61.111111111111114,0.9999999999836364,1.001949317738803,0.0,0.9983760798676005,0
405,291.7416666666667,0.7138888888889028,0.7361111111110858,0.7083333333333428,1.0078431372549082,0.03641817850974978,1.0551720513139833,63.888888888888886,1.045454545437438,1.0392156862744601,0.0,0.9985843063779387,0
406,292.47777777777776,0.7361111111110858,0.73888888888888,0.7180555555555657,1.0251450676982097,0.03487155591233219,1.0103605586609725,61.111111111111114,0.9999999999836364,1.0290135396518107,0.0,0.9990759942897476,0
407,293.21666666666664,0.73888888888888,0.7194444444444912,0.7236111111110972,1.0211132437620036,0.037198301336930306,1.0777751533228486,66.66666666666667,1.0909090908912398,0.9942418426104483,0.0,0.9979089541965196,0
408,293.93611111111113,0.7194444444444912,0.7305555555555543,0.7222222222222285,0.9961538461539021,0.03657088690191864,1.0595965896629986,63.888888888888886,1.045454545437438,1.0115384615384508,0.0,0.9983881041172619,0
409,294.6666666666667,0.7305555555555543,0.7138888888888459,0.7222222222222285,1.0115384615384508,0.03733836984784984,1.0818334666169056,66.66666666666667,1.0909090908912398,0.9884615384614703,0.0,0.9981851532236494,0
410,295.38055555555553,0.7138888888888459,0.6972222222222513,0.716666666666697,0.9961240310076499,0.035223020853643754,1.0205438242240592,58.333333333333336,0.9545454545298347,0.972868217054263,0.0,0.9962659574241807,0
411,296.0777777777778,0.6972222222222513,0.7027777777777828,0.7138888888888744,0.9766536964981151,0.03592714034926745,1.0409448229277292,61.111111111111114,0.9999999999836364,0.9844357976653968,0.0,0.9988559786999839,0
412,296.78055555555557,0.7027777777777828,0.6888888888888687,0.7138888888888744,0.9844357976653968,0.0364661471115166,1.056561882711273,63.888888888888886,1.045454545437438,0.9649805447470731,0.0,0.9989510406020493,0
413,297.46944444444443,0.6888888888888687,0.7083333333333712,0.7138888888888744,0.9649805447470731,0.03596491078066891,1.0420391748478894,63.888888888888886,1.045454545437438,0.9922178988327581,0.0,0.9978467964327254,0
414,298.1777777777778,0.7083333333333712,0.7194444444444343,0.7138888888888744,0.9922178988327581,0.03597370991200798,1.0422941188853116,61.111111111111114,0.9999999999836364,1.0077821011673216,0.0,0.9998374813953249,0
415,298.89722222222224,0.7194444444444343,0.7583333333333258,0.7166666666666401,1.0038759689922712,0.038292435978055706,1.109476362469838,66.66666666666667,1.0909090908912398,1.0581395348837495,0.0,0.9982805769209158,0
416,299.65555555555557,0.7583333333333258,0.41944444444442297,0.7166666666666401,1.0581395348837495,0.03735134853118712,1.0822095080467835,66.66666666666667,1.0909090908912398,0.5852713178294491,0.0,0.9990210801699508,0
417,300.075,0.41944444444442297,1.0194444444444457,0.7111111111111086,0.5898437499999719,0.0388042454158447,1.124305413137737,69.44444444444444,1.1363636363450413,1.4335937500000069,0.0,0.9810845875407652,0
418,301.09444444444443,1.0194444444444457,0.6972222222222513,0.7111111111111086,1.4335937500000069,0.035837153418630856,1.03833756199166,61.111111111111114,0.9999999999836364,0.9804687500000443,0.0,0.9961603407636972,0
419,301.7916666666667,0.6972222222222513,0.6944444444444002,0.705555555555577,0.9881889763779639,0.03574193598253466,1.035578753575704,61.111111111111114,0.9999999999836364,0.9842519685038444,0.0,0.999048254599785,0
420,302.4861111111111,0.6944444444444002,0.6777777777778056,0.700000000000017,0.9920634920634047,0.03536025606165622,1.0245200460417498,61.111111111111114,0.9999999999836364,0.9682539682539844,0.0,0.9994886878216067,0
421,303.1638888888889,0.6777777777778056,0.7138888888889028,0.700000000000017,0.9682539682539844,0.03548149585176352,1.0280328202458233,61.111111111111114,0.9999999999836364,1.0198412698412649,0.0,0.9995822322751654,0
422,303.8777777777778,0.7138888888889028,0.7361111111110858,0.7027777777778113,1.0158102766798134,0.03758727885678997,1.089045299835955,69.44444444444444,1.1363636363450413,1.04743083003944,0.0,0.9987373360283336,0
423,304.6138888888889,0.7361111111110858,0.7361111111111427,0.711111111111137,1.0351562499999267,0.035194023557183346,1.0197036631275755,63.888888888888886,1.045454545437438,1.0351562500000067,0.0,0.9997450838570934,0
424,305.35,0.7361111111111427,0.7222222222221717,0.7166666666666686,1.0271317829457778,0.03631425594061574,1.052161022346084,66.66666666666667,1.0909090908912398,1.0077519379844229,0.0,0.9994017450141173,0
425,306.0722222222222,0.7222222222221717,0.7388888888889369,0.7180555555555372,1.005802707930323,0.03641486263001433,1.0550759777659493,63.888888888888886,1.045454545437438,1.0290135396519307,0.0,0.9988291934323522,0
426,306.81111111111113,0.7388888888889369,0.7305555555555543,0.7180555555555372,1.0290135396519307,0.037377664628823026,1.08297198469612,66.66666666666667,1.0909090908912398,1.0174081237911268,0.0,0.9985724113853078,0
427,307.5416666666667,0.7305555555555543,0.6888888888888687,0.726388888888863,1.0057361376673382,0.03542627272076304,1.026432797762487,61.111111111111114,0.9999999999836364,0.9483747609942699,0.0,0.9992550987411708,0
428,308.23055555555555,0.6888888888888687,0.6750000000000114,0.7180555555555372,0.9593810444874238,0.03590611959588491,1.0403357723827964,61.111111111111114,0.9999999999836364,0.9400386847195756,0.0,0.998554102440385,0
429,308.90555555555557,0.6750000000000114,0.6944444444444571,0.7180555555555372,0.9400386847195756,0.03770264783856321,1.0923879745697582,63.888888888888886,1.045454545437438,0.9671179883946264,0.0,0.9992926007747982,0
430,309.6,0.6944444444444571,0.7055555555555202,0.7180555555555372,0.9671179883946264,0.03609166773074729,1.0457118019947058,61.111111111111114,0.9999999999836364,0.9825918762088733,0.0,0.998775655195769,0
431,310.30555555555554,0.7055555555555202,0.73888888888888,0.7180555555555372,0.9825918762088733,0.03447711737632605,0.9989321859035746,61.111111111111114,0.9999999999836364,1.0290135396518514,0.0,0.9988020409190903,0
432,311.0444444444444,0.73888888888888,0.75,0.726388888888863,1.017208413001936,0.03710787624582858,1.0751551972247553,66.66666666666667,1.0909090908912398,1.0325047801147595,0.0,0.9990716779087789,0
433,311.7944444444444,0.75,0.7250000000000227,0.726388888888863,1.0325047801147595,0.036946281294464915,1.0704731817234383,63.888888888888886,1.045454545437438,0.9980879541109655,0.0,0.9985663323678488,0
434,312.51944444444445,0.7250000000000227,0.7083333333333144,0.7236111111110972,1.0019193857965958,0.037294163355424806,1.0805526377231423,63.888888888888886,1.045454545437438,0.9788867562379965,0.0,0.9984911711984865,0
435,313.22777777777776,0.7083333333333144,0.6972222222222513,0.7166666666666686,0.9883720930232268,0.03635397230237108,1.053311755211345,63.888888888888886,1.045454545437438,0.9728682170543015,0.0,0.9994431004451241,0
436,313.925,0.6972222222222513,0.7111111111111086,0.7069444444444173,0.9862475442044012,0.03560139372331458,1.0315067140057443,61.111111111111114,0.9999999999836364,1.005893909626754,0.0,0.9998022089299013,0
437,314.6361111111111,0.7111111111111086,0.6916666666666629,0.7069444444444173,1.005893909626754,0.035688924053198554,1.0340427979483044,63.888888888888886,1.045454545437438,0.9783889980353957,0.0,0.9997571342309519,0
438,315.3277777777778,0.6916666666666629,0.7083333333333144,0.7069444444444173,0.9783889980353957,0.03495182035492042,1.0126861224315693,63.888888888888886,1.045454545437438,1.0019646365422514,0.0,0.9996854973773752,0
439,316.0361111111111,0.7083333333333144,0.7222222222222285,0.7083333333333144,1.0,0.036234502491527674,1.0498502639853633,63.888888888888886,1.045454545437438,1.019607843137291,0.0,0.9996892167110272,0
440,316.7583333333333,0.7222222222222285,0.7527777777777942,0.7097222222222115,1.017612524461864,0.03706860906901141,1.074017478942102,63.888888888888886,1.045454545437438,1.0606653620352642,0.0,0.9996196937494329,0
441,317.5111111111111,0.7527777777777942,0.7277777777777601,0.7166666666666686,1.0503875968992449,0.035864506092351034,1.0391300721615608,63.888888888888886,1.045454545437438,1.015503875968965,0.0,0.9978285028199587,0
442,318.2388888888889,0.7277777777777601,0.73888888888888,0.7166666666666686,1.015503875968965,0.03832579285812918,1.1104428371539892,69.44444444444444,1.1363636363450413,1.0310077519379695,0.0,0.9967331117483091,0
443,318.97777777777776,0.73888888888888,0.7111111111111086,0.7166666666666686,1.0310077519379695,0.037047500686636925,1.0734058894546143,66.66666666666667,1.0909090908912398,0.9922480620154978,0.0,0.9994351031806012,0
444,319.68888888888887,0.7111111111111086,0.6888888888889255,0.7111111111111086,1.0,0.03475137657132114,1.0068785096687023,58.333333333333336,0.9545454545298347,0.968750000000055,0.0,0.9982601987908815,0
445,320.3777777777778,0.6888888888889255,0.6805555555555429,0.7111111111111086,0.968750000000055,0.035534407232320334,1.0295658625956772,61.111111111111114,0.9999999999836364,0.9570312499999857,0.0,0.9993742753956292,0
446,321.05833333333334,0.6805555555555429,0.7111111111111086,0.7111111111111086,0.9570312499999857,0.03637407784392034,1.053894288616019,63.888888888888886,1.045454545437438,1.0,0.0,0.9979488051288117,0
447,321.76944444444445,0.7111111111111086,0.7416666666666742,0.7111111111111086,1.0,0.03535508742013487,1.0243702909935908,61.111111111111114,0.9999999999836364,1.0429687500000144,0.0,0.9999173187370458,0
448,322.5111111111111,0.7416666666666742,0.75,0.7166666666666686,1.0348837209302404,0.03705416315392093,1.0735989262719006,66.66666666666667,1.0909090908912398,1.046511627906974,0.0,0.9989266457189053,0
449,323.2611111111111,0.75,0.7333333333333485,0.7249999999999943,1.0344827586206977,0.03714518450172636,1.0762361581766071,66.66666666666667,1.0909090908912398,1.011494252873592,0.0,0.9991547500594014,0
450,323.99444444444447,0.7333333333333485,0.7277777777777601,0.7305555555555543,1.0038022813688439,0.03677503569726047,1.065511550596491,66.66666666666667,1.0909090908912398,0.9961977186311562,0.0,0.9989988254694266,0
451,324.72222222222223,0.7277777777777601,0.7138888888889028,0.7277777777777601,1.0,0.037965495175983084,1.1000036537595754,66.66666666666667,1.0909090908912398,0.980916030534394,0.0,0.9984713932923167,0
452,325.43611111111113,0.7138888888889028,0.7083333333333144,0.7208333333333314,0.9903660886320065,0.03553697729397072,1.0296403269795265,63.888888888888886,1.045454545437438,0.9826589595375486,0.0,0.9995158735634718,0
453,326.14444444444445,0.7083333333333144,0.705555555555577,0.7125000000000057,0.9941520467835913,0.03534922899187119,1.0242005502206741,61.111111111111114,0.9999999999836364,0.9902534113060651,0.0,0.9994047278253961,0
454,326.85,0.705555555555577,0.6944444444444002,0.7125000000000057,0.9902534113060651,0.03538335193731353,1.0251892207092224,61.111111111111114,0.9999999999836364,0.9746588693956417,0.0,0.9984980644941612,0
455,327.5444444444444,0.6944444444444002,0.7111111111111086,0.7125000000000057,0.9746588693956417,0.03772700674219317,1.093093743923492,63.888888888888886,1.045454545437438,0.9980506822611971,0.0,0.9969372125764056,0
456,328.25555555555553,0.7111111111111086,0.47500000000002274,0.7125000000000057,0.9980506822611971,0.03564777406452046,1.032850527501462,61.111111111111114,0.9999999999836364,0.6666666666666933,0.0,0.9996469233905632,0
457,328.73055555555555,0.47500000000002274,1.0305555555555657,0.7125000000000057,0.6666666666666933,0.03837503342469463,1.1118695221711108,66.66666666666667,1.0909090908912398,1.4463937621832386,0.0,0.9874825124728817,0
458,329.7611111111111,1.0305555555555657,0.7416666666666742,0.7125000000000057,1.4463937621832386,0.036197084898700674,1.0487661351301014,63.888888888888886,1.045454545437438,1.0409356725146222,0.0,0.9976514958093856,0
459,330.5027777777778,0.7416666666666742,0.7111111111111086,0.7125000000000057,1.0409356725146222,0.0374697644401946,1.0856404637597985,69.44444444444444,1.1363636363450413,0.9980506822611971,0.0,0.9965779471024797,0
460,331.2138888888889,0.7111111111111086,0.6916666666666629,0.7111111111111086,1.0,0.035533032687525286,1.029526036846275,61.111111111111114,0.9999999999836364,0.9726562499999981,0.0,0.9992995336926246,0
461,331.90555555555557,0.6916666666666629,0.6972222222221944,0.7097222222222115,0.9745596868884634,0.03416711316399737,0.989950194106504,58.333333333333336,0.9545454545298347,0.9823874755381362,0.0,0.9979223794258303,0
462,332.60277777777776,0.6972222222221944,0.49722222222226264,0.7069444444444457,0.9862475442042812,0.03424932825260409,0.992332275452799,58.333333333333336,0.9545454545298347,0.7033398821218634,0.0,0.9995938975524014,0
463,333.1,0.49722222222226264,0.908333333333303,0.7013888888888857,0.7089108910891697,0.037398865784456475,1.0835862621749892,66.66666666666667,1.0909090908912398,1.2950495049504576,0.0,0.27212930465808893,0
464,334.0083333333333,0.908333333333303,0.7333333333333485,0.7041666666666515,1.2899408284023515,0.03768138866206464,1.0917720160074915,66.66666666666667,1.0909090908912398,1.0414201183432392,0.0,0.9988642837863551,0
465,334.7416666666667,0.7333333333333485,0.7472222222222058,0.7111111111111086,1.031250000000025,0.0363441011704617,1.053025751272328,63.888888888888886,1.045454545437438,1.0507812499999807,0.0,0.9989182219889011,0
466,335.4888888888889,0.7472222222222058,0.716666666666697,0.7222222222222285,1.0346153846153527,0.03543481500181475,1.0266802998778886,63.888888888888886,1.045454545437438,0.9923076923077256,0.0,0.9993280043454225,0
467,336.2055555555556,0.716666666666697,0.7416666666666174,0.7250000000000227,0.9885057471264476,0.03624884714961967,1.050265882858237,63.888888888888886,1.045454545437438,1.0229885057470265,0.0,0.9993131130354254,0
468,336.9472222222222,0.7416666666666174,0.716666666666697,0.7250000000000227,1.0229885057470265,0.03709919841197702,1.0749037676332491,69.44444444444444,1.1363636363450413,0.9885057471264476,0.0,0.9984669925020109,0
469,337.6638888888889,0.716666666666697,0.7027777777777828,0.716666666666697,1.0,0.033956575527633245,0.9838501243410253,58.333333333333336,0.9545454545298347,0.9806201550387252,0.0,0.9990018877370608,0
470,338.3666666666667,0.7027777777777828,0.6750000000000114,0.716666666666697,0.9806201550387252,0.03444178790508554,0.9979085578099647,58.333333333333336,0.9545454545298347,0.9418604651162551,0.0,0.9990659186887421,0
471,339.0416666666667,0.6750000000000114,0.7083333333333144,0.716666666666697,0.9418604651162551,0.035087010600075,1.0166030939588304,61.111111111111114,0.9999999999836364,0.9883720930231875,0.0,0.9994388257128953,0
472,339.75,0.7083333333333144,0.7166666666666401,0.716666666666697,0.9883720930231875,0.03680111824210245,1.0662672603401024,66.66666666666667,1.0909090908912398,0.9999999999999207,0.0,0.9992753352054613,0
473,340.46666666666664,0.7166666666666401,0.75,0.716666666666697,0.9999999999999207,0.03626508553636272,1.0507363701959027,63.888888888888886,1.045454545437438,1.0465116279069324,0.0,0.9986771510257648,0
474,341.21666666666664,0.75,0.76111111111112,0.716666666666697,1.0465116279069324,0.03814686837826819,1.1052587198210844,69.44444444444444,1.1363636363450413,1.0620155038759365,0.0,0.9980665530767883,0
475,341.97777777777776,0.76111111111112,0.7361111111111427,0.716666666666697,1.0620155038759365,0.036864738864396944,1.0681105898332122,63.888888888888886,1.045454545437438,1.0271317829457371,0.0,0.9990964088771891,0
476,342.7138888888889,0.7361111111111427,0.6972222222221944,0.716666666666697,1.0271317829457371,0.03805259654023028,1.1025273089489844,63.888888888888886,1.045454545437438,0.9728682170541836,0.0,0.9981138612178846,0
477,343.4111111111111,0.6972222222221944,0.6972222222222513,0.7166666666666686,0.9728682170542222,0.034229904895473,0.9917695075048651,55.55555555555556,0.9090909090760331,0.9728682170543015,0.0,0.9934839521326075,0
478,344.10833333333335,0.6972222222222513,0.7249999999999659,0.7124999999999773,0.9785575048733663,0.0355820243105013,1.0309455090282504,61.111111111111114,0.9999999999836364,1.0175438596491073,0.0,0.9986287312035669,0
479,344.8333333333333,0.7249999999999659,0.6972222222222513,0.7124999999999773,1.0175438596491073,0.035771544773933066,1.0364366319879486,63.888888888888886,1.045454545437438,0.9785575048733663,0.0,0.9993436242687044,0
480,345.53055555555557,0.6972222222222513,0.7027777777777828,0.7124999999999773,0.9785575048733663,0.03836899894678507,1.1116946805756496,66.66666666666667,1.0909090908912398,0.9863547758284986,0.0,0.996683260499691,0
481,346.23333333333335,0.7027777777777828,0.7416666666666742,0.7124999999999773,0.9863547758284986,0.03676676643330728,1.0652719588166326,63.888888888888886,1.045454545437438,1.0409356725146637,0.0,0.9993378513839517,0
482,346.975,0.7416666666666742,0.7527777777777374,0.720833333333303,1.0289017341041,0.035220120765045125,1.0204597977141998,61.111111111111114,0.9999999999836364,1.0443159922928587,0.0,0.9998946372812819,0
483,347.72777777777776,0.7527777777777374,0.73888888888888,0.7305555555555543,1.0304182509505169,0.03673748957570435,1.0644236977789578,61.111111111111114,0.9999999999836364,1.0114068441064534,0.0,0.9981795464644119,0
484,348.46666666666664,0.73888888888888,0.7388888888889369,0.7305555555555543,1.0114068441064534,0.035675701843748846,1.0336597006480313,63.888888888888886,1.045454545437438,1.0114068441065314,0.0,0.99967581969611,0
485,349.2055555555556,0.7388888888889369,0.7083333333333144,0.7305555555555543,1.0114068441065314,0.03752284532446529,1.0871784172718466,66.66666666666667,1.0909090908912398,0.9695817490494054,0.0,0.9974479036201742,0
486,349.9138888888889,0.7083333333333144,0.3944444444444457,0.7166666666666401,0.988372093023266,0.035985007113496274,1.042621441441142,63.888888888888886,1.045454545437438,0.550387596899247,0.0,0.998823973063756,0
487,350.30833333333334,0.3944444444444457,0.9861111111110858,0.7166666666666401,0.550387596899247,0.03755962892687012,1.088244177032287,69.44444444444444,1.1363636363450413,1.3759689922480778,0.0,0.9812147880684878,0
488,351.2944444444444,0.9861111111110858,0.7444444444444684,0.731944444444423,1.3472485768501,0.03575238002422663,1.035881356872933,61.111111111111114,0.9999999999836364,1.0170777988615427,0.0,0.9983991545034898,0
489,352.0388888888889,0.7444444444444684,0.73888888888888,0.7388888888889085,1.007518796992487,0.037408628130968825,1.0838691141905648,66.66666666666667,1.0909090908912398,0.9999999999999616,0.0,0.998527922773496,0
490,352.77777777777777,0.73888888888888,0.7472222222222058,0.7388888888889085,0.9999999999999616,0.03708787792806243,1.074575770497675,66.66666666666667,1.0909090908912398,1.0112781954886727,0.0,0.9994602884638133,0
491,353.525,0.7472222222222058,0.7416666666666742,0.7402777777778056,1.0093808630393395,0.03514447940174793,1.0182681819953325,61.111111111111114,0.9999999999836364,1.0018761726078524,0.0,0.9997134070041913,0
492,354.26666666666665,0.7416666666666742,0.7277777777778169,0.7402777777778056,1.0018761726078524,0.03575423050474814,1.0359349722762206,63.888888888888886,1.045454545437438,0.9831144465290966,0.0,0.9997348309876722,0
493,354.99444444444447,0.7277777777778169,0.702777777777726,0.7388888888889085,0.9849624060150645,0.035635224569392505,1.0324869212735015,63.888888888888886,1.045454545437438,0.9511278195487769,0.0,0.9995354720069753,0
494,355.6972222222222,0.702777777777726,0.716666666666697,0.7388888888889085,0.9511278195487769,0.03599087726961682,1.042791522014326,63.888888888888886,1.045454545437438,0.9699248120300905,0.0,0.9981861916464579,0
495,356.4138888888889,0.716666666666697,0.7111111111111086,0.7333333333333485,0.9772727272727484,0.037265658373826296,1.0797267408459024,66.66666666666667,1.0909090908912398,0.9696969696969462,0.0,0.9993404144027367,0
496,357.125,0.7111111111111086,0.705555555555577,0.7333333333333485,0.9696969696969462,0.034447640557892005,0.9980781312460927,58.333333333333336,0.9545454545298347,0.9621212121212215,0.0,0.9993147003383123,0
497,357.8305555555556,0.705555555555577,0.7222222222222285,0.7333333333333485,0.9621212121212215,0.03658194373605546,1.059916947869658,63.888888888888886,1.045454545437438,0.9848484848484731,0.0,0.9991707242528469,0
498,358.5527777777778,0.7222222222222285,0.7555555555555316,0.7250000000000227,0.9961685823754564,0.03709765557017708,1.0748590656845654,66.66666666666667,1.0909090908912398,1.042145593869666,0.0,0.9990077943274837,0
499,359.30833333333334,0.7555555555555316,0.76111111111112,0.7250000000000227,1.042145593869666,0.03878784427636263,1.1238302102390927,69.44444444444444,1.1363636363450413,1.0498084291187533,0.0,0.9978888127391584,0
500,360.06944444444446,0.76111111111112,0.73888888888888,0.7250000000000227,1.0498084291187533,0.036801242089071214,1.0662708486541101,63.888888888888886,1.045454545437438,1.0191570881225611,0.0,0.9987868585035458,0
501,360.80833333333334,0.73888888888888,0.6999999999999886,0.7250000000000227,1.0191570881225611,0.036780175256257555,1.0656604630141824,66.66666666666667,1.0909090908912398,0.9655172413792644,0.0,0.9994182101117514,0
502,361.5083333333333,0.6999999999999886,0.6916666666666629,0.7194444444444628,0.9729729729729324,0.035334615537270374,1.0237771432986666,63.888888888888886,1.045454545437438,0.9613899613899316,0.0,0.9982236851552938,0
503,362.2,0.6916666666666629,0.6999999999999886,0.7138888888889028,0.9688715953307151,0.03545816522273869,1.0273568438874783,63.888888888888886,1.045454545437438,0.980544747081677,0.0,0.9995046928847033,0
504,362.9,0.6999999999999886,0.7111111111111086,0.7138888888889028,0.980544747081677,0.03492621397438659,1.0119442089647173,61.111111111111114,0.9999999999836364,0.9961089494163194,0.0,0.9990758107135287,0
505,363.6111111111111,0.7111111111111086,0.7250000000000227,0.7111111111111086,1.0,0.03408360413609586,0.9875306224563051,61.111111111111114,0.9999999999836364,1.0195312500000355,0.0,0.9992783096965988,0
506,364.3361111111111,0.7250000000000227,0.7305555555555543,0.7166666666666686,1.0116279069767733,0.03600519269796455,1.043206293991213,63.888888888888886,1.045454545437438,1.019379844961236,0.0,0.9985245058780784,0
507,365.06666666666666,0.7305555555555543,0.7416666666666742,0.7236111111111256,1.0095969289827036,0.037714585544313915,1.0927338549509416,69.44444444444444,1.1363636363450413,1.0249520153550762,0.0,0.9984688599650855,0
508,365.80833333333334,0.7416666666666742,0.7277777777777601,0.7277777777777885,1.0190839694656442,0.03650384554293417,1.0576541485202167,63.888888888888886,1.045454545437438,0.9999999999999609,0.0,0.9987425349266781,0
509,366.5361111111111,0.7277777777777601,0.73888888888888,0.7263888888888914,1.0019120458890736,0.03626151412036823,1.0506328927982072,63.888888888888886,1.045454545437438,1.0172084130018963,0.0,0.9982612737493113,0
510,367.275,0.73888888888888,0.6944444444444571,0.7263888888888914,1.0172084130018963,0.03647769357524745,1.0568964273348338,63.888888888888886,1.045454545437438,0.9560229445506833,0.0,0.9994431609078085,0
511,367.96944444444443,0.6944444444444571,0.6916666666666629,0.7180555555555657,0.9671179883945881,0.03531797904356412,1.023295121300065,63.888888888888886,1.045454545437438,0.963249516440987,0.0,0.9993285019071628,0
512,368.6611111111111,0.6916666666666629,0.6833333333333371,0.7180555555555657,0.963249516440987,0.03466427867845189,1.0043549550582112,58.333333333333336,0.9545454545298347,0.9516441005802627,0.0,0.9979179565186667,0
513,369.34444444444443,0.6833333333333371,0.716666666666697,0.7180555555555657,0.9516441005802627,0.03463019981813366,1.0033675618820588,61.111111111111114,0.9999999999836364,0.998065764023239,0.0,0.99913763493759,0
514,370.06111111111113,0.716666666666697,0.7305555555555543,0.7208333333333599,0.9942196531791962,0.03703943471783509,1.0731721879024023,66.66666666666667,1.0909090908912398,1.0134874759151826,0.0,0.9981376608818282,0
515,370.7916666666667,0.7305555555555543,0.7555555555555316,0.7263888888888914,1.0057361376672989,0.03898835351886956,1.129639719593516,69.44444444444444,1.1363636363450413,1.0401529636710916,0.0,0.9971548989847168,0
516,371.5472222222222,0.7555555555555316,0.7472222222222058,0.7291666666666572,1.0361904761904568,0.03873430925579627,1.122279098684927,69.44444444444444,1.1363636363450413,1.0247619047618957,0.0,0.9968051473436185,0
517,372.2944444444444,0.7472222222222058,0.7277777777778169,0.7291666666666572,1.0247619047618957,0.035564486358886184,1.0304373683924795,61.111111111111114,0.9999999999836364,0.9980952380953048,0.0,0.9981571549561429,0
518,373.02222222222224,0.7277777777778169,0.6861111111110745,0.7277777777777885,1.000000000000039,0.03502046430341345,1.014674996639605,63.888888888888886,1.045454545437438,0.9427480916029892,0.0,0.9982858892670885,0
519,373.7083333333333,0.6861111111110745,0.705555555555577,0.722222222222257,0.9499999999999036,0.035343215852288105,1.0240263268770484,63.888888888888886,1.045454545437438,0.9769230769230597,0.0,0.9980395896751655,0
520,374.4138888888889,0.705555555555577,0.7166666666666401,0.711111111111137,0.9921874999999941,0.03712042088649863,1.0755186628007527,66.66666666666667,1.0909090908912398,1.007812499999926,0.0,0.9990527702385517,0
521,375.13055555555553,0.7166666666666401,0.7111111111111086,0.7166666666666686,0.9999999999999604,0.03545711565643851,1.0273264339913424,61.111111111111114,0.9999999999836364,0.9922480620154978,0.0,0.9998510460718826,0
522,375.84166666666664,0.7111111111111086,0.7083333333333712,0.7166666666666686,0.9922480620154978,0.03673401616259177,1.064323059894554,61.111111111111114,0.9999999999836364,0.9883720930233061,0.0,0.9997191664121358,0
523,376.55,0.7083333333333712,0.7472222222222058,0.7166666666666686,0.9883720930233061,0.038278306024623225,1.1090669644011144,69.44444444444444,1.1363636363450413,1.042635658914703,0.0,0.9973696212098847,0
524,377.2972222222222,0.7472222222222058,0.7444444444444684,0.7222222222222285,1.0346153846153527,0.03796787823699694,1.1000727000293586,69.44444444444444,1.1363636363450413,1.030769230769255,0.0,0.9972465182604204,0
525,378.0416666666667,0.7444444444444684,0.7472222222222058,0.7222222222222285,1.030769230769255,0.036930912389848886,1.0700278865638848,66.66666666666667,1.0909090908912398,1.0346153846153527,0.0,0.9992678226519529,0
526,378.7888888888889,0.7472222222222058,0.7277777777777601,0.7222222222222285,1.0346153846153527,0.03635336668116532,1.0532942080797707,63.888888888888886,1.045454545437438,1.0076923076922744,0.0,0.9994897815091095,0
527,379.51666666666665,0.7277777777777601,0.6999999999999886,0.7222222222222001,1.007692307692314,0.03658190480791834,1.0599158199746348,63.888888888888886,1.045454545437438,0.9692307692307831,0.0,0.9993848342381964,0
528,380.21666666666664,0.6999999999999886,0.6861111111111313,0.7138888888888744,0.9805447470817161,0.03712223112219257,1.075571112159526,63.888888888888886,1.045454545437438,0.961089494163472,0.0,0.9991372391777221,0
529,380.90277777777777,0.6861111111111313,0.705555555555577,0.7138888888888744,0.961089494163472,0.03550971716736442,1.0288504982487308,61.111111111111114,0.9999999999836364,0.9883268482490775,0.0,0.9982003797335205,0
530,381.60833333333335,0.705555555555577,0.7527777777777374,0.7138888888888744,0.9883268482490775,0.03648638123178843,1.0571481415267172,63.888888888888886,1.045454545437438,1.0544747081711712,0.0,0.9980739832257093,0
531,382.3611111111111,0.7527777777777374,0.7416666666666742,0.7194444444444343,1.046332046332005,0.03747266677081816,1.0857245552295802,66.66666666666667,1.0909090908912398,1.030888030888056,0.0,0.9985020420005779,0
532,383.10277777777776,0.7416666666666742,0.7416666666666742,0.7347222222222172,1.009451795841227,0.038187327986556274,1.1064309873429559,69.44444444444444,1.1363636363450413,1.009451795841227,0.0,0.9981582408644771,0
533,383.84444444444443,0.7416666666666742,0.7305555555555543,0.7416666666666742,1.0,0.036566588675989296,1.059472053838955,66.66666666666667,1.0909090908912398,0.9850187265917485,0.0,0.9994979311586178,0
534,384.575,0.7305555555555543,0.7361111111111427,0.7361111111111143,0.9924528301886733,0.03761367860809981,1.0898102002478833,63.888888888888886,1.045454545437438,1.0000000000000386,0.0,0.9974997921472318,0
535,385.31111111111113,0.7361111111111427,0.6944444444444002,0.7333333333333485,1.003787878787901,0.03494720627121963,1.0125524350160333,61.111111111111114,0.9999999999836364,0.9469696969696171,0.0,0.9998270970876659,0
536,386.00555555555553,0.6944444444444002,0.7138888888889028,0.7291666666666572,0.9523809523809041,0.035529467670002715,1.029422744836455,61.111111111111114,0.9999999999836364,0.9790476190476508,0.0,0.999926874014511,0
537,386.71944444444443,0.7138888888889028,0.705555555555577,0.7222222222222285,0.988461538461549,0.036205245709575354,1.0490025846150397,61.111111111111114,0.9999999999836364,0.9769230769230981,0.0,0.9993123773391419,0
538,387.425,0.705555555555577,0.7111111111111086,0.7222222222222285,0.9769230769230981,0.034730299934167236,1.0062678399600422,58.333333333333336,0.9545454545298347,0.9846153846153725,0.0,0.9992367452762442,0
539,388.1361111111111,0.7111111111111086,0.7361111111110858,0.7222222222222285,0.9846153846153725,0.035154321323972865,1.0185533396195716,63.888888888888886,1.045454545437438,1.0192307692307254,0.0,0.9984581892559821,0
540,388.8722222222222,0.7361111111110858,0.7750000000000341,0.7333333333333201,1.0037878787878625,0.037946108159225035,1.099441938729375,66.66666666666667,1.0909090908912398,1.0568181818182474,0.0,0.9986409484390923,0
541,389.64722222222224,0.7750000000000341,0.7527777777777374,0.7333333333333201,1.0568181818182474,0.03612507360691545,1.046679696280601,63.888888888888886,1.045454545437438,1.026515151515115,0.0,0.9976899183059728,0
542,390.4,0.7527777777777374,0.7305555555555543,0.7333333333333201,1.026515151515115,0.03778715557919419,1.0948364826962595,63.888888888888886,1.045454545437438,0.9962121212121375,0.0,0.9983372669401567,0
543,391.13055555555553,0.7305555555555543,0.7027777777777828,0.7305555555555543,1.0,0.036132273602803244,1.0468883073298423,61.111111111111114,0.9999999999836364,0.9619771863117956,0.0,0.9993301879617101,0
544,391.8333333333333,0.7027777777777828,0.6916666666666629,0.7222222222222285,0.9730769230769216,0.035717982580317206,1.0348847331280044,61.111111111111114,0.9999999999836364,0.9576923076922941,0.0,0.9998504814418021,0
545,392.525,0.6916666666666629,0.6944444444444571,0.7125000000000057,0.9707602339181156,0.034380826621036864,0.996142279380549,61.111111111111114,0.9999999999836364,0.9746588693957214,0.0,0.9991631014358759,0
546,393.21944444444443,0.6944444444444571,0.7333333333333485,0.7125000000000057,0.9746588693957214,0.03666214258513247,1.062240611148725,63.888888888888886,1.045454545437438,1.0292397660818844,0.0,0.9996315016272328,0
547,393.9527777777778,0.7333333333333485,0.75,0.7208333333333314,1.0173410404624514,0.036674483678463585,1.0625981791902503,63.888888888888886,1.045454545437438,1.0404624277456676,0.0,0.999436477780604,0
548,394.7027777777778,0.75,0.7416666666666742,0.7319444444444514,1.0246679316887948,0.03490566341573442,1.0113487817353501,63.888888888888886,1.045454545437438,1.0132827324478186,0.0,0.9995071379241127,0
549,395.44444444444446,0.7416666666666742,0.7305555555555543,0.7347222222222172,1.009451795841227,0.03804521998743782,1.1023135823799974,66.66666666666667,1.0909090908912398,0.9943289224952793,0.0,0.9989454231322821,0
550,396.175,0.7305555555555543,0.75,0.7319444444444514,0.9981024667931577,0.03583710238730974,1.0383360834217263,63.888888888888886,1.045454545437438,1.0246679316887948,0.0,0.9978542210914025,0
551,396.925,0.75,0.7277777777777601,0.7319444444444514,1.0246679316887948,0.037627528960186875,1.090211497210586,63.888888888888886,1.045454545437438,0.9943074003794731,0.0,0.9978130382948136,0
552,397.65277777777777,0.7277777777777601,0.7027777777777828,0.7305555555555543,0.9961977186311562,0.035234234953455366,1.0208687390107416,61.111111111111114,0.9999999999836364,0.9619771863117956,0.0,0.9998097057559965,0
553,398.35555555555555,0.7027777777777828,0.6888888888888687,0.7291666666666572,0.9638095238095432,0.03682818446140067,1.0670514708444956,63.888888888888886,1.045454545437438,0.9447619047618894,0.0,0.9987626014917711,0
554,399.0444444444444,0.6888888888888687,0.7083333333333712,0.7291666666666572,0.9447619047618894,0.035949867493661636,1.041603314059143,63.888888888888886,1.045454545437438,0.971428571428636,0.0,0.9982816858524761,0
555,399.7527777777778,0.7083333333333712,0.7333333333332916,0.7291666666666572,0.971428571428636,0.03675042160439747,1.0647983874477482,66.66666666666667,1.0909090908912398,1.0057142857142416,0.0,0.9994844372986063,0
556,400.4861111111111,0.7333333333332916,0.7583333333333826,0.731944444444423,1.0018975332068036,0.03663382349423408,1.0614201002265051,63.888888888888886,1.045454545437438,1.036053130929889,0.0,0.999691290003839,0
