beat_index,peak_time_s,rr_prev_s,rr_next_s,rr_baseline_s,prematurity_index,aa_ratio,morph_index,qrs_width_ms,width_index,pause_index,pvc_score,morphology_score,is_pvc_candidate
0,0.14166666666666666,,0.6805555555555556,0.8583333333333485,,0.03484891053968007,0.8653362705207319,58.333333333333336,0.7241379310254934,0.7928802588996624,0.7028560638427734,0.35239322093029,1
1,0.8222222222222222,0.6805555555555556,1.5000000000000002,0.8583333333333485,0.7928802588996624,0.03855229924907377,0.9572954314943981,227.77777777777777,2.8275862068614503,1.74757281553395,0.9935868978500366,0.4764093574254957,1
2,2.3222222222222224,1.5000000000000002,0.6749999999999998,0.8583333333333485,1.74757281553395,0.03223476097483532,0.80042409966677,52.77777777777778,0.6551724137849703,0.7864077669902771,7.727047659500386e-07,0.3473373199659642,0
3,2.9972222222222222,0.6749999999999998,1.4166666666666665,0.8583333333333485,0.7864077669902771,0.04470522918321266,1.1100793595865157,227.77777777777777,2.8275862068614503,1.6504854368931745,0.9937717318534851,0.7679289996238061,1
4,4.413888888888889,1.4166666666666665,0.6500000000000004,0.8583333333333485,1.6504854368931745,0.03159920478954108,0.7846425498113537,52.77777777777778,0.6551724137849703,0.7572815533980453,1.7694910638965666e-06,0.3725263982060892,0
5,5.063888888888889,0.6500000000000004,1.4444444444444446,0.6805555555555556,0.955102040816327,0.04654105008971732,1.1556647851271478,230.55555555555554,2.8620689654817117,2.122448979591837,0.9948122501373291,0.6859072695107808,1
6,6.508333333333334,1.4444444444444446,0.6999999999999993,1.0486111111111112,1.3774834437086094,0.03175039121242323,0.7883966727754345,50.0,0.6206896551647086,0.6675496688741714,8.570092191462209e-09,0.346804952516308,0
7,7.208333333333333,0.6999999999999993,1.436111111111111,0.6999999999999993,1.0,0.0436570007800683,1.084050710685196,227.77777777777777,2.8275862068614503,2.051587301587303,0.9936042428016663,0.7352153666198106,1
8,8.644444444444444,1.436111111111111,0.6861111111111118,1.058333333333333,1.3569553805774281,0.03211446263559749,0.7974369613426788,52.77777777777778,0.6551724137849703,0.6482939632545941,4.005606513146631e-08,0.3371922935144174,0
9,9.330555555555556,0.6861111111111118,1.386111111111111,0.6999999999999993,0.9801587301587321,0.04327716743422537,1.0746190364715391,225.0,2.793103448241189,1.980158730158732,0.9939287900924683,0.7313843900853636,1
10,10.716666666666667,1.386111111111111,0.6527777777777768,1.0430555555555552,1.3288948069241016,0.028188978753263993,0.699962936183128,50.0,0.6206896551647086,0.6258322237017303,2.124947551251921e-09,0.3188452334999433,0
11,11.369444444444444,0.6527777777777768,1.5138888888888893,1.0430555555555552,0.6258322237017303,0.04308991257605342,1.0699692951138313,227.77777777777777,2.8275862068614503,1.451398135818909,0.9904049634933472,0.7474325781559961,1
12,12.883333333333333,1.5138888888888893,0.7027777777777775,1.0430555555555552,1.451398135818909,0.03329019251941627,0.8266316103875915,55.55555555555556,0.6896551724052319,0.673768308921438,6.880121361518832e-08,0.29902487471005945,0
13,13.58611111111111,0.7027777777777775,1.43888888888889,1.0444444444444443,0.6728723404255318,0.04387831629612839,1.0895462151445892,227.77777777777777,2.8275862068614503,1.3776595744680864,0.988440990447998,0.736462224646285,1
14,15.025,1.43888888888889,0.6666666666666661,1.0444444444444443,1.3776595744680864,0.03215209087726365,0.798371311421502,52.77777777777778,0.6551724137849703,0.638297872340425,7.495786036315621e-08,0.2872608297012479,0
15,15.691666666666666,0.6666666666666661,1.4222222222222207,1.0444444444444443,0.638297872340425,0.047636707959045475,1.1828711591494165,230.55555555555554,2.8620689654817117,1.3617021276595733,0.9870579838752747,0.7211901270197101,1
16,17.113888888888887,1.4222222222222207,0.68888888888889,1.0444444444444443,1.3617021276595733,0.033269377476535994,0.8261147502821303,55.55555555555556,0.6896551724052319,0.6595744680851076,4.0054237615549937e-07,0.3328318742951399,0
17,17.802777777777777,0.68888888888889,1.4750000000000014,1.0444444444444443,0.6595744680851076,0.05117013263365039,1.2706099286758574,230.55555555555554,2.8620689654817117,1.412234042553193,0.9878178834915161,0.7133806135354045,1
18,19.27777777777778,1.4750000000000014,0.7027777777777757,1.0444444444444443,1.412234042553193,0.03328749284098122,0.826564574442065,52.77777777777778,0.6551724137849703,0.67287234042553,4.9932221912740715e-08,0.34208667355081956,0
19,19.980555555555554,0.7027777777777757,1.4111111111111114,1.0444444444444443,0.67287234042553,0.044863282165695295,1.1140039866778124,227.77777777777777,2.8275862068614503,1.3510638297872346,0.98723304271698,0.7157970663351177,1
20,21.391666666666666,1.4111111111111114,0.658333333333335,1.0569444444444445,1.3350854139290411,0.03246879362279699,0.8062353843132914,52.77777777777778,0.6551724137849703,0.6228646517739832,1.1246005726661679e-07,0.33259900403286335,0
21,22.05,0.658333333333335,1.3888888888888893,1.0569444444444445,0.6228646517739832,0.04984941224950706,1.237815008148457,230.55555555555554,2.8620689654817117,1.3140604467805523,0.9835600852966309,0.7002562299652153,1
22,23.43888888888889,1.3888888888888893,0.7861111111111114,1.0458333333333334,1.3280212483399738,0.033572373845138344,0.8336384789590753,52.77777777777778,0.6551724137849703,0.7516600265604252,2.3774575197421655e-07,0.3155667749069181,0
23,24.225,0.7861111111111114,1.375,1.0875000000000004,0.7228607918263091,0.034674348353795695,0.8610017019913906,152.77777777777777,1.8965517241143874,1.2643678160919536,0.8951274156570435,0.7704485699943593,1
24,25.6,1.375,0.6388888888888857,1.0805555555555557,1.2724935732647813,0.03362802950117971,0.8350204693021417,55.55555555555556,0.6896551724052319,0.5912596401028247,8.644272497804195e-07,0.3398652417988678,0
25,26.238888888888887,0.6388888888888857,1.3972222222222257,1.0805555555555557,0.5912596401028247,0.04352375796716952,1.0807421470313554,222.22222222222223,2.7586206896209275,1.2930591259640134,0.9755374789237976,0.4280641561207822,1
26,27.636111111111113,1.3972222222222257,0.6888888888888864,1.0805555555555557,1.2930591259640134,0.03394222101977236,0.8428221857035377,58.333333333333336,0.7241379310254934,0.6375321336760902,1.1157600283695501e-06,0.2889678333421893,0
27,28.325,0.6888888888888864,1.3694444444444436,1.0805555555555557,0.6375321336760902,0.046183032038651164,1.1467748083591243,227.77777777777777,2.8275862068614503,1.2673521850899734,0.9822065830230713,0.7447943750335424,1
28,29.694444444444443,1.3694444444444436,0.6972222222222229,1.0777777777777775,1.2706185567010304,0.03219821957423555,0.7995167370311832,52.77777777777778,0.6551724137849703,0.6469072164948461,1.2928849457694014e-07,0.3445482542382332,0
29,30.391666666666666,0.6972222222222229,1.4166666666666679,1.0777777777777775,0.6469072164948461,0.043824549732068944,1.0882111330056816,225.0,2.793103448241189,1.314432989690723,0.9848707318305969,0.7199500844321264,1
30,31.808333333333334,1.4166666666666679,0.7666666666666693,1.0777777777777775,1.314432989690723,0.033982054008337856,0.843811282040702,52.77777777777778,0.6551724137849703,0.7113402061855696,1.3650743824200617e-07,0.3077721756674868,0
31,32.575,0.7666666666666693,1.30833333333333,1.0777777777777775,0.7113402061855696,0.03459650002114348,0.8590686434021751,161.11111111111111,1.9999999999751723,1.2139175257731931,0.9098427295684814,0.7584648458859808,1
32,33.88333333333333,1.30833333333333,0.6694444444444443,1.0472222222222207,1.2493368700265237,0.033709278975035374,0.8370379819187262,52.77777777777778,0.6551724137849703,0.639257294429709,2.2430338049161946e-06,0.3277260246598577,0
33,34.55277777777778,0.6694444444444443,1.3833333333333329,1.0374999999999996,0.6452476572958501,0.04553286965078147,1.130630570641523,222.22222222222223,2.7586206896209275,1.3333333333333333,0.9863390922546387,0.7350434893246693,1
34,35.93611111111111,1.3833333333333329,0.7361111111111143,1.0374999999999996,1.3333333333333333,0.03461933032605748,0.859635544651115,58.333333333333336,0.7241379310254934,0.7095046854083031,2.08044684768538e-06,0.32216103585339373,0
35,36.672222222222224,0.7361111111111143,0.3999999999999986,1.0374999999999996,0.7095046854083031,0.04452483149746958,1.1055998892623649,225.0,2.793103448241189,0.38554216867469754,0.7571070194244385,0.7346808456118731,1
36,37.07222222222222,0.3999999999999986,1.0305555555555515,0.7513888888888918,0.5323475046210682,0.05025541744858489,1.2478965578824723,130.55555555555554,1.6206896551522947,1.371534195933446,0.9815040826797485,0.30493383233943533,1
37,38.102777777777774,1.0305555555555515,0.7972222222222243,0.8986111111111104,1.1468315301390999,0.042097245054063905,1.0453202831922854,83.33333333333333,1.0344827586078478,0.8871715610510077,7.461073892045533e-07,0.9985472862650857,0
38,38.9,0.7972222222222243,0.3361111111111157,0.7819444444444468,1.0195381882770866,0.04613944467338161,1.145692486773741,227.77777777777777,2.8275862068614503,0.4298401420959193,0.1497979462146759,0.775582529573628,0
39,39.236111111111114,0.3361111111111157,0.38333333333333286,0.7819444444444468,0.4298401420959193,0.045511987229173864,1.1301120374491354,133.33333333333334,1.6551724137725565,0.4902309058614544,0.9781246185302734,0.18542379443212198,1
40,39.61944444444445,0.38333333333333286,0.7194444444444414,0.7513888888888918,0.5101663585951915,0.045305615361520564,1.124987599998152,130.55555555555554,1.6206896551522947,0.9574861367837262,0.9817294478416443,0.2703584371037292,1
41,40.33888888888889,0.7194444444444414,0.68888888888889,0.7277777777777779,0.9885496183206065,0.0400666541460923,0.9948985071296818,80.55555555555556,0.9999999999875862,0.9465648854961847,8.432758477283642e-06,0.9996349768086876,0
42,41.02777777777778,0.68888888888889,0.34166666666666856,0.7041666666666657,0.9783037475345197,0.036968393696165544,0.9179653375894521,208.33333333333334,2.5862068965196197,0.48520710059171934,0.11547975242137909,0.7856248153847398,0
43,41.36944444444445,0.34166666666666856,0.34444444444444144,0.7041666666666657,0.48520710059171934,0.03442780148510324,0.854879675662333,147.22222222222223,1.8275862068738644,0.4891518737672548,0.03275837376713753,0.9441562865777272,0
44,41.71388888888889,0.34444444444444144,0.34444444444444144,0.5444444444444443,0.6326530612244845,0.038098796110926966,0.9460344563833809,127.77777777777777,1.586206896532033,0.6326530612244845,0.03786500170826912,0.9556541490690296,0
45,42.05833333333333,0.34444444444444144,0.24166666666666714,0.3916666666666657,0.8794326241134697,0.0356869743443719,0.8861463043490407,161.11111111111111,1.9999999999751723,0.6170212765957473,0.09184436500072479,0.8946659731323745,0
46,42.3,0.24166666666666714,0.375,0.36388888888888715,0.6641221374045846,0.03441320584853562,0.8545172501655899,200.0,2.4827586206588346,1.030534351145043,0.1415732502937317,0.35435409872133244,0
47,42.675,0.375,0.36666666666666714,0.3597222222222207,1.0424710424710468,0.042473651896852385,1.0546668736162872,202.77777777777777,2.517241379279096,1.0193050193050248,0.41271400451660156,0.39471194447222296,0
48,43.041666666666664,0.36666666666666714,0.3972222222222257,0.3555555555555543,1.031250000000005,0.037456987205428185,0.9300976446991552,63.888888888888886,0.7931034482660165,1.1171875000000138,0.7637499570846558,0.27344866598088186,1
49,43.43888888888889,0.3972222222222257,0.40833333333333144,0.37083333333333357,1.0711610486891472,0.04222369773167095,1.0484602404174401,122.22222222222223,1.51724137929151,1.1011235955056122,0.21421268582344055,0.9699522139523651,0
50,43.84722222222222,0.40833333333333144,0.3527777777777814,0.37083333333333357,1.1011235955056122,0.0447233327335574,1.1105288903895136,166.66666666666666,2.0689655172156955,0.9513108614232302,0.5044415593147278,0.9242522768727071,1
51,44.2,0.3527777777777814,0.3583333333333272,0.3597222222222243,0.9806949806949852,0.032817412041223085,0.8148919580013607,183.33333333333334,2.2758620689372653,0.9961389961389734,0.1980317234992981,0.8931152821538412,0
52,44.55833333333333,0.3583333333333272,0.32777777777778283,0.3555555555555543,1.0078124999999862,0.03239672527847273,0.8044458491073301,183.33333333333334,2.2758620689372653,0.9218750000000175,0.1608787328004837,0.8433250437832086,0
53,44.88611111111111,0.32777777777778283,0.32222222222222285,0.3555555555555543,0.9218750000000175,0.03571171998201122,0.886760765388277,158.33333333333334,1.965517241354911,0.906250000000005,0.1218600794672966,0.8935002495895968,0
54,45.208333333333336,0.32222222222222285,0.32222222222222285,0.3555555555555543,0.906250000000005,0.03864290885911904,0.9595453664512066,177.77777777777777,2.2068965516967416,0.906250000000005,0.22107703983783722,0.916558053789587,0
55,45.53055555555556,0.32222222222222285,0.29999999999999716,0.3555555555555543,0.906250000000005,0.04070335721348614,1.010708535312352,166.66666666666666,2.0689655172156955,0.843749999999995,0.16924762725830078,0.9400408970663343,0
56,45.830555555555556,0.29999999999999716,0.31666666666667,0.3555555555555543,0.843749999999995,0.04328843191148786,1.0748987456674002,130.55555555555554,1.6206896551522947,0.8906250000000125,0.07568874210119247,0.9597626374812523,0
57,46.147222222222226,0.31666666666667,0.30833333333333,0.3402777777777821,0.930612244897957,0.04303854797414392,1.068693856301977,158.33333333333334,1.965517241354911,0.9061224489795705,0.17120791971683502,0.9474131546394493,0
58,46.455555555555556,0.30833333333333,0.2888888888888914,0.32500000000000284,0.9487179487179302,0.03864581085108345,0.9596174260612395,163.88888888888889,2.0344827585954337,0.8888888888888888,0.1185624897480011,0.9257480422904958,0
59,46.74444444444445,0.2888888888888914,0.3333333333333286,0.32222222222222285,0.8965517241379372,0.03841652120112089,0.9539239152026523,152.77777777777777,1.8965517241143874,1.0344827586206728,0.15370887517929077,0.9166080599227082,0
60,47.077777777777776,0.3333333333333286,0.3555555555555543,0.32222222222222285,1.0344827586206728,0.0345885238290457,0.858870585895758,166.66666666666666,2.0689655172156955,1.103448275862063,0.18881797790527344,0.8713548550976427,0
61,47.43333333333333,0.3555555555555543,0.44166666666667,0.32222222222222285,1.103448275862063,0.041284054442012316,1.0251278777323225,180.55555555555554,2.2413793103170034,1.3706896551724215,0.44914132356643677,0.848180752859659,0
62,47.875,0.44166666666667,0.43333333333333,0.32222222222222285,1.3706896551724215,0.038153187258429304,0.9473850476070412,208.33333333333334,2.5862068965196197,1.3448275862068837,0.5404340624809265,0.8743413574882537,1
63,48.30833333333333,0.43333333333333,0.4222222222222243,0.32222222222222285,1.3448275862068837,0.034457561016394224,0.8556186371225618,86.11111111111111,1.0689655172281094,1.3103448275862106,0.2728922367095947,0.8217332472892053,0
64,48.730555555555554,0.4222222222222243,0.3527777777777814,0.3277777777777757,1.2881355932203533,0.03913228032287878,0.9716969910153932,130.55555555555554,1.6206896551522947,1.0762711864406957,0.15214724838733673,0.17033044248822282,0
65,49.083333333333336,0.3527777777777814,0.3555555555555543,0.343055555555555,1.028340080971672,0.04725410291633438,1.173370660694377,138.88888888888889,1.7241379310130795,1.0364372469635608,0.4128850996494293,0.13340100982252295,0
66,49.43888888888889,0.3555555555555543,0.34722222222222143,0.35416666666666785,1.003921568627444,0.04568995815324575,1.1345312486472054,158.33333333333334,1.965517241354911,0.9803921568627396,0.44094812870025635,0.136990602215598,0
67,49.78611111111111,0.34722222222222143,0.43055555555555713,0.35416666666666785,0.9803921568627396,0.04332901764323968,1.0759065334348394,175.0,2.17241379307648,1.2156862745098043,0.49516943097114563,0.13517946105980772,0
68,50.21666666666667,0.43055555555555713,0.46944444444444144,0.3555555555555543,1.2109375000000087,0.04293317617318436,1.066077360123235,200.0,2.4827586206588346,1.3203124999999962,0.2936069369316101,0.16381516251709521,0
69,50.68611111111111,0.46944444444444144,1.6083333333333343,0.3888888888888893,1.2071428571428482,0.04622554993961904,1.147830573985198,105.55555555555556,1.3103448275699405,4.135714285714284,0.4418254792690277,0.31580874046208274,0
70,52.294444444444444,1.6083333333333343,0.6777777777777771,0.4263888888888907,3.771986970684025,0.03144096538021389,0.7807132935391762,50.0,0.6206896551647086,1.5895765472312622,0.00017105470760725439,0.42720761838708854,0
71,52.97222222222222,0.6777777777777771,1.4166666666666643,0.4319444444444436,1.5691318327974293,0.03465965316547098,0.8606368045164745,197.22222222222223,2.448275862038573,3.279742765273313,0.8893536925315857,0.9485024779276587,1
72,54.388888888888886,1.4166666666666643,0.7000000000000028,0.4319444444444436,3.279742765273313,0.03597301720695005,0.8932490590716198,61.111111111111114,0.758620689645755,1.620578778135058,0.7159982323646545,0.287230413060626,1
73,55.08888888888889,0.7000000000000028,0.375,0.4499999999999993,1.5555555555555642,0.042286471084062346,1.0500189708857746,172.22222222222223,2.137931034456219,0.8333333333333347,0.28465956449508667,0.9253343602935968,0
74,55.46388888888889,0.375,0.32222222222222285,0.4499999999999993,0.8333333333333347,0.04729476400526946,1.1743803196624623,158.33333333333334,1.965517241354911,0.7160493827160519,0.18699803948402405,0.9310707305881694,0
75,55.78611111111111,0.32222222222222285,0.30555555555555713,0.4499999999999993,0.7160493827160519,0.04102758465865247,1.0187594546626495,150.0,1.8620689654941258,0.6790123456790169,0.13481372594833374,0.9147559660029629,0
76,56.09166666666667,0.30555555555555713,0.3166666666666629,0.4499999999999993,0.6790123456790169,0.03773388307362952,0.9369732696240469,175.0,2.17241379307648,0.7037037037036964,0.11193789541721344,0.8759003932981839,0
77,56.40833333333333,0.3166666666666629,0.2749999999999986,0.4499999999999993,0.7037037037036964,0.03383073983788854,0.840053986965883,169.44444444444446,2.1034482758359574,0.6111111111111089,0.10300424695014954,0.8578866388179467,0
78,56.68333333333333,0.2749999999999986,0.23333333333333428,0.4222222222222207,0.6513157894736832,0.03521926232242118,0.8745325072321491,102.77777777777777,1.2758620689496787,0.5526315789473726,0.11546985805034637,0.8333309012405475,0
79,56.916666666666664,0.23333333333333428,0.3305555555555557,0.3486111111111114,0.6693227091633487,0.03528291353190718,0.8761130358448881,166.66666666666666,2.0689655172156955,0.9482071713147406,0.23703370988368988,0.21142982612600625,0
80,57.24722222222222,0.3305555555555557,0.30555555555555713,0.3263888888888893,1.0127659574468078,0.03588976657805809,0.8911818556036133,155.55555555555554,1.9310344827346488,0.9361702127659611,0.09264159202575684,0.2396453837215144,0
81,57.55277777777778,0.30555555555555713,0.2944444444444443,0.31944444444444287,0.9565217391304445,0.040030749649431534,0.9940069595101378,138.88888888888889,1.7241379310130795,0.9217391304347867,0.14509491622447968,0.2165006117220376,0
82,57.84722222222222,0.2944444444444443,0.31666666666667,0.31111111111111,0.9464285714285743,0.04015240330189721,0.9970277517326095,144.44444444444446,1.7931034482536028,1.0178571428571572,0.1293688267469406,0.22952723718878532,0
83,58.16388888888889,0.31666666666667,0.30277777777777715,0.31111111111111,1.0178571428571572,0.034210460269425196,0.849482857394768,52.77777777777778,0.6551724137849703,0.9732142857142871,0.6994802951812744,0.2840975419559052,1
84,58.46666666666667,0.30277777777777715,0.375,0.30555555555555713,0.9909090909090837,0.04125681869112615,1.0244515844786257,147.22222222222223,1.8275862068738644,1.2272727272727209,0.1429114043712616,0.3203665969999627,0
85,58.84166666666667,0.375,0.34166666666666146,0.30555555555555713,1.2272727272727209,0.042894762763565165,1.0651235134719885,80.55555555555556,0.9999999999875862,1.1181818181817953,0.18479837477207184,0.9496100636144805,0
86,59.18333333333333,0.34166666666666146,0.34444444444444855,0.31111111111111,1.098214285714273,0.03940708934412028,0.9785207972653994,188.88888888888889,2.344827586177788,1.1071428571428743,0.34838414192199707,0.876741238794549,0
87,59.52777777777778,0.34444444444444855,0.48611111111110716,0.31111111111111356,1.1071428571428616,0.036288574961935466,0.9010847006054363,186.11111111111111,2.3103448275575267,1.5624999999999751,0.39600908756256104,0.8668307334993487,0
88,60.013888888888886,0.48611111111110716,1.4250000000000043,0.32361111111111285,1.5021459227467608,0.04989097675357807,1.2388470998948518,122.22222222222223,1.51724137929151,4.40343347639484,0.0010208095191046596,0.9704365737547103,0
89,61.43888888888889,1.4250000000000043,0.7361111111111072,0.3361111111111086,4.239669421487648,0.03477785276740199,0.8635718289154596,55.55555555555556,0.6896551724052319,2.190082644628104,0.0012000947026535869,0.368447363954693,0
90,62.175,0.7361111111111072,0.7833333333333385,0.343055555555555,2.145748987854243,0.02960007974626018,0.7350021053191922,194.44444444444446,2.4137931034183113,2.283400809716618,0.3181951344013214,0.8764487537365293,0
91,62.958333333333336,0.7833333333333385,0.5999999999999943,0.3597222222222243,2.1776061776061795,0.04854761401637808,1.205489945167115,97.22222222222223,1.2068965517091557,1.6679536679536426,0.8275797963142395,0.3061455366934085,1
92,63.55833333333333,0.5999999999999943,0.81388888888889,0.4305555555555536,1.3935483870967673,0.040875662574767116,1.01498706443744,80.55555555555556,0.9999999999875862,1.8903225806451724,0.0019835340790450573,0.9916702805731088,0
93,64.37222222222222,0.81388888888889,0.9111111111111114,0.5430555555555507,1.4987212276214987,0.040835017972538835,1.0139778148521776,80.55555555555556,0.9999999999875862,1.6777493606138263,0.0008607751806266606,0.9987158076288019,0
94,65.28333333333333,0.9111111111111114,0.6666666666666714,0.6680555555555507,1.3638253638253741,0.03954843692118737,0.9820306110097088,77.77777777777777,0.9655172413673244,0.9979209979210122,2.0177223632344976e-05,0.9973436392924258,0
95,65.95,0.6666666666666714,1.2111111111111086,0.7013888888888893,0.9504950495049567,0.03884909820933539,0.9646652717961426,116.66666666666667,1.4482758620509868,1.726732673267322,0.9729746580123901,0.22672810050193148,1
96,67.16111111111111,1.2111111111111086,0.99444444444444,0.7597222222222229,1.5941499085923172,0.0336685430073777,0.8360264636306922,55.55555555555556,0.6896551724052319,1.3089579524680004,0.3667748272418976,0.3149033507873644,0
97,68.15555555555555,0.99444444444444,0.9166666666666714,0.7986111111111143,1.2452173913043374,0.03989135368545959,0.9905456064370833,80.55555555555556,0.9999999999875862,1.147826086956523,3.3080818866437767e-06,0.9977020673228345,0
98,69.07222222222222,0.9166666666666714,0.8861111111111057,0.8625000000000007,1.0628019323671545,0.04070797028072381,1.0108230827784646,80.55555555555556,0.9999999999875862,1.0273752012882378,3.1374643185699824e-06,0.9990746664050875,0
99,69.95833333333333,0.8861111111111057,0.8638888888888943,0.8499999999999979,1.0424836601307153,0.03855303939614732,0.9573138101495223,72.22222222222223,0.8965517241268014,1.0163398692810546,3.1382887755171396e-07,0.9975037602673678,0
100,70.82222222222222,0.8638888888888943,0.7138888888888886,0.875,0.9873015873015935,0.03974718816563549,0.9869658201157799,80.55555555555556,0.9999999999875862,0.8158730158730155,4.297472969483351e-06,0.9977916236865849,0
101,71.53611111111111,0.7138888888888886,1.1388888888888857,0.875,0.8158730158730155,0.04308051904571741,1.0697360435607095,125.0,1.5517241379117717,1.301587301587298,0.9691054821014404,0.23834859061594849,1
102,72.675,1.1388888888888857,0.6555555555555515,0.8986111111111086,1.267387944358578,0.04073832796872221,1.0115768971189232,83.33333333333333,1.0344827586078478,0.7295208655332278,1.43636825100657e-07,0.9994250233276778,0
103,73.33055555555555,0.6555555555555515,1.1444444444444457,0.8986111111111086,0.7295208655332278,0.030913051775623663,0.7676046257880534,208.33333333333334,2.5862068965196197,1.2735703245749663,0.9677969217300415,0.2677820846030734,1
104,74.475,1.1444444444444457,0.6722222222222314,0.9013888888888886,1.2696456086286614,0.031981512359207064,0.7941356616878332,50.0,0.6206896551647086,0.7457627118644172,9.580522601027042e-05,0.32671665661519955,0
105,75.14722222222223,0.6722222222222314,1.12777777777778,0.9013888888888886,0.7457627118644172,0.04329116847557308,1.0749666975236525,102.77777777777777,1.2758620689496787,1.2511556240369828,0.9601568579673767,0.249706414250492,1
106,76.275,1.12777777777778,0.9055555555555515,0.9013888888888886,1.2511556240369828,0.03195003617709679,0.7933540739246656,52.77777777777778,0.6551724137849703,1.0046224961479158,0.00016322826559189707,0.33360925884399667,0
107,77.18055555555556,0.9055555555555515,0.7000000000000028,0.8958333333333286,1.0108527131782954,0.04053169445881195,1.0064459628067368,80.55555555555556,0.9999999999875862,0.7813953488372166,1.772301402525045e-06,0.9995667711422105,0
108,77.88055555555556,0.7000000000000028,0.3999999999999915,0.875,0.8000000000000033,0.04333697298321446,1.0761040731604117,122.22222222222223,1.51724137929151,0.4571428571428474,0.9062556028366089,0.24802929844489818,1
109,78.28055555555555,0.3999999999999915,1.4916666666666742,0.7888888888888914,0.5070422535211143,0.0351821969910307,0.8736121348264025,180.55555555555554,2.2413793103170034,1.8908450704225388,0.9821684956550598,0.16370247330943377,1
110,79.77222222222223,1.4916666666666742,0.6833333333333229,0.80972222222222,1.8421955403087622,0.03183412971558722,0.7904759906911095,50.0,0.6206896551647086,0.8439108061749465,1.0783904826894286e-06,0.3916591558133456,0
111,80.45555555555555,0.6833333333333229,0.26388888888889994,0.8027777777777771,0.8512110726643476,0.03568510019227341,0.8860997671184018,211.11111111111111,2.620689655139881,0.32871972318340503,0.7729806900024414,0.29067281956009805,1
112,80.71944444444445,0.26388888888889994,1.1027777777777743,0.6916666666666629,0.38152610441768875,0.040206108875167595,0.9983613194040308,33.333333333333336,0.41379310344313913,1.5943775100401643,0.8261117339134216,0.5807235777413932,1
113,81.82222222222222,1.1027777777777743,1.0861111111111086,0.8027777777777771,1.3737024221453256,0.030757837627218825,0.7637504900279194,47.22222222222222,0.586206896544447,1.352941176470586,0.02075282670557499,0.38136914370541414,0
114,82.90833333333333,1.0861111111111086,0.6638888888888914,0.8027777777777771,1.352941176470586,0.039455788558660554,0.9797300516161082,77.77777777777777,0.9655172413673244,0.8269896193771664,2.720763916386204e-07,0.9977796515363018,0
115,83.57222222222222,0.6638888888888914,1.3361111111111086,0.8027777777777771,0.8269896193771664,0.04081840872813745,1.0135653892875363,108.33333333333333,1.344827586190202,1.6643598615916937,0.9860659241676331,0.30127730306846834,1
116,84.90833333333333,1.3361111111111086,0.7277777777777743,0.8027777777777771,1.6643598615916937,0.033511276869458526,0.8321213747438755,55.55555555555556,0.6896551724052319,0.9065743944636642,0.0011178826680406928,0.31131743980287274,0
117,85.6361111111111,0.7277777777777743,1.2027777777777828,0.7138888888888886,1.0194552529182834,0.04380397703422713,1.0877002905905444,116.66666666666667,1.4482758620509868,1.6848249027237432,0.961944043636322,0.2635572263307923,1
118,86.83888888888889,1.2027777777777828,0.9805555555555543,0.9069444444444414,1.326186830015324,0.030905272797897787,0.767411465328529,50.0,0.6206896551647086,1.081163859111794,9.522842447040603e-06,0.34519623691689544,0
119,87.81944444444444,0.9805555555555543,0.9138888888888914,1.0333333333333314,0.9489247311827962,0.038979549898010855,0.9679045288062872,75.0,0.9310344827470629,0.8844086021505417,3.1464114726986736e-06,0.9982144460552997,0
120,88.73333333333333,0.9138888888888914,0.9444444444444429,0.9472222222222229,0.9648093841642249,0.036901661460767086,0.9163083037594429,69.44444444444444,0.8620689655065398,0.9970674486803496,4.796900725523301e-07,0.9961939812644909,0
121,89.67777777777778,0.9444444444444429,0.9805555555555543,0.9624999999999986,0.981240981240981,0.040019851955764345,0.9937363579490215,80.55555555555556,0.9999999999875862,1.018759018759019,2.555466562625952e-05,0.9992527093345949,0
122,90.65833333333333,0.9805555555555543,0.9666666666666686,0.9805555555555543,1.0,0.04050723581801754,1.0058386282106397,80.55555555555556,0.9999999999875862,0.9858356940509947,1.2676243386522401e-05,0.9986501150550142,0
123,91.625,0.9666666666666686,0.9833333333333343,0.9736111111111114,0.9928673323823126,0.040706665174523815,1.010790675575076,77.77777777777777,0.9655172413673244,1.0099857346647654,8.272226295957807e-06,0.9983439571776203,0
124,92.60833333333333,0.9833333333333343,0.7333333333333343,0.9736111111111114,1.0099857346647654,0.04069653931698332,1.0105392395426656,77.77777777777777,0.9655172413673244,0.7532097004279608,5.628054395856452e-07,0.9997093686555335,0
125,93.34166666666667,0.7333333333333343,1.0944444444444485,0.9736111111111114,0.7532097004279608,0.04294348009014838,1.0663332175643807,122.22222222222223,1.51724137929151,1.1241084165477928,0.8757050633430481,0.24122080341905566,1
126,94.43611111111112,1.0944444444444485,0.9722222222222143,0.9736111111111114,1.1241084165477928,0.03019932318603271,0.7498819702927713,47.22222222222222,0.586206896544447,0.9985734664764537,1.1389660130589618e-06,0.41539100063821777,0
127,95.40833333333333,0.9722222222222143,1.00277777777778,0.9763888888888843,0.9957325746799397,0.040274731664592035,1.0000652977423397,77.77777777777777,0.9655172413673244,1.027027027027034,6.349320301524131e-06,0.9993891542393729,0
128,96.41111111111111,1.00277777777778,1.0222222222222257,0.9763888888888843,1.027027027027034,0.04116436796092538,1.022155932510173,80.55555555555556,0.9999999999875862,1.0469416785206345,1.0253739674226381e-05,0.9985269917909709,0
129,97.43333333333334,1.0222222222222257,0.9555555555555486,0.9763888888888843,1.0469416785206345,0.04112854909422844,1.0212665111755657,77.77777777777777,0.9655172413673244,0.978662873399713,6.680612045784073e-07,0.9996780861544072,0
130,98.38888888888889,0.9555555555555486,0.9444444444444429,0.9763888888888843,0.978662873399713,0.0410713097493771,1.0198451961205568,77.77777777777777,0.9655172413673244,0.9672830725462334,7.114144864317495e-06,0.9996059402242674,0
131,99.33333333333333,0.9444444444444429,0.9583333333333428,0.9763888888888843,0.9672830725462334,0.04099656170259769,1.01798912099433,77.77777777777777,0.9655172413673244,0.9815078236131011,1.4037647815712262e-05,0.9990891924766787,0
132,100.29166666666667,0.9583333333333428,0.9277777777777771,0.9694444444444414,0.9885386819484369,0.040586702195752014,1.0078118646153258,77.77777777777777,0.9655172413673244,0.9570200573065926,4.435385562828742e-06,0.9991304161328018,0
133,101.21944444444445,0.9277777777777771,0.9805555555555543,0.9652777777777786,0.9611510791366892,0.041320469596481384,1.0260321055394679,80.55555555555556,0.9999999999875862,1.0158273381294942,5.978476474410854e-05,0.9995296429435376,0
134,102.2,0.9805555555555543,0.9861111111111143,0.9652777777777786,1.0158273381294942,0.04104285505743248,1.0191386352374514,80.55555555555556,0.9999999999875862,1.0215827338129522,1.092018555937102e-05,0.9986279179839371,0
135,103.18611111111112,0.9861111111111143,0.9805555555555543,0.9763888888888843,1.0099573257468073,0.04098008194427607,1.0175799107095815,80.55555555555556,0.9999999999875862,1.0042674253200603,1.1562410691112746e-05,0.9986435426700422,0
136,104.16666666666667,0.9805555555555543,0.9666666666666686,0.9763888888888843,1.0042674253200603,0.04003017629323142,0.9939927224534206,77.77777777777777,0.9655172413673244,0.9900426742532071,3.524686462696991e-06,0.9987497557309638,0
137,105.13333333333334,0.9666666666666686,0.9277777777777771,0.9736111111111114,0.9928673323823126,0.03967880539658244,0.985267801743789,75.0,0.9310344827470629,0.9529243937232516,1.201940790451772e-06,0.9987394743538188,0
138,106.06111111111112,0.9277777777777771,0.9083333333333314,0.9625000000000057,0.9639249639249575,0.04081409563536017,1.01345829051284,80.55555555555556,0.9999999999875862,0.9437229437229362,2.6059517040266655e-05,0.9992311621471875,0
139,106.96944444444445,0.9083333333333314,0.99444444444444,0.9569444444444457,0.9492017416545686,0.04007208027595586,0.995033243823219,75.0,0.9310344827470629,1.0391872278664671,1.4798813936067745e-05,0.9986611619139536,0
140,107.96388888888889,0.99444444444444,1.0166666666666657,0.9625000000000057,1.0331890331890226,0.04189133986617184,1.040207433906265,80.55555555555556,0.9999999999875862,1.0562770562770492,8.924559551815037e-06,0.9989366022513979,0
141,108.98055555555555,1.0166666666666657,0.9500000000000028,0.9736111111111114,1.0442225392296707,0.041931498075012945,1.041204605815837,80.55555555555556,0.9999999999875862,0.97574893009986,2.5065451154659968e-06,0.9992917951107687,0
142,109.93055555555556,0.9500000000000028,0.9666666666666686,0.9736111111111114,0.97574893009986,0.039416185481918935,0.9787466642390561,75.0,0.9310344827470629,0.9928673323823126,2.665197143869591e-06,0.9995249692035681,0
143,110.89722222222223,0.9666666666666686,0.9444444444444429,0.9736111111111114,0.9928673323823126,0.041787750459100347,1.037635196502211,77.77777777777777,0.9655172413673244,0.9700427960057042,4.6990453483886085e-06,0.999821100463903,0
144,111.84166666666667,0.9444444444444429,0.9333333333333371,0.9666666666666686,0.97701149425287,0.04117961243923318,1.0225344694515184,80.55555555555556,0.9999999999875862,0.9655172413793124,2.0940717149642296e-05,0.9995111631801233,0
145,112.775,0.9333333333333371,0.9749999999999943,0.9583333333333357,0.9739130434782625,0.0386966944359094,0.9608809206968574,77.77777777777777,0.9655172413673244,1.0173913043478175,1.0067669791169465e-05,0.9987427650012519,0
146,113.75,0.9749999999999943,0.9749999999999943,0.9583333333333357,1.0173913043478175,0.040075174888686234,0.9951100864159239,77.77777777777777,0.9655172413673244,1.0173913043478175,2.18293985199125e-06,0.9996718627522659,0
147,114.725,0.9749999999999943,0.9805555555555543,0.9583333333333357,1.0173913043478175,0.04088454885453851,1.015207720408519,80.55555555555556,0.9999999999875862,1.0231884057970977,7.722186637693085e-06,0.9996375305907776,0
148,115.70555555555555,0.9805555555555543,0.9611111111111228,0.9708333333333314,1.0100143061516458,0.04020612583055238,0.9983617404246368,77.77777777777777,0.9655172413673244,0.9899856938483688,2.3782517928339075e-06,0.9995472421898273,0
149,116.66666666666667,0.9611111111111228,0.9194444444444372,0.9708333333333314,0.9899856938483688,0.03887426927328785,0.965290296632453,75.0,0.9310344827470629,0.9470672389127268,9.061874948201876e-07,0.9993469066741092,0
150,117.58611111111111,0.9194444444444372,0.9138888888888914,0.9638888888888957,0.9538904899135304,0.04036008348771499,1.0021846761435458,77.77777777777777,0.9655172413673244,0.9481268011527337,1.2621212590602227e-05,0.9993785831124495,0
151,118.5,0.9138888888888914,0.9000000000000057,0.9555555555555628,0.9563953488372047,0.039328764454814105,0.9765759052572552,77.77777777777777,0.9655172413673244,0.9418604651162779,8.373903256142512e-06,0.999429135710464,0
152,119.4,0.9000000000000057,0.9722222222222143,0.9527777777777828,0.94460641399417,0.04277392317399487,1.0621229353147188,83.33333333333333,1.0344827586078478,1.0204081632652924,0.0002904091088566929,0.9992174627707262,0
153,120.37222222222222,0.9722222222222143,0.9750000000000085,0.9527777777777828,1.0204081632652924,0.04207184415820283,1.0446895513802454,86.11111111111111,1.0689655172281094,1.0233236151603533,5.394313848228194e-05,0.9988388175813713,0
154,121.34722222222223,0.9750000000000085,0.9305555555555429,0.9666666666666686,1.0086206896551793,0.041291100102294295,1.0253028291238393,77.77777777777777,0.9655172413673244,0.9626436781609046,2.1880130134377396e-06,0.9997714563926559,0
155,122.27777777777777,0.9305555555555429,0.9277777777777771,0.9666666666666686,0.9626436781609046,0.041153946880693605,1.0218971657779305,80.55555555555556,0.9999999999875862,0.9597701149425262,3.233035022276454e-05,0.9995320969872725,0
156,123.20555555555555,0.9277777777777771,0.9277777777777914,0.9458333333333329,0.9809104258443464,0.04052797480905054,1.0063535998661937,77.77777777777777,0.9655172413673244,0.9809104258443614,6.949639555386966e-06,0.9990468710560849,0
157,124.13333333333334,0.9277777777777914,0.8916666666666657,0.9291666666666671,0.9985052316891023,0.03984554620236764,0.9894081569166573,77.77777777777777,0.9655172413673244,0.9596412556053796,2.0573604615492513e-06,0.9997438369839954,0
158,125.025,0.8916666666666657,0.9361111111111029,0.9277777777777843,0.9610778443113696,0.04149468988090141,1.030358184284381,83.33333333333333,1.0344827586078478,1.0089820359281279,0.00010813697008416057,0.9990037817627562,0
159,125.96111111111111,0.9361111111111029,0.9472222222222229,0.9277777777777843,1.0089820359281279,0.04184492276682019,1.039054846952489,80.55555555555556,0.9999999999875862,1.0209580838323289,1.0976105841109529e-05,0.9988531507512787,0
160,126.90833333333333,0.9472222222222229,0.9388888888888971,0.9291666666666671,1.0194319880418536,0.04325965235989464,1.0741841181666472,86.11111111111111,1.0689655172281094,1.010463378176391,5.160908040124923e-05,0.9981457784432146,0
161,127.84722222222223,0.9388888888888971,0.7361111111111143,0.9333333333333229,1.005952380952401,0.04323019243854275,1.0734525963463752,83.33333333333333,1.0344827586078478,0.7886904761904884,8.690721188031603e-06,0.9973952712307788,0
162,128.58333333333334,0.7361111111111143,1.0833333333333144,0.9333333333333229,0.7886904761904884,0.04289440335849739,1.0651145890540903,130.55555555555554,1.6206896551522947,1.1607142857142785,0.9166602492332458,0.2825834085284368,1
163,129.66666666666666,1.0833333333333144,0.61944444444444,0.9333333333333229,1.1607142857142785,0.04248077663911402,1.0548437886991873,86.11111111111111,1.0689655172281094,0.6636904761904788,7.450763064298371e-07,0.9983815215890358,0
164,130.2861111111111,0.61944444444444,1.125,0.9291666666666671,0.6666666666666615,0.028322602498470108,0.7032809587995886,202.77777777777777,2.517241379279096,1.2107623318385643,0.9324195981025696,0.27261359154445697,1
165,131.4111111111111,1.125,0.7944444444444514,0.9319444444444471,1.207153502235466,0.036256848995858605,0.9002969104352857,55.55555555555556,0.6896551724052319,0.8524590163934477,0.000423505058279261,0.3998741065749924,0
166,132.20555555555555,0.7944444444444514,0.4166666666666856,0.9319444444444471,0.8524590163934477,0.04357635042704512,1.0820480748891128,127.77777777777777,1.586206896532033,0.4470938897168596,0.7932760715484619,0.28469847549897476,1
167,132.62222222222223,0.4166666666666856,0.7638888888888857,0.9138888888888843,0.45592705167175557,0.03975718951702621,0.9872141645253638,183.33333333333334,2.2758620689372653,0.835866261398177,0.9451770782470703,0.2313421339888741,1
168,133.38611111111112,0.7638888888888857,0.63055555555556,0.8652777777777771,0.8828250401284079,0.04168964065353353,1.0351990235505764,86.11111111111111,1.0689655172281094,0.728731942215094,0.0002177567221224308,0.9994156962229936,0
169,134.01666666666668,0.63055555555556,1.1777777777777771,0.7791666666666686,0.8092691622103424,0.03392628940351867,0.8424265863812394,211.11111111111111,2.620689655139881,1.5115864527629188,0.9776460528373718,0.2806238591274516,1
170,135.19444444444446,1.1777777777777771,0.5944444444444343,0.7791666666666686,1.5115864527629188,0.032189157253605015,0.799291709774513,50.0,0.6206896551647086,0.7629233511586304,0.000721102871466428,0.40666360173856386,0
171,135.7888888888889,0.5944444444444343,1.24444444444444,0.75,0.7925925925925791,0.044103620535780465,1.0951407639397672,125.0,1.5517241379117717,1.6592592592592534,0.9127951860427856,0.9675625847082089,1
172,137.03333333333333,1.24444444444444,0.6277777777777658,0.7791666666666686,1.597147950089117,0.03194016800479328,0.7931090364963578,50.0,0.6206896551647086,0.8057040998217295,0.0002403149992460385,0.3913355267784805,0
173,137.6611111111111,0.6277777777777658,1.3000000000000114,0.6972222222222229,0.900398406374484,0.04009005707305195,0.9954796272054866,116.66666666666667,1.4482758620509868,1.8645418326693373,0.9142469763755798,0.9493044122176845,1
174,138.9611111111111,1.3000000000000114,0.6555555555555657,0.7791666666666686,1.668449197860973,0.03290668484486809,0.817108698604403,52.77777777777778,0.6551724137849703,0.8413547237076758,0.0006161133642308414,0.3615477427663717,0
175,139.61666666666667,0.6555555555555657,1.2861111111110972,0.7097222222222257,0.9236790606653718,0.04411637697471288,1.0954575201631311,125.0,1.5517241379117717,1.8121330724070166,0.9184577465057373,0.9356193299124258,1
176,140.90277777777777,1.2861111111110972,0.6138888888889085,0.7097222222222257,1.8121330724070166,0.034712656209377885,0.8619529276213395,52.77777777777778,0.6551724137849703,0.864970645792587,0.02369694970548153,0.35694774502838966,0
177,141.51666666666668,0.6138888888889085,1.2166666666666401,0.7097222222222257,0.864970645792587,0.04937958838995756,1.2261487718119923,125.0,1.5517241379117717,1.7142857142856684,0.9249073266983032,0.9380633678290325,1
178,142.73333333333332,1.2166666666666401,0.6083333333333485,0.9166666666666714,1.3272727272726914,0.031334559413403934,0.7780711178999796,52.77777777777778,0.6551724137849703,0.6636363636363768,2.371991467953194e-05,0.357213965839686,0
179,143.34166666666667,0.6083333333333485,1.3527777777777885,0.9166666666666714,0.6636363636363768,0.04150362231322648,1.0305799862734577,133.33333333333334,1.6551724137725565,1.4757575757575798,0.9237164258956909,0.9556174542982816,1
180,144.69444444444446,1.3527777777777885,0.6416666666666515,0.9361111111111029,1.4451038575667898,0.03509620577600688,0.8714768796303605,55.55555555555556,0.6896551724052319,0.6854599406528088,1.9644956410047598e-05,0.3193549348481777,0
181,145.3361111111111,0.6416666666666515,1.2888888888888914,0.9361111111111029,0.6854599406528088,0.03977798019535417,0.9877304196325478,211.11111111111111,2.620689655139881,1.3768545994065429,0.9832801818847656,0.9438485318074236,1
182,146.625,1.2888888888888914,0.6277777777777658,0.9361111111111029,1.3768545994065429,0.031885029733630915,0.7917398933813592,55.55555555555556,0.6896551724052319,0.6706231454005865,1.2146798326284625e-05,0.33730370047341424,0
183,147.25277777777777,0.6277777777777658,1.2805555555555657,0.9361111111111029,0.6706231454005865,0.03586419625175155,0.8905469166497282,208.33333333333334,2.5862068965196197,1.3679525222552156,0.9836268424987793,0.9530254821782933,1
184,148.53333333333333,1.2805555555555657,0.6055555555555543,0.9361111111111029,1.3679525222552156,0.031399500659685914,0.7796836795264509,50.0,0.6206896551647086,0.646884272997037,1.6548507346669794e-06,0.36519181867210593,0
185,149.13888888888889,0.6055555555555543,1.3055555555555713,0.9291666666666458,0.6517189835575619,0.03323474207313218,0.8252547156255142,208.33333333333334,2.5862068965196197,1.4050822122571487,0.9878827333450317,0.943754734013684,1
186,150.44444444444446,1.3055555555555713,0.663888888888863,0.9291666666666458,1.4050822122571487,0.03238885022956148,0.8042503030960056,50.0,0.6206896551647086,0.7144992526158327,2.771870867945836e-06,0.3404353682330853,0
187,151.10833333333332,0.663888888888863,1.3055555555555713,0.9402777777777516,0.706056129985221,0.033915791511348714,0.8421659123252072,216.66666666666666,2.689655172380404,1.3884785819793761,0.9841547012329102,0.9385953991180624,1
188,152.4138888888889,1.3055555555555713,0.63055555555556,0.9722222222222143,1.34285714285717,0.03227008330082146,0.8013011913566283,52.77777777777778,0.6551724137849703,0.6485714285714383,2.961485961350263e-06,0.3543865366465091,0
189,153.04444444444445,0.63055555555556,1.2861111111110972,0.9722222222222143,0.6485714285714383,0.036545115550356756,0.9074548818416304,219.44444444444446,2.7241379310006657,1.3228571428571394,0.9863091707229614,0.9159723010193868,1
190,154.33055555555555,1.2861111111110972,0.5916666666666686,0.9722222222222143,1.3228571428571394,0.029957101998340344,0.7438673553176445,47.22222222222222,0.586206896544447,0.6085714285714354,1.399195781459639e-07,0.3419322604072158,0
191,154.92222222222222,0.5916666666666686,1.375,0.9722222222222143,0.6085714285714354,0.03301895952977509,0.8198966008833191,216.66666666666666,2.689655172380404,1.4142857142857257,0.9907586574554443,0.8929080780212089,1
192,156.29722222222222,1.375,0.6583333333333314,0.9722222222222143,1.4142857142857257,0.032730034377230675,0.8127222757727036,52.77777777777778,0.6551724137849703,0.6771428571428607,8.759031402405526e-07,0.34969717142395623,0
193,156.95555555555555,0.6583333333333314,1.3083333333333371,0.9722222222222143,0.6771428571428607,0.035759609002514264,0.8879499017417308,213.88888888888889,2.6551724137601425,1.3457142857143005,0.9830543398857117,0.925938482489174,1
194,158.26388888888889,1.3083333333333371,0.6333333333333258,0.9749999999999801,1.341880341880373,0.03173012171730147,0.7878933592129049,52.77777777777778,0.6551724137849703,0.649572649572655,1.685042093413358e-06,0.3534555533330713,0
195,158.8972222222222,0.6333333333333258,1.2888888888888914,0.9749999999999801,0.649572649572655,0.03612759869719713,0.8970874852430674,208.33333333333334,2.5862068965196197,1.3219373219373516,0.9831815361976624,0.924784480487,1
196,160.1861111111111,1.2888888888888914,0.6166666666666742,0.9749999999999801,1.3219373219373516,0.031315492784403855,0.7775976728087323,52.77777777777778,0.6551724137849703,0.6324786324786532,1.9635870103229536e-06,0.3494553110034417,0
197,160.80277777777778,0.6166666666666742,1.3388888888889028,0.9722222222222143,0.6342857142857272,0.033056363161752984,0.8208253736598116,205.55555555555554,2.5517241378993574,1.3771428571428825,0.9875307083129883,0.9044290931180425,1
198,162.14166666666668,1.3388888888889028,0.6527777777777715,0.9722222222222143,1.3771428571428825,0.03424894161953822,0.8504383910822126,55.55555555555556,0.6896551724052319,0.6714285714285704,7.624124918947928e-06,0.365271815745002,0
199,162.79444444444445,0.6527777777777715,1.3444444444444343,0.9722222222222143,0.6714285714285704,0.034488930254896105,0.8563975693598662,202.77777777777777,2.517241379279096,1.3828571428571437,0.9816022515296936,0.9284995279377722,1
200,164.13888888888889,1.3444444444444343,0.6333333333333258,0.9736111111111114,1.3808844507845826,0.03244898425499832,0.8057434962115743,52.77777777777778,0.6551724137849703,0.6504992867332302,1.4464637843047967e-06,0.3477177678747113,0
201,164.7722222222222,0.6333333333333258,1.2972222222222456,0.9736111111111114,0.6504992867332302,0.033802522885964977,0.8393533294255218,197.22222222222223,2.448275862038573,1.3323823109843318,0.9804353713989258,0.9210989996128689,1
202,166.06944444444446,1.2972222222222456,0.6027777777777601,0.9736111111111114,1.3323823109843318,0.03304032092201622,0.8204270274363678,55.55555555555556,0.6896551724052319,0.6191155492153883,1.6218733435380273e-05,0.30402619454492075,0
203,166.67222222222222,0.6027777777777601,1.3583333333333485,0.9708333333333314,0.6208869814019858,0.03349682022845181,0.8317624006577626,194.44444444444446,2.4137931034183113,1.3991416309013058,0.9853864908218384,0.9155065077231759,1
204,168.03055555555557,1.3583333333333485,0.6611111111110972,0.9708333333333314,1.3991416309013058,0.03740107772345973,0.9287093515828398,61.111111111111114,0.758620689645755,0.6809728183118611,7.110003934940323e-05,0.30589535645092997,0
205,168.69166666666666,0.6611111111110972,1.3583333333333485,0.9749999999999943,0.6780626780626677,0.036800164685492874,0.9137880286740665,186.11111111111111,2.3103448275575267,1.3931623931624169,0.9736799597740173,0.9224314635336368,1
206,170.05,1.3583333333333485,0.6166666666666458,0.9791666666666714,1.3872340425532002,0.03344393415382429,0.8304491820270525,55.55555555555556,0.6896551724052319,0.6297872340425289,3.6042547435499728e-06,0.3664975248078292,0
207,170.66666666666666,0.6166666666666458,1.313888888888897,0.9791666666666714,0.6297872340425289,0.03393971996208549,0.8427600817267534,200.0,2.4827586206588346,1.3418439716312076,0.9813505411148071,0.9449079171997304,1
208,171.98055555555555,1.313888888888897,0.6111111111111143,0.9791666666666714,1.3418439716312076,0.036187596376048375,0.8985772927249375,58.333333333333336,0.7241379310254934,0.6241134751773052,4.055542012793012e-05,0.4000442420615196,0
209,172.59166666666667,0.6111111111111143,1.3027777777777771,0.9791666666666714,0.6241134751773052,0.03247098680243031,0.8062898433438633,202.77777777777777,2.517241379279096,1.330496453900702,0.9831356406211853,0.9336862152398571,1
210,173.89444444444445,1.3027777777777771,0.6444444444444457,0.9791666666666714,1.330496453900702,0.03278472296650561,0.8140802527983935,52.77777777777778,0.6551724137849703,0.6581560283687924,4.355367764219409e-06,0.34902155986946337,0
211,174.5388888888889,0.6444444444444457,1.36388888888888,0.9791666666666714,0.6581560283687924,0.036318269066526805,0.9018220374497048,202.77777777777777,2.517241379279096,1.392907801418424,0.9829670190811157,0.9256747560977707,1
212,175.90277777777777,1.36388888888888,0.6138888888889085,0.9819444444444372,1.3889674681753903,0.03336174652913012,0.8284083741069647,52.77777777777778,0.6551724137849703,0.6251768033946498,1.1847325822600396e-06,0.3717806649806792,0
213,176.51666666666668,0.6138888888889085,1.35277777777776,0.9819444444444372,0.6251768033946498,0.03812019417373282,0.9465657935063508,205.55555555555554,2.5517241378993574,1.37765205091937,0.9861663579940796,0.9269202972586958,1
214,177.86944444444444,1.35277777777776,0.6027777777777885,0.9819444444444372,1.37765205091937,0.033028687108753695,0.8201381472267824,52.77777777777778,0.6551724137849703,0.6138613861386293,1.1056496305172914e-06,0.3864034702539099,0
215,178.47222222222223,0.6027777777777885,1.3361111111111086,0.9736111111111114,0.6191155492154173,0.03528815401477605,0.8762431627220632,200.0,2.4827586206588346,1.3723252496433636,0.9839651584625244,0.9440989560058142,1
216,179.80833333333334,1.3361111111111086,0.6527777777777715,0.9736111111111114,1.3723252496433636,0.03569119693955645,0.8862511559702916,55.55555555555556,0.6896551724052319,0.6704707560627607,1.1752243153750896e-05,0.4000981419543734,0
217,180.4611111111111,0.6527777777777715,1.3666666666666742,0.9777777777777743,0.6676136363636322,0.0390221047853961,0.9689612128452457,202.77777777777777,2.517241379279096,1.3977272727272854,0.9784548878669739,0.9583889858403905,1
218,181.82777777777778,1.3666666666666742,0.6111111111111143,0.9777777777777743,1.3977272727272854,0.03219347492009472,0.7993989221194528,52.77777777777778,0.6551724137849703,0.6250000000000054,6.204678584253998e-07,0.35787926013396854,0
219,182.4388888888889,0.6111111111111143,1.3333333333333144,0.9777777777777743,0.6250000000000054,0.043944452728793354,1.0911884545460957,197.22222222222223,2.448275862038573,1.363636363636349,0.9801436066627502,0.9417229691065386,1
220,183.7722222222222,1.3333333333333144,0.6000000000000227,0.9930555555555429,1.3426573426573407,0.03211876752303382,0.797543856369854,52.77777777777778,0.6551724137849703,0.6041958041958347,1.1293418538116384e-06,0.34924280472457503,0
221,184.37222222222223,0.6000000000000227,1.3499999999999943,0.9930555555555429,0.6041958041958347,0.0464705516386598,1.153914232074818,202.77777777777777,2.517241379279096,1.359440559440571,0.9795256853103638,0.9398809071416481,1
222,185.72222222222223,1.3499999999999943,0.6527777777777715,0.9930555555555429,1.359440559440571,0.03439296183978667,0.8540145694573578,58.333333333333336,0.7241379310254934,0.6573426573426594,9.705338015919551e-06,0.3346347925031005,0
223,186.375,0.6527777777777715,1.3777777777777658,0.9930555555555429,0.6573426573426594,0.04231113065503423,1.0506312947962495,200.0,2.4827586206588346,1.3874125874125929,0.9772107005119324,0.9453854445139384,1
224,187.75277777777777,1.3777777777777658,0.625,0.9930555555555429,1.3874125874125929,0.03537851803569989,0.8784869994344464,58.333333333333336,0.7241379310254934,0.6293706293706374,1.3156460227037314e-05,0.29089875556791567,0
225,188.37777777777777,0.625,1.3472222222222285,0.9930555555555429,0.6293706293706374,0.04870345888837751,1.2093597424786324,197.22222222222223,2.448275862038573,1.3566433566433802,0.973018229007721,0.9561822383679379,1
226,189.725,1.3472222222222285,0.6111111111111143,0.9930555555555429,1.3566433566433802,0.03226870218409402,0.801266896729348,52.77777777777778,0.6551724137849703,0.6153846153846264,1.0080140100399149e-06,0.33743205586735725,0
227,190.3361111111111,0.6111111111111143,1.319444444444457,0.9930555555555429,0.6153846153846264,0.05106858831028278,1.2680884729197175,186.11111111111111,2.3103448275575267,1.3286713286713583,0.9598417282104492,0.9593127524888897,1
228,191.65555555555557,1.319444444444457,0.6583333333333314,0.9861111111111143,1.338028169014093,0.03563582842431346,0.8848762956448853,58.333333333333336,0.7241379310254934,0.6676056338028128,2.7832513296743855e-05,0.3320211155357119,0
229,192.3138888888889,0.6583333333333314,1.3888888888888857,0.9888888888888943,0.6657303370786462,0.05024101710959934,1.2475389818366502,127.77777777777777,1.586206896532033,1.4044943820224611,0.8855386972427368,0.9482628630759793,1
230,193.70277777777778,1.3888888888888857,0.63055555555556,0.9888888888888943,1.4044943820224611,0.0320656496422438,0.7962248817405478,55.55555555555556,0.6896551724052319,0.6376404494382033,8.211196700358414e-07,0.32984125143749643,0
231,194.33333333333334,0.63055555555556,1.3166666666666629,0.9888888888888943,0.6376404494382033,0.049704597221464863,1.2342190938331814,127.77777777777777,1.586206896532033,1.3314606741572923,0.8610061407089233,0.9393641512265101,1
232,195.65,1.3166666666666629,0.6388888888888857,0.9874999999999972,1.3333333333333333,0.03248595491973327,0.8066615179415216,52.77777777777778,0.6551724137849703,0.6469760900140633,2.8171948542876635e-06,0.3229254618905942,0
233,196.2888888888889,0.6388888888888857,1.3000000000000114,0.9874999999999972,0.6469760900140633,0.042178330641244266,1.0473337263248546,116.66666666666667,1.4482758620509868,1.3164556962025469,0.8599961400032043,0.9617741949642,1
234,197.5888888888889,1.3000000000000114,0.6583333333333314,0.9791666666666714,1.3276595744680904,0.031238952404965954,0.7756970921173612,50.0,0.6206896551647086,0.6723404255319098,6.504606062662788e-07,0.32947947824217294,0
235,198.24722222222223,0.6583333333333314,1.3777777777777658,0.9791666666666714,0.6723404255319098,0.04306068096027172,1.0692434423686494,127.77777777777777,1.586206896532033,1.4070921985815412,0.9110768437385559,0.9131476528507122,1
236,199.625,1.3777777777777658,0.6500000000000057,0.9791666666666714,1.4070921985815412,0.03180693745420647,0.789800777329032,52.77777777777778,0.6551724137849703,0.6638297872340452,4.2660332155719516e-07,0.32281816247065076,0
237,200.275,0.6500000000000057,1.3416666666666686,0.9791666666666714,0.6638297872340452,0.04407094515694752,1.0943293988204772,127.77777777777777,1.586206896532033,1.3702127659574421,0.901845395565033,0.9228415608075609,1
238,201.61666666666667,1.3416666666666686,0.5999999999999943,0.9791666666666714,1.3702127659574421,0.0321280683438887,0.7977748058459411,52.77777777777778,0.6551724137849703,0.6127659574467997,1.0629136113493587e-06,0.35609105313532863,0
239,202.21666666666667,0.5999999999999943,1.3388888888888744,0.9791666666666714,0.6127659574467997,0.051363176530106726,1.275403418137059,127.77777777777777,1.586206896532033,1.3673758865248014,0.8489686846733093,0.9528762802108652,1
240,203.55555555555554,1.3388888888888744,0.6611111111111256,0.9791666666666714,1.3673758865248014,0.038023977017137105,0.9441766170827767,61.111111111111114,0.758620689645755,0.6751773049645505,0.00011719996109604836,0.28931767365571215,0
241,204.21666666666667,0.6611111111111256,1.3916666666666515,0.9805555555555685,0.6742209631728104,0.04736627058838676,1.1761559057279707,144.44444444444446,1.7931034482536028,1.4192634560906174,0.9227200150489807,0.9410214352944826,1
242,205.60833333333332,1.3916666666666515,0.5944444444444628,0.9805555555555685,1.4192634560906174,0.030850638706730237,0.7660548415499926,50.0,0.6206896551647086,0.6062322946175744,5.548276149625053e-08,0.33843749490332153,0
243,206.20277777777778,0.5944444444444628,1.36944444444444,0.9805555555555685,0.6062322946175744,0.05442624965199262,1.3514628481329263,122.22222222222223,1.51724137929151,1.396600566572215,0.8491100072860718,0.9354403202438208,1
244,207.57222222222222,1.36944444444444,1.9527777777777828,1.0,1.36944444444444,0.03671774808974,0.9117415351540868,61.111111111111114,0.758620689645755,1.9527777777777828,0.015193128027021885,0.28372888393918283,0
245,209.525,1.9527777777777828,0.6472222222222115,1.3402777777777715,1.4569948186528603,0.03999731465414613,0.9931767322899152,66.66666666666667,0.8275862068862783,0.48290155440413934,3.973021078795824e-10,0.2720118395083899,0
246,210.17222222222222,0.6472222222222115,1.4194444444444514,1.0,0.6472222222222115,0.046754210664882695,1.1609577935534983,133.33333333333334,1.6551724137725565,1.4194444444444514,0.9077026844024658,0.9461318182295826,1
247,211.59166666666667,1.4194444444444514,0.6472222222222115,1.3402777777777715,1.0590673575129634,0.03244359572481661,0.8056096931589445,52.77777777777778,0.6551724137849703,0.48290155440413934,3.9862857903472104e-08,0.33925953583791013,0
248,212.23888888888888,0.6472222222222115,1.3361111111111086,1.0,0.6472222222222115,0.0465956567565181,1.1570207279288933,144.44444444444446,1.7931034482536028,1.3361111111111086,0.9075707197189331,0.9317871461838982,1
249,213.575,1.3361111111111086,0.580555555555577,1.3374999999999915,0.9989615784008352,0.030812771299121754,0.7651145527212528,50.0,0.6206896551647086,0.43406022845277065,1.1735691174408203e-07,0.34860213963816455,0
250,214.15555555555557,0.580555555555577,1.35833333333332,0.9986111111111171,0.5813630041724798,0.05286353877891618,1.3126590411309706,119.44444444444444,1.4827586206712484,1.3602225312934417,0.8225635290145874,0.9435370185588381,1
251,215.51388888888889,1.35833333333332,0.6555555555555657,1.3472222222222143,1.0082474226804083,0.033481358529878734,0.8313784699014796,55.55555555555556,0.6896551724052319,0.48659793814434027,1.1992786994596827e-06,0.34376273103820665,0
252,216.16944444444445,0.6555555555555657,1.4166666666666572,0.9958333333333371,0.6582984658298542,0.04316247268625676,1.0717710414002881,127.77777777777777,1.586206896532033,1.4225941422593993,0.9088104963302612,0.9396801706570823,1
253,217.5861111111111,1.4166666666666572,0.5999999999999943,1.3472222222222143,1.0515463917525765,0.03159698790063601,0.7845875020538324,50.0,0.6206896551647086,0.44536082474226646,1.4083467725356513e-08,0.32675007867030603,0
254,218.1861111111111,0.5999999999999943,1.3888888888888857,0.9958333333333371,0.602510460251038,0.05347799625670197,1.3279166871803445,122.22222222222223,1.51724137929151,1.3947001394700054,0.8453418016433716,0.9437617268946029,1
255,219.575,1.3888888888888857,0.63055555555556,0.9958333333333371,1.3947001394700054,0.03260463760209349,0.8096085377518555,52.77777777777778,0.6551724137849703,0.6331938633193883,5.729312988478341e-07,0.31521286214180094,0
256,220.20555555555555,0.63055555555556,1.3166666666666629,0.9958333333333371,0.6331938633193883,0.04474841619385253,1.1111517399319355,147.22222222222223,1.8275862068738644,1.3221757322175645,0.9112720489501953,0.9447824367114792,1
257,221.5222222222222,1.3166666666666629,0.6638888888888914,0.9861111111111143,1.3352112676056256,0.0343297838733366,0.8524457919828154,55.55555555555556,0.6896551724052319,0.6732394366197187,8.870982128428295e-06,0.35667524426917907,0
258,222.1861111111111,0.6638888888888914,1.4000000000000057,0.9902777777777771,0.670406732117815,0.03893854315590673,0.9668862868948741,163.88888888888889,2.0344827585954337,1.413744740532966,0.9518767595291138,0.9185895990572308,1
259,223.5861111111111,1.4000000000000057,0.61944444444444,0.9902777777777771,1.413744740532966,0.03313675987398758,0.8228217112798355,55.55555555555556,0.6896551724052319,0.6255259467040633,1.888050178422418e-06,0.30965219236917146,0
260,224.20555555555555,0.61944444444444,1.38611111111112,0.9902777777777771,0.6255259467040633,0.04970421666527667,1.2342096442100077,133.33333333333334,1.6551724137725565,1.399719495091174,0.8941999077796936,0.9403591141453315,1
261,225.59166666666667,1.38611111111112,0.6166666666666742,0.9902777777777771,1.399719495091174,0.031748274030417634,0.7883441008484399,52.77777777777778,0.6551724137849703,0.6227208976157164,2.405569432539778e-07,0.34994535942936483,0
262,226.20833333333334,0.6166666666666742,1.3194444444444287,0.9902777777777771,0.6227208976157164,0.042850271433002914,1.0640187454473065,122.22222222222223,1.51724137929151,1.3323983169705318,0.8712896704673767,0.9540382747439944,1
263,227.52777777777777,1.3194444444444287,0.6638888888888914,0.9902777777777771,1.3323983169705318,0.035750553009948,0.8877250316177643,55.55555555555556,0.6896551724052319,0.670406732117815,1.323490960203344e-05,0.36832224826335325,0
264,228.19166666666666,0.6638888888888914,1.375,0.9902777777777771,0.670406732117815,0.044417026758386234,1.1029229805895207,133.33333333333334,1.6551724137725565,1.3884992987377287,0.9037245512008667,0.9477699777770064,1
265,229.56666666666666,1.375,0.6277777777777942,0.9902777777777771,1.3884992987377287,0.033056769145685505,0.8208354546814739,52.77777777777778,0.6551724137849703,0.6339410939691614,1.12535542484693e-06,0.3292420427097517,0
266,230.19444444444446,0.6277777777777942,1.3499999999999943,0.9902777777777771,0.6339410939691614,0.04484604837884799,1.1135760530464176,133.33333333333334,1.6551724137725565,1.3632538569424917,0.8847848773002625,0.9554695877446764,1
267,231.54444444444445,1.3499999999999943,0.63055555555556,0.99166666666666,1.3613445378151294,0.0331947983944736,0.8242628707332057,55.55555555555556,0.6896551724052319,0.6358543417367034,3.8972166294115596e-06,0.3416245241904733,0
268,232.175,0.63055555555556,1.3361111111111086,0.99166666666666,0.6358543417367034,0.04875690483146555,1.2106868632508474,136.11111111111111,1.689655172392818,1.3473389355742362,0.8741905093193054,0.9478360119258427,1
269,233.51111111111112,1.3361111111111086,0.6555555555555372,0.99166666666666,1.3473389355742362,0.035070952720957026,0.870849818866116,55.55555555555556,0.6896551724052319,0.6610644257702941,7.575536074000411e-06,0.38067778015894677,0
270,234.16666666666666,0.6555555555555372,1.4083333333333314,0.99166666666666,0.6610644257702941,0.04402018050941729,1.0930688575269958,125.0,1.5517241379117717,1.4201680672268984,0.9055231213569641,0.9512736873225354,1
271,235.575,1.4083333333333314,0.6527777777777999,0.99166666666666,1.4201680672268984,0.03555574060496889,0.8828876281705648,55.55555555555556,0.6896551724052319,0.6582633053221555,2.8204692625877215e-06,0.36589611432177876,0
272,236.2277777777778,0.6527777777777999,1.3138888888888687,0.99166666666666,0.6582633053221555,0.03694300051658272,0.9173347973809757,161.11111111111111,1.9999999999751723,1.324929971988784,0.9370175004005432,0.9312276992061135,1
273,237.54166666666666,1.3138888888888687,0.625,0.98888888888888,1.32865168539325,0.03412075805138081,0.847255453966142,52.77777777777778,0.6551724137849703,0.632022471910118,5.384663381846622e-06,0.36371404539140817,0
274,238.16666666666666,0.625,1.3222222222222229,0.984722222222203,0.6346967559943707,0.03757774206748527,0.9330961189803166,177.77777777777777,2.2068965516967416,1.3427362482369805,0.9685729742050171,0.9189684054149485,1
275,239.48888888888888,1.3222222222222229,0.6638888888888914,0.984722222222203,1.3427362482369805,0.03396149980440134,0.8433008988493051,52.77777777777778,0.6551724137849703,0.6741889985895785,3.7602758311550133e-06,0.3687284597117375,0
276,240.15277777777777,0.6638888888888914,0.5638888888888971,0.98888888888888,0.6713483146067502,0.04350551787080405,1.080289225642468,183.33333333333334,2.2758620689372653,0.570224719101137,0.6116802096366882,0.9191171748573086,1
277,240.71666666666667,0.5638888888888971,1.0583333333333371,0.6597222222222143,0.8547368421052859,0.03735909157228204,0.927666789881169,52.77777777777778,0.6551724137849703,1.6042105263158144,0.9830775856971741,0.4414755354486787,1
278,241.775,1.0583333333333371,0.674999999999983,0.8611111111111143,1.229032258064516,0.040777043224868345,1.01253823894703,77.77777777777777,0.9655172413673244,0.7838709677419128,1.1608814531882672e-07,0.9991865187011966,0
279,242.45,0.674999999999983,0.3527777777777885,0.6694444444444372,1.0082987551867075,0.04445381371959464,1.1038364407615289,211.11111111111111,2.620689655139881,0.5269709543568682,0.08982282131910324,0.8152677050423025,0
280,242.80277777777778,0.3527777777777885,0.3361111111111086,0.6694444444444372,0.5269709543568682,0.04284177234925738,1.0638077039737766,130.55555555555554,1.6206896551522947,0.5020746887966822,0.023138942196965218,0.9597944365760445,0
281,243.13888888888889,0.3361111111111086,0.3361111111111086,0.6583333333333456,0.5105485232067377,0.04335953969082413,1.0766644290022003,136.11111111111111,1.689655172392818,0.5105485232067377,0.027059821411967278,0.9398002761511806,0
282,243.475,0.3361111111111086,0.32777777777778283,0.6444444444444457,0.521551724137926,0.037943048065474404,0.9421670633801088,150.0,1.8620689654941258,0.5086206896551793,0.07389377057552338,0.8710841581807847,0
283,243.80277777777778,0.32777777777778283,0.25,0.5944444444444485,0.5514018691588832,0.03699415240738147,0.918604954345093,163.88888888888889,2.0344827585954337,0.4205607476635485,0.05373756214976311,0.860155267357902,0
284,244.05277777777778,0.25,0.6416666666666799,0.4583333333333428,0.5454545454545342,0.03998004989748152,0.9927480296443449,172.22222222222223,2.137931034456219,1.4,0.5141639113426208,0.3459661146120482,1
285,244.69444444444446,0.6416666666666799,0.36388888888888005,0.4583333333333428,1.4,0.04782517842697541,1.1875510854167266,175.0,2.17241379307648,0.7939393939393582,0.3996967673301697,0.20485613348595832,0
286,245.05833333333334,0.36388888888888005,0.3527777777777601,0.3583333333333343,1.015503875968965,0.04504609530823024,1.1185434354156214,161.11111111111111,1.9999999999751723,0.9844961240309558,0.4139862060546875,0.15116321137475208,0
287,245.4111111111111,0.3527777777777601,0.39166666666667993,0.3527777777777743,0.9999999999999597,0.044581228546910746,1.107000289208189,169.44444444444446,2.1034482758359574,1.1102362204724894,0.4580133557319641,0.1535956175610566,0
288,245.80277777777778,0.39166666666667993,0.4138888888888914,0.3527777777777743,1.1102362204724894,0.04778762297331213,1.1866185427430125,133.33333333333334,1.6551724137725565,1.1732283464567117,0.3307815492153168,0.1408053506519905,0
289,246.21666666666667,0.4138888888888914,1.3666666666666742,0.3527777777777743,1.1732283464567117,0.04011851189261348,0.9961861912574582,105.55555555555556,1.3103448275699405,3.874015748031556,0.004086412023752928,0.957462003124222,0
290,247.58333333333334,1.3666666666666742,0.9666666666666686,0.35833333333332007,3.8139534883722552,0.04451373147114703,1.1053242635618226,77.77777777777777,0.9655172413673244,2.6976744186047563,0.829260528087616,0.22892187239936101,1
291,248.55,0.9666666666666686,1.1166666666666458,0.37777777777778,2.5588235294117547,0.03991176923945562,0.99105254679998,169.44444444444446,2.1034482758359574,2.955882352941104,0.351907342672348,0.1430983827687644,0
292,249.66666666666666,1.1166666666666458,0.9972222222222342,0.4027777777777857,2.7724137931033423,0.03892425374844841,0.9665314653992679,138.88888888888889,1.7241379310130795,2.4758620689654984,0.631727397441864,0.27167115513129625,1
293,250.6638888888889,0.9972222222222342,0.6444444444444457,0.5277777777777857,1.8894736842105209,0.04714394281757553,1.1706352658844978,108.33333333333333,1.344827586190202,1.2210526315789314,0.21689383685588837,0.9685415848492661,0
294,251.30833333333334,0.6444444444444457,0.42222222222221717,0.6430555555555628,1.0021598272138135,0.03805217960937017,0.9448769180564381,163.88888888888889,2.0344827585954337,0.6565874730021446,0.09029270708560944,0.9118583980973354,0
295,251.73055555555555,0.42222222222221717,0.36666666666667425,0.5333333333333314,0.79166666666666,0.04105408891244559,1.0194175840496258,208.33333333333334,2.5862068965196197,0.6875000000000167,0.13211338222026825,0.8594252496607302,0
296,252.09722222222223,0.36666666666667425,0.36944444444444,0.5333333333333314,0.6875000000000167,0.03733419187001367,0.9270485032499857,152.77777777777777,1.8965517241143874,0.6927083333333275,0.12133404612541199,0.8889584444345224,0
297,252.46666666666667,0.36944444444444,0.34444444444443434,0.5333333333333314,0.6927083333333275,0.042817192304201925,1.0631973547781166,163.88888888888889,2.0344827585954337,0.6458333333333167,0.117476686835289,0.8939362059120772,0
298,252.8111111111111,0.34444444444443434,0.30555555555557135,0.5333333333333314,0.6458333333333167,0.04686276236512694,1.1636532500826509,172.22222222222223,2.137931034456219,0.5729166666666983,0.08310595154762268,0.9031644658587528,0
299,253.11666666666667,0.30555555555557135,0.3138888888888687,0.5333333333333314,0.5729166666666983,0.04069952557541434,1.0106133915805198,166.66666666666666,2.0689655172156955,0.5885416666666309,0.046855367720127106,0.8906398489408399,0
300,253.43055555555554,0.3138888888888687,0.3111111111111313,0.3958333333333286,0.7929824561403093,0.038099990056889445,0.9460641033574291,166.66666666666666,2.0689655172156955,0.7859649122807623,0.18379764258861542,0.8749589471743522,0
301,253.74166666666667,0.3111111111111313,0.19444444444442865,0.36805555555555713,0.8452830188679759,0.03606905628959969,0.8956338137258475,158.33333333333334,1.965517241354911,0.5283018867924076,0.07643285393714905,0.8775659862461229,0
302,253.9361111111111,0.19444444444442865,0.4361111111111313,0.3555555555555543,0.5468749999999575,0.03519977015289777,0.8740484955078647,152.77777777777777,1.8965517241143874,1.2265625000000613,0.10322050005197525,0.23420460750696026,0
303,254.37222222222223,0.4361111111111313,0.32499999999998863,0.3555555555555543,1.2265625000000613,0.033818138918729555,0.8397410924672801,177.77777777777777,2.2068965516967416,0.9140624999999712,0.21524108946323395,0.8413817750764441,0
304,254.69722222222222,0.32499999999998863,0.30000000000001137,0.3347222222222115,0.9709543568464702,0.03636165980310809,0.9028994765313554,141.66666666666666,1.758620689633341,0.8962655601660379,0.10374769568443298,0.8711983431993221,0
305,254.99722222222223,0.30000000000001137,0.20833333333331439,0.31944444444442865,0.9391304347826908,0.035136728017350335,0.8724830908620533,152.77777777777777,1.8965517241143874,0.6521739130434512,0.05249863862991333,0.8609012287500293,0
306,255.20555555555555,0.20833333333331439,0.4138888888888914,0.3125,0.666666666666606,0.031978859053501445,0.7940697772275074,169.44444444444446,2.1034482758359574,1.3244444444444525,0.07306234538555145,0.21734650814148793,0
307,255.61944444444444,0.4138888888888914,0.2083333333333428,0.3125,1.3244444444444525,0.03679240706385088,0.9135953985092827,144.44444444444446,1.7931034482536028,0.6666666666666969,0.1342889666557312,0.857492532576177,0
308,255.82777777777778,0.2083333333333428,0.3027777777777487,0.30833333333335133,0.675675675675667,0.032676126743021006,0.8113836907088613,158.33333333333334,1.965517241354911,0.9819819819818304,0.07518108189105988,0.25193205441720834,0
309,256.13055555555553,0.3027777777777487,0.30555555555559977,0.30694444444444,0.9864253393664354,0.031262715813190046,0.7762871633341955,166.66666666666666,2.0689655172156955,0.9954751131223303,0.04967951029539108,0.2302546212958435,0
310,256.43611111111113,0.30555555555559977,0.283333333333303,0.30416666666667425,1.0045662100457824,0.03328781472247067,0.8265725671087889,152.77777777777777,1.8965517241143874,0.9315068493149457,0.05833858624100685,0.22769789574140925,0
311,256.71944444444443,0.283333333333303,0.2750000000000341,0.30138888888888005,0.9400921658985445,0.03784444841760551,0.9397187271124836,122.22222222222223,1.51724137929151,0.912442396313504,0.09812809526920319,0.22098437905269303,0
312,256.99444444444447,0.2750000000000341,0.29444444444442297,0.30138888888888005,0.912442396313504,0.044412304406835024,1.1028057194752956,133.33333333333334,1.6551724137725565,0.9769585253455796,0.2544126510620117,0.19205236505398188,0
313,257.2888888888889,0.29444444444442297,0.3083333333333371,0.29722222222221717,0.9906542056074212,0.037500079774651696,0.9311676799617088,155.55555555555554,1.9310344827346488,1.0373831775701239,0.06403598934412003,0.16582714571123658,0
314,257.59722222222223,0.3083333333333371,0.29722222222221717,0.29722222222221717,1.0373831775701239,0.038405541366906604,0.9536512740026035,155.55555555555554,1.9310344827346488,1.0,0.07704562693834305,0.2108292262881536,0
315,257.89444444444445,0.29722222222221717,0.3055555555555429,0.29583333333332007,1.0046948356807792,0.040449007641764324,1.0043927593987352,155.55555555555554,1.9310344827346488,1.0328638497652618,0.09073497354984283,0.23501633120298432,0
316,258.2,0.3055555555555429,0.3055555555555429,0.29999999999998295,1.0185185185185344,0.03939365361164612,0.9781871734461508,161.11111111111111,1.9999999999751723,1.0185185185185344,0.08565515279769897,0.21802154877764968,0
317,258.50555555555553,0.3055555555555429,0.45277777777778283,0.29999999999998295,1.0185185185185344,0.03526080209624923,0.8755639848997713,169.44444444444446,2.1034482758359574,1.5092592592593619,0.14944760501384735,0.1697110732376188,0
318,258.9583333333333,0.45277777777778283,0.19722222222225128,0.3041666666666458,1.4885844748859633,0.033434332337608744,0.8302107585094873,163.88888888888889,2.0344827585954337,0.6484018264841582,0.10899587720632553,0.8668165576119415,0
319,259.15555555555557,0.19722222222225128,0.3361111111111086,0.30138888888888005,0.6543778801844474,0.04169742046183388,1.0353922046341666,188.88888888888889,2.344827586177788,1.1152073732719137,0.09509778767824173,0.31967939125153555,0
320,259.4916666666667,0.3361111111111086,0.3333333333333144,0.30138888888888005,1.1152073732719137,0.042468949150873875,1.0545500993297103,147.22222222222223,1.8275862068738644,1.105990783410108,0.1275927871465683,0.17921602452744578,0
321,259.825,0.3333333333333144,0.3944444444444457,0.3055555555555429,1.090909090909074,0.039558464597007355,0.9822796090834413,183.33333333333334,2.2758620689372653,1.2909090909091485,0.361785888671875,0.9647710758327579,0
322,260.21944444444443,0.3944444444444457,0.34444444444443434,0.30694444444444,1.28506787330319,0.04123932026645473,1.0240170796028445,144.44444444444446,1.7931034482536028,1.1221719457013406,0.25988632440567017,0.9583109701025682,0
323,260.56388888888887,0.34444444444443434,0.3972222222222399,0.32083333333332575,1.0735930735930674,0.04489509062563632,1.1147938252601415,169.44444444444446,2.1034482758359574,1.2380952380953225,0.43363815546035767,0.9377888294986568,0
324,260.9611111111111,0.3972222222222399,1.36388888888888,0.3347222222222115,1.1867219917013356,0.0490216463930655,1.2172606835516537,122.22222222222223,1.51724137929151,4.0746887966806025,0.0022003590129315853,0.9760649230811227,0
325,262.325,1.36388888888888,0.8222222222222513,0.34027777777777146,4.0081632653061705,0.040562315050345174,1.0072063053272966,88.88888888888889,1.1034482758483708,2.416326530612375,1.2834624385504867e-07,0.9925970059928839,0
326,263.14722222222224,0.8222222222222513,1.3138888888888687,0.36944444444444,2.225563909774541,0.03201267930207598,0.7949095707050179,166.66666666666666,2.0689655172156955,3.5563909774435967,0.053992994129657745,0.7812502207184501,0
327,264.4611111111111,1.3138888888888687,1.0,0.3958333333333428,3.3192982456139046,0.04255904069962977,1.0567871702624472,88.88888888888889,1.1034482758483708,2.5263157894736237,5.7103366088995244e-06,0.996884450070209,0
328,265.4611111111111,1.0,0.9833333333333485,0.3958333333333428,2.5263157894736237,0.04056371487764906,1.0072410645584966,80.55555555555556,0.9999999999875862,2.4842105263157683,3.272947287769057e-05,0.9991150382260375,0
329,266.44444444444446,0.9833333333333485,0.6722222222222172,0.6097222222222456,1.6127562642368651,0.0417381062594941,1.0364024771467135,80.55555555555556,0.9999999999875862,1.1025056947607694,0.0006520389579236507,0.9979640305769303,0
330,267.1166666666667,0.6722222222222172,0.38055555555553156,0.7472222222222342,0.8996282527880829,0.04294582681676382,1.0663914893331645,105.55555555555556,1.3103448275699405,0.5092936802973574,0.9255484938621521,0.3380459018708656,1
331,267.4972222222222,0.38055555555553156,1.6833333333333371,0.7472222222222342,0.5092936802973574,0.03719851067149815,0.923679391834881,169.44444444444446,2.1034482758359574,2.252788104089188,0.9881861209869385,0.17035451224160364,1
332,269.18055555555554,1.6833333333333371,0.6333333333333258,0.9027777777777999,1.8646153846153433,0.036734489937309704,0.9121572533993129,83.33333333333333,1.0344827586078478,0.701538461538436,7.636238129931565e-16,0.9981992446239087,0
333,269.81388888888887,0.6333333333333258,0.3972222222222399,0.9027777777777999,0.701538461538436,0.040234063214688226,0.9990554559934117,197.22222222222223,2.448275862038573,0.44000000000000883,0.5616387724876404,0.827160706470248,1
334,270.2111111111111,0.3972222222222399,0.48888888888888005,0.9027777777777999,0.44000000000000883,0.03965361603557261,0.9846423225716862,158.33333333333334,1.965517241354911,0.5415384615384384,0.23799914121627808,0.925151666672779,0
335,270.7,0.48888888888888005,0.3361111111111086,0.7472222222222342,0.6542750929367807,0.03435428851277131,0.853054268775074,175.0,2.17241379307648,0.44981412639404145,0.9537992477416992,0.18189332975224487,1
336,271.0361111111111,0.3361111111111086,0.32499999999998863,0.6527777777777715,0.5148936170212777,0.03665055272413168,0.9100730012983276,163.88888888888889,2.0344827585954337,0.4978723404255193,0.9321331977844238,0.260516272191199,1
337,271.3611111111111,0.32499999999998863,0.30555555555559977,0.5611111111111029,0.5792079207920674,0.03967595736366018,0.985197081995335,163.88888888888889,2.0344827585954337,0.5445544554456313,0.95298171043396,0.2641200352750479,1
338,271.6666666666667,0.30555555555559977,0.7138888888888459,0.44305555555556,0.689655172413886,0.0408766013026182,1.0150103740687917,144.44444444444446,1.7931034482536028,1.6112852664575672,0.8415114879608154,0.19359526311176867,1
339,272.38055555555553,0.7138888888888459,0.21666666666669698,0.44305555555556,1.6112852664575672,0.03043407842900659,0.7557111977576845,161.11111111111111,1.9999999999751723,0.48902821316620776,0.13636188209056854,0.8607726665302546,0
340,272.59722222222223,0.21666666666669698,0.3111111111111313,0.38888888888888573,0.5571428571429397,0.03628601120673779,0.9010210397814126,111.11111111111111,1.3793103448104638,0.8000000000000584,0.4900888502597809,0.26570351288324473,0
341,272.90833333333336,0.3111111111111313,0.2694444444444457,0.36666666666667425,0.848484848484886,0.038794283859251134,0.9633041719930678,166.66666666666666,2.0689655172156955,0.7348484848484731,0.38815179467201233,0.2943902850516919,0
342,273.1777777777778,0.2694444444444457,0.283333333333303,0.3305555555555486,0.815126050420189,0.05434876017427231,1.3495387003011385,94.44444444444444,1.172413793088894,0.8571428571427835,0.9864752888679504,0.1325695021400679,1
343,273.4611111111111,0.283333333333303,0.4111111111110972,0.31805555555556,0.8908296943230364,0.05073753303399914,1.2598680111124738,116.66666666666667,1.4482758620509868,1.2925764192139122,0.8425264358520508,0.12975206611943801,1
344,273.8722222222222,0.4111111111110972,0.13333333333332575,0.31805555555556,1.2925764192139122,0.045909043214299027,1.1399713684880477,122.22222222222223,1.51724137929151,0.419213973799097,0.19558317959308624,0.9267227095192919,0
345,274.00555555555553,0.13333333333332575,0.18055555555559977,0.30833333333336554,0.4324324324323627,0.042671922616531154,1.0595901507708176,133.33333333333334,1.6551724137725565,0.5855855855856678,0.14561061561107635,0.25569173325698835,0
346,274.18611111111113,0.18055555555559977,0.4111111111110972,0.2944444444444514,0.613207547169947,0.032181489921115095,0.7991013215873668,58.333333333333336,0.7241379310254934,1.3962264150942594,0.011508170515298843,0.8635443052851054,0
347,274.59722222222223,0.4111111111110972,0.669444444444423,0.2944444444444514,1.3962264150942594,0.03818199222285293,0.948100306135954,122.22222222222223,1.51724137929151,2.273584905660251,0.375074177980423,0.1689924261960563,0
348,275.26666666666665,0.669444444444423,0.29722222222221717,0.29722222222221717,2.252336448598097,0.04445445677079636,1.1038524084207764,113.88888888888889,1.4137931034307252,1.0,0.37390565872192383,0.9197803477163249,0
349,275.56388888888887,0.29722222222221717,0.2888888888888914,0.2902777777777601,1.0239234449761214,0.046746207672372204,1.1607590705637467,180.55555555555554,2.2413793103170034,0.995215311004854,0.32706141471862793,0.8730196909579301,0
350,275.85277777777776,0.2888888888888914,0.6000000000000227,0.2930555555555543,0.9857819905213399,0.047833964035289965,1.1877692416062728,88.88888888888889,1.1034482758483708,2.0473933649289964,0.0347270630300045,0.9308905138178016,0
351,276.4527777777778,0.6000000000000227,0.4305555555555429,0.2930555555555543,2.0473933649289964,0.04145486141245246,1.0293692001866162,130.55555555555554,1.6206896551522947,1.4691943127961717,0.1358303725719452,0.9422402785349211,0
352,276.8833333333333,0.4305555555555429,0.3611111111111427,0.3541666666666572,1.2156862745098007,0.03868104758672145,0.9604923924498614,152.77777777777777,1.8965517241143874,1.0196078431373714,0.19203974306583405,0.397953549920598,0
353,277.24444444444447,0.3611111111111427,0.2888888888888914,0.38611111111111995,0.9352517985612114,0.0411648302213932,1.0221674109392842,155.55555555555554,1.9310344827346488,0.7482014388489103,0.45544716715812683,0.24678578255377193,0
354,277.53333333333336,0.2888888888888914,0.27222222222218306,0.32916666666667993,0.8776371308016601,0.039382945666743725,0.9779212835528002,133.33333333333334,1.6551724137725565,0.8270042194091304,0.21135105192661285,0.2525402257539673,0
355,277.80555555555554,0.27222222222218306,0.28333333333335986,0.32916666666667993,0.8270042194091304,0.04179387124710537,1.0377871823113192,122.22222222222223,1.51724137929151,0.860759493670932,0.4533510208129883,0.2511642867200047,0
356,278.0888888888889,0.28333333333335986,0.2861111111110972,0.32916666666667993,0.860759493670932,0.039308826585251914,0.9760808263172858,152.77777777777777,1.8965517241143874,0.8691983122362097,0.20441731810569763,0.2581168880189567,0
357,278.375,0.2861111111110972,0.30277777777780557,0.2930555555555543,0.9763033175355018,0.040538738458689876,1.0066208729686192,138.88888888888889,1.7241379310130795,1.0331753554503362,0.0869828537106514,0.21411049395416443,0
358,278.6777777777778,0.30277777777780557,0.283333333333303,0.2930555555555543,1.0331753554503362,0.042519681797513025,1.0558098460063354,147.22222222222223,1.8275862068738644,0.9668246445496638,0.12188106775283813,0.2828407839035953,0
359,278.9611111111111,0.283333333333303,0.3361111111111086,0.2888888888888914,0.9807692307691173,0.04172735796633284,1.036135585362305,113.88888888888889,1.4137931034307252,1.1634615384615195,0.19355139136314392,0.13437415142543652,0
360,279.2972222222222,0.3361111111111086,0.3777777777777942,0.2958333333333485,1.1361502347417174,0.039566424612753635,0.9824772649134945,100.0,1.2413793103294173,1.2769953051643093,0.18948161602020264,0.2790855673426247,0
361,279.675,0.3777777777777942,0.2055555555555202,0.2958333333333485,1.2769953051643093,0.04616475677664117,1.146321013769118,102.77777777777777,1.2758620689496787,0.6948356807510185,0.24940252304077148,0.9181109057148089,0
362,279.88055555555553,0.2055555555555202,0.591666666666697,0.2874999999999943,0.7149758454105192,0.035854966897451504,0.890317741765761,83.33333333333333,1.0344827586078478,2.0579710144928995,0.16573116183280945,0.3407719579291121,0
363,280.47222222222223,0.591666666666697,1.2555555555555316,0.2874999999999943,2.0579710144928995,0.03420693573962484,0.849395339494623,122.22222222222223,1.51724137929151,4.367149758454109,0.00022607907885685563,0.9468839344614375,0
364,281.72777777777776,1.2555555555555316,0.9055555555555657,0.2944444444444514,4.264150943396045,0.03625450597202392,0.9002387306105667,72.22222222222223,0.8965517241268014,3.0754716981131693,1.1369761902801923e-11,0.9948574755386959,0
365,282.6333333333333,0.9055555555555657,1.1083333333333485,0.3194444444444571,2.834782608695572,0.02594968994989259,0.6443589648761376,47.22222222222222,0.586206896544447,3.4695652173912146,3.511045633786125e-06,0.8215581581984008,0
366,283.7416666666667,1.1083333333333485,0.6527777777777715,0.3569444444444514,3.1050583657587367,0.03546259874591817,0.8805748147226797,194.44444444444446,2.4137931034183113,1.8287937743190128,0.12461107224225998,0.8879765885443014,0
367,284.39444444444445,0.6527777777777715,1.1083333333333485,0.4847222222222456,1.346704871060094,0.04179633942168064,1.037848469764754,116.66666666666667,1.4482758620509868,2.286532951289319,0.8697327375411987,0.31493238935312506,1
368,285.5027777777778,1.1083333333333485,0.8527777777777601,0.6222222222222342,1.78124999999999,0.038111307190310244,0.9463451200628491,97.22222222222223,1.2068965517091557,1.3705357142856593,0.0028822303283959627,0.9958105006202426,0
369,286.35555555555555,0.8527777777777601,0.8277777777777828,0.7527777777777658,1.1328413284132788,0.035398453872382794,0.8789820278958168,72.22222222222223,0.8965517241268014,1.0996309963099873,2.0238285287632607e-06,0.991223538703581,0
370,287.18333333333334,0.8277777777777828,0.8583333333333485,0.8402777777777715,0.9851239669421622,0.04025214847945526,0.9995045327456696,88.88888888888889,1.1034482758483708,1.021487603305811,0.00025549533893354237,0.9958841122914543,0
371,288.0416666666667,0.8583333333333485,0.4249999999999545,0.8555555555555543,1.0032467532467724,0.03884419627313205,0.9645435514001004,80.55555555555556,0.9999999999875862,0.4967532467531943,5.091403181722853e-06,0.9936084294256995,0
372,288.46666666666664,0.4249999999999545,0.4361111111111313,0.8555555555555543,0.4967532467531943,0.03549844757211185,0.8814649799841063,183.33333333333334,2.2758620689372653,0.5097402597402841,0.905868649482727,0.39528948226062455,1
373,288.90277777777777,0.4361111111111313,0.8388888888889028,0.8555555555555543,0.5097402597402841,0.037296895742100926,0.9261223999161059,66.66666666666667,0.8275862068862783,0.9805194805194982,0.11828505992889404,0.9680934694876131,0
374,289.7416666666667,0.8388888888889028,0.8055555555555429,0.8458333333333314,0.9917898193760449,0.03875905807307802,0.9624294774915427,136.11111111111111,1.689655172392818,0.9523809523809396,0.1666114181280136,0.9893966334667198,0
375,290.5472222222222,0.8055555555555429,0.8027777777778056,0.8333333333333428,0.9666666666666405,0.036300811605108646,0.9013885497359598,69.44444444444444,0.8620689655065398,0.9633333333333557,0.0003395392850507051,0.9637030501943797,0
376,291.35,0.8027777777778056,0.8027777777777487,0.8166666666666629,0.9829931972789502,0.03656193144750644,0.9078724388182939,75.0,0.9310344827470629,0.9829931972788806,5.452740879263729e-06,0.9920823174279036,0
377,292.15277777777777,0.8027777777777487,0.7555555555555884,0.8166666666666629,0.9829931972788806,0.0393208280063792,0.9763788346291211,72.22222222222223,0.8965517241268014,0.9251700680272554,3.1304707590606995e-06,0.9907740281115185,0
378,292.90833333333336,0.7555555555555884,0.7972222222222172,0.8041666666666742,0.9395509499136762,0.03687840616535585,0.915730849535211,80.55555555555556,0.9999999999875862,0.9913644214162193,1.9201586837880313e-05,0.9981769193307031,0
379,293.7055555555556,0.7972222222222172,0.8527777777777601,0.8027777777777771,0.993079584775081,0.03595172678598113,0.8927203948122856,75.0,0.9310344827470629,1.0622837370242002,2.450605643389281e-05,0.9879842116001092,0
380,294.55833333333334,0.8527777777777601,0.8277777777777828,0.8027777777777771,1.0622837370242002,0.039863194881378294,0.989846392770754,77.77777777777777,0.9655172413673244,1.0311418685121179,0.0009071321110241115,0.9580786146632627,0
381,295.3861111111111,0.8277777777777828,0.8027777777777487,0.8027777777777771,1.0311418685121179,0.03324005129153671,0.8253865492806388,66.66666666666667,0.8275862068862783,0.9999999999999646,6.173760084493551e-06,0.9769832573734089,0
382,296.18888888888887,0.8027777777777487,0.8083333333333371,0.8027777777777771,0.9999999999999646,0.03449199220821597,0.8564736009839625,102.77777777777777,1.2758620689496787,1.006920415224919,0.12871725857257843,0.9705264801179616,0
383,296.9972222222222,0.8083333333333371,0.7722222222222399,0.8041666666666742,1.0051813471502542,0.03172431974067713,0.7877492898363878,202.77777777777777,2.517241379279096,0.9602763385146934,0.44778451323509216,0.8734389830946725,0
384,297.76944444444445,0.7722222222222399,0.7555555555555316,0.8027777777777771,0.9619377162629985,0.034645256747087266,0.8602793258234509,108.33333333333333,1.344827586190202,0.9411764705882062,0.042337000370025635,0.986673938090203,0
385,298.525,0.7555555555555316,0.7722222222222399,0.8027777777777487,0.9411764705882395,0.0378167480994593,0.9390308981495211,69.44444444444444,0.8620689655065398,0.9619377162630326,2.5218234895874048e-06,0.993619317545907,0
386,299.2972222222222,0.7722222222222399,0.7916666666666856,0.799999999999983,0.9652777777778204,0.04095023297589133,1.016838728429248,80.55555555555556,0.9999999999875862,0.9895833333333781,1.806070577003993e-05,0.997356337682547,0
387,300.0888888888889,0.7916666666666856,0.7777777777777715,0.7944444444444514,0.9965034965035117,0.03488969229165058,0.8663489256829437,194.44444444444446,2.4137931034183113,0.9790209790209625,0.3526778817176819,0.974762603158009,0
388,300.8666666666667,0.7777777777777715,0.7444444444444116,0.7944444444444514,0.9790209790209625,0.039728080324246726,0.9864913516761934,102.77777777777777,1.2758620689496787,0.9370629370628876,0.11437606811523438,0.962802894914472,0
389,301.6111111111111,0.7444444444444116,0.7666666666667084,0.7847222222222285,0.9486725663716319,0.04787764097803988,1.1888537874977123,122.22222222222223,1.51724137929151,0.9769911504425232,0.2159428894519806,0.9721968605815545,0
390,302.3777777777778,0.7666666666667084,0.7277777777777601,0.7750000000000057,0.9892473118280035,0.045549900923876646,1.1310534756366624,191.66666666666666,2.3793103447980495,0.9390681003583933,0.31788235902786255,0.9442448915015977,0
391,303.10555555555555,0.7277777777777601,0.7472222222222058,0.7722222222222399,0.9424460431654231,0.03974506888078634,0.9869131959728977,77.77777777777777,0.9655172413673244,0.9676258992805321,2.0092236809432507e-05,0.9942997874022184,0
392,303.85277777777776,0.7472222222222058,0.7416666666666742,0.7694444444444741,0.9711191335739484,0.04149853591049946,1.0304536853734292,83.33333333333333,1.0344827586078478,0.9638989169674816,2.4172288249246776e-05,0.9987095926359917,0
393,304.59444444444443,0.7416666666666742,0.7194444444444343,0.76111111111112,0.9744525547445242,0.03963277315701953,0.984124771276259,72.22222222222223,0.8965517241268014,0.9452554744525304,1.4999488939793082e-06,0.9975129805989196,0
394,305.31388888888887,0.7194444444444343,0.76111111111112,0.7513888888888687,0.9574861367837462,0.040992999973520426,1.0179006793957666,86.11111111111111,1.0689655172281094,1.0129390018484679,0.00012776734365615994,0.9977355442342525,0
395,306.075,0.76111111111112,0.7833333333333599,0.7541666666666629,1.0092081031307718,0.03805696636788464,0.9449957784654622,77.77777777777777,0.9655172413673244,1.0386740331492117,5.5542814152431674e-06,0.9983389034392552,0
396,306.85833333333335,0.7833333333333599,0.7722222222221831,0.7541666666666629,1.0386740331492117,0.039591561402385136,0.9831014386812174,80.55555555555556,0.9999999999875862,1.0239410681399164,7.620127234986285e-06,0.9981866428210049,0
397,307.63055555555553,0.7722222222221831,0.7472222222222626,0.7541666666666629,1.0239410681399164,0.041238743066305275,1.0240027470966933,83.33333333333333,1.0344827586078478,0.9907918968693035,1.606127443665173e-05,0.998111999802988,0
398,308.3777777777778,0.7472222222222626,0.7444444444444116,0.7472222222222342,1.000000000000038,0.037794548531959786,0.9384796587951278,72.22222222222223,0.8965517241268014,0.9962825278809809,1.6159182223418611e-06,0.9972859647901162,0
399,309.1222222222222,0.7444444444444116,0.7111111111111086,0.7472222222222342,0.9962825278809809,0.038530149864319026,0.9567454382320213,75.0,0.9310344827470629,0.9516728624535129,2.1040832507424057e-06,0.9978619766636783,0
400,309.8333333333333,0.7111111111111086,0.7361111111111427,0.7458333333333087,0.9534450651769368,0.03914856074512153,0.9721012515689622,75.0,0.9310344827470629,0.9869646182496093,5.222435902396683e-06,0.9984571976477892,0
401,310.56944444444446,0.7361111111111427,0.7166666666666401,0.7458333333333087,0.9869646182496093,0.03914991393024961,0.9721348526243158,77.77777777777777,0.9655172413673244,0.9608938547485996,4.210432052786928e-06,0.9987014167419803,0
402,311.2861111111111,0.7166666666666401,0.7833333333333599,0.7430555555555429,0.9644859813083919,0.03991443930379818,0.9911188473954493,83.33333333333333,1.0344827586078478,1.0542056074766892,8.613122918177396e-05,0.99805706033179,0
403,312.06944444444446,0.7833333333333599,0.7722222222221831,0.7458333333333371,1.0502793296089687,0.04046693882669021,1.0048380101813132,83.33333333333333,1.0344827586078478,1.0353817504654916,2.134969508915674e-05,0.9979112071759305,0
404,312.84166666666664,0.7722222222221831,0.7583333333333826,0.7541666666666913,1.0239410681398777,0.0411347475965348,1.0214204267151203,83.33333333333333,1.0344827586078478,1.0055248618784856,1.603362034074962e-05,0.9987661268004207,0
405,313.6,0.7583333333333826,0.7333333333332916,0.7527777777778226,1.0073800738007435,0.037582451516097196,0.9332130597005556,75.0,0.9310344827470629,0.9741697416973035,1.94516883311735e-06,0.9976957077058681,0
406,314.3333333333333,0.7333333333332916,0.73888888888888,0.7458333333333371,0.9832402234636263,0.03990537217244379,0.9908937006832848,83.33333333333333,1.0344827586078478,0.9906890130353648,3.00860501738498e-05,0.9973183726025399,0
407,315.0722222222222,0.73888888888888,0.7444444444444684,0.7416666666666458,0.9962546816479562,0.04178543431003363,1.037577684007148,83.33333333333333,1.0344827586078478,1.0037453183521206,3.657607521745376e-05,0.9971201705444032,0
408,315.81666666666666,0.7444444444444684,0.7416666666666742,0.7416666666666458,1.0037453183521206,0.041106928026187206,1.020729636590572,80.55555555555556,0.9999999999875862,1.0000000000000384,1.664967385295313e-05,0.9964876841615302,0
409,316.55833333333334,0.7416666666666742,0.7083333333333144,0.7402777777777771,1.001876172607891,0.03973308347234188,0.9866155852733556,75.0,0.9310344827470629,0.956848030018737,4.732897650683299e-06,0.9943366032105518,0
410,317.26666666666665,0.7083333333333144,0.7666666666667084,0.7402777777777771,0.956848030018737,0.04089916593110864,1.0155706782837937,77.77777777777777,0.9655172413673244,1.0356472795497758,2.1050220311735757e-05,0.9981941555057761,0
411,318.03333333333336,0.7666666666667084,0.7777777777777715,0.7430555555555713,1.0317757009346136,0.041150045440637925,1.0218002887870818,83.33333333333333,1.0344827586078478,1.046728971962586,2.7541704184841365e-05,0.998978463735473,0
412,318.81111111111113,0.7777777777777715,0.7805555555555088,0.7513888888889255,1.035120147874248,0.0394743051657583,0.9801898390665771,80.55555555555556,0.9999999999875862,1.0388170055451738,9.755680366652086e-06,0.9982492585313942,0
413,319.59166666666664,0.7805555555555088,0.7555555555555884,0.7513888888889255,1.0388170055451738,0.041034251700671515,1.0189250045517801,80.55555555555556,0.9999999999875862,1.0055452865064642,6.242609288165113e-06,0.9994107367878897,0
414,320.34722222222223,0.7555555555555884,0.7444444444444116,0.7500000000000284,1.007407407407413,0.03905771022514068,0.9698453345569918,77.77777777777777,0.9655172413673244,0.9925925925925112,7.905228812887799e-06,0.9947011027587185,0
415,321.09166666666664,0.7444444444444116,0.716666666666697,0.74444444444444,0.9999999999999618,0.03959062573571958,0.9830782050624246,88.88888888888889,1.1034482758483708,0.9626865671642255,6.954126729397103e-05,0.9979271035095699,0
416,321.80833333333334,0.716666666666697,0.7166666666666401,0.74444444444444,0.9626865671642255,0.038639690210326885,0.9594654439084702,86.11111111111111,1.0689655172281094,0.9626865671641492,0.0003458573773968965,0.9882454817861521,0
417,322.525,0.7166666666666401,0.580555555555577,0.74444444444444,0.9626865671641492,0.03439534137970246,0.8540736560160018,80.55555555555556,0.9999999999875862,0.7798507462686902,2.7176203730050474e-05,0.9893653628358904,0
418,323.10555555555555,0.580555555555577,0.9111111111110972,0.7430555555555429,0.7813084112149955,0.028628850720535427,0.7108854345272836,61.111111111111114,0.758620689645755,1.2261682242990675,0.9894120097160339,0.5759094750686622,1
419,324.01666666666665,0.9111111111110972,0.7666666666667084,0.75,1.2148148148147964,0.03183563505460363,0.7905133698926443,63.888888888888886,0.7931034482660165,1.0222222222222779,1.95469765458256e-05,0.9564823937508928,0
420,324.78333333333336,0.7666666666667084,0.7638888888888573,0.7611111111111484,1.0072992700729981,0.03581381513768222,0.8892958989083329,63.888888888888886,0.7931034482660165,1.0036496350364057,9.450866969018534e-07,0.9895162158965447,0
421,325.5472222222222,0.7638888888888573,0.7361111111111427,0.7597222222222229,1.005484460694656,0.03993698958008088,0.9916787952295564,75.0,0.9310344827470629,0.9689213893967501,3.713877276823041e-06,0.9941887250287171,0
422,326.28333333333336,0.7361111111111427,0.7111111111111086,0.75,0.9814814814815236,0.03725583239379765,0.9251027524113327,77.77777777777777,0.9655172413673244,0.9481481481481447,6.827412562415702e-06,0.9955629293408526,0
423,326.99444444444447,0.7111111111111086,0.7083333333333144,0.7402777777777771,0.960600375234519,0.040403734402367414,1.0032685757290762,75.0,0.9310344827470629,0.956848030018737,4.4674681703327224e-05,0.9858657657740006,0
424,327.7027777777778,0.7083333333333144,0.658333333333303,0.7263888888889198,0.975143403441615,0.038252901463898176,0.9498610595495128,80.55555555555556,0.9999999999875862,0.9063097514339541,4.540189547697082e-05,0.9897114079461301,0
425,328.3611111111111,0.658333333333303,0.6555555555555657,0.7166666666666686,0.9186046511627459,0.03434186784959912,0.8527458502282566,88.88888888888889,1.1034482758483708,0.9147286821705544,0.0004194891080260277,0.9896742116885375,0
426,329.01666666666665,0.6555555555555657,0.6888888888889255,0.7138888888888744,0.9182879377432235,0.03949238923657221,0.9806388861716832,102.77777777777777,1.2758620689496787,0.9649805447471527,0.008177453652024269,0.9934157065768063,0
427,329.7055555555556,0.6888888888889255,0.6805555555555429,0.7097222222222115,0.9706457925636671,0.03910397643427987,0.9709941747430301,83.33333333333333,1.0344827586078478,0.9589041095890378,5.817820056108758e-05,0.995004024939337,0
428,330.3861111111111,0.6805555555555429,0.7333333333333485,0.7097222222222115,0.9589041095890378,0.03868880875973503,0.9606851107990559,86.11111111111111,1.0689655172281094,1.0332681017612895,0.0005519294645637274,0.9898700718953028,0
429,331.11944444444447,0.7333333333333485,0.6861111111110745,0.7097222222222115,1.0332681017612895,0.03659736837490579,0.90875237618562,88.88888888888889,1.1034482758483708,0.9667318982387105,0.0014649928780272603,0.9806008211207736,0
430,331.80555555555554,0.6861111111110745,0.6888888888889255,0.69861111111112,0.9821073558647463,0.03614522692372196,0.8975252132397439,75.0,0.9310344827470629,0.9860834990060041,2.130106986442115e-05,0.9911418149679755,0
431,332.49444444444447,0.6888888888889255,0.6861111111110745,0.6888888888889255,1.0,0.040070365773459175,0.9949906708654622,77.77777777777777,0.9655172413673244,0.9959677419353777,2.6960866307490505e-05,0.9954384849299271,0
432,333.18055555555554,0.6861111111110745,0.6444444444444457,0.6875,0.9979797979797447,0.03453915747897787,0.857644765845852,77.77777777777777,0.9655172413673244,0.9373737373737392,6.625887908739969e-05,0.9868165830398422,0
433,333.825,0.6444444444444457,0.6861111111111313,0.6861111111110745,0.9392712550607807,0.03863093758071205,0.9592481066158302,75.0,0.9310344827470629,1.0000000000000828,6.84176484355703e-05,0.9894345088457087,0
434,334.5111111111111,0.6861111111111313,0.6972222222221944,0.6861111111110745,1.0000000000000828,0.03605275786115862,0.8952291060588322,77.77777777777777,0.9655172413673244,1.0161943319838194,7.813926640665159e-05,0.9898342627863395,0
435,335.2083333333333,0.6972222222221944,0.6972222222222513,0.6861111111111029,1.0161943319837774,0.03958944733940028,0.9830489442028927,91.66666666666667,1.1379310344686326,1.0161943319838602,0.0005013102199882269,0.9945073395046209,0
436,335.90555555555557,0.6972222222222513,0.7638888888888573,0.6875000000000284,1.0141414141414145,0.041914430410425835,1.0407807971804568,88.88888888888889,1.1034482758483708,1.1111111111110192,0.0004026971000712365,0.9983674586392429,0
437,336.6694444444444,0.7638888888888573,0.7250000000000227,0.6875000000000284,1.1111111111110192,0.04148810255209404,1.0301946137608098,80.55555555555556,0.9999999999875862,1.054545454545444,2.8603846658370458e-05,0.9979992479626494,0
438,337.39444444444445,0.7250000000000227,0.6916666666666629,0.69305555555556,1.0460921843687636,0.04193615056439169,1.0413201321764978,83.33333333333333,1.0344827586078478,0.997995991983956,3.4522632631706074e-05,0.9990221178171614,0
439,338.0861111111111,0.6916666666666629,0.7333333333333485,0.6902777777777942,1.0020120724345782,0.03947599243373722,0.9802317357617002,77.77777777777777,0.9655172413673244,1.0623742454728338,2.8461265173973516e-05,0.9977976871462576,0
440,338.81944444444446,0.7333333333333485,0.6861111111110745,0.6944444444444287,1.0560000000000458,0.0385337887296447,0.9568357952073494,77.77777777777777,0.9655172413673244,0.9879999999999697,1.1012006325472612e-05,0.9966494288066239,0
441,339.50555555555553,0.6861111111110745,0.7444444444444684,0.6944444444444287,0.9879999999999697,0.03593019724328808,0.8921857929010205,69.44444444444444,0.8620689655065398,1.072000000000059,9.132349805440754e-05,0.9831600996410269,0
442,340.25,0.7444444444444684,0.7138888888889028,0.6972222222222229,1.0677290836653721,0.039461220404484056,0.9798649302431345,83.33333333333333,1.0344827586078478,1.0239043824701386,3.6177036236040294e-05,0.9976264202000453,0
443,340.9638888888889,0.7138888888889028,0.7722222222221831,0.705555555555577,1.0118110236220361,0.04037938314987365,1.0026639077010335,75.0,0.9310344827470629,1.0944881889762892,1.7212159946211614e-05,0.9972840289287543,0
444,341.7361111111111,0.7722222222221831,0.8083333333333371,0.7194444444444628,1.0733590733589915,0.034903553760241623,0.8666931209920297,75.0,0.9310344827470629,1.1235521235521002,8.295850420836359e-05,0.9841022247760327,0
445,342.5444444444444,0.8083333333333371,0.7972222222222172,0.7291666666666856,1.108571428571405,0.04136705091879637,1.027188770327656,83.33333333333333,1.0344827586078478,1.093333333333298,3.0765826522838324e-05,0.9990875103381389,0
446,343.34166666666664,0.7972222222222172,0.7833333333333599,0.7388888888889085,1.0789473684210171,0.04168260243452679,1.0350242569339998,80.55555555555556,0.9999999999875862,1.0601503759398574,1.2861736649938393e-05,0.9979186186957628,0
447,344.125,0.7833333333333599,0.76111111111112,0.7388888888889085,1.0601503759398574,0.03943788192147088,0.9792854103804621,77.77777777777777,0.9655172413673244,1.0300751879699095,1.978866566787474e-05,0.9893323612925735,0
448,344.8861111111111,0.76111111111112,0.7583333333333258,0.7527777777777942,1.0110701107010966,0.039191759731241,0.9731739292785374,83.33333333333333,1.0344827586078478,1.007380073800706,1.9114220776828006e-05,0.9976864256228466,0
449,345.64444444444445,0.7583333333333258,0.7527777777777942,0.7597222222222229,0.9981718464350897,0.040189448856683685,0.9979476330638148,80.55555555555556,0.9999999999875862,0.9908592321755235,1.2202552170492709e-05,0.9965568012417408,0
450,346.39722222222224,0.7527777777777942,0.7638888888888573,0.7597222222222229,0.9908592321755235,0.03935962043059671,0.9773420926241916,77.77777777777777,0.9655172413673244,1.005484460694656,7.578614713565912e-06,0.9967294699312912,0
451,347.1611111111111,0.7638888888888573,0.7861111111110972,0.7624999999999886,1.0018214936247458,0.0394497376619857,0.9795798012845817,80.55555555555556,0.9999999999875862,1.0309653916211265,1.2117064215999562e-05,0.9984081409115942,0
452,347.9472222222222,0.7861111111110972,0.7833333333333599,0.7680555555555202,1.023508137432217,0.04125924071935193,1.0245117260681198,80.55555555555556,0.9999999999875862,1.0198915009042406,8.401436389249284e-06,0.9986230486959399,0
453,348.73055555555555,0.7833333333333599,0.7861111111110972,0.7777777777777715,1.0071428571428995,0.04016254340771491,0.9972795415652065,83.33333333333333,1.0344827586078478,1.0107142857142761,2.29794950428186e-05,0.997293909175361,0
454,349.51666666666665,0.7861111111110972,0.7638888888889142,0.7833333333333599,1.0035460992907284,0.03916127135673256,0.9724168698501995,83.33333333333333,1.0344827586078478,0.9751773049645382,3.308843224658631e-05,0.9932742050407576,0
455,350.28055555555557,0.7638888888889142,0.7583333333333258,0.773611111111137,0.9874326750448829,0.03892357522185816,0.9665146168476213,80.55555555555556,0.9999999999875862,0.9802513464990598,7.112293133104686e-06,0.9987763805845613,0
456,351.0388888888889,0.7583333333333258,0.76111111111112,0.7638888888888857,0.9927272727272669,0.0400376614612983,0.9941785873002381,77.77777777777777,0.9655172413673244,0.9963636363636521,4.027566319564357e-06,0.9995213353082739,0
457,351.8,0.76111111111112,0.73888888888888,0.7624999999999886,0.9981785063752542,0.04067729839151005,1.0100614664808234,80.55555555555556,0.9999999999875862,0.9690346083788736,7.632228516740724e-06,0.998176116323886,0
458,352.5388888888889,0.73888888888888,0.73888888888888,0.7624999999999886,0.9690346083788736,0.04053620965054651,1.0065580799178822,75.0,0.9310344827470629,0.9690346083788736,2.4144226699718274e-05,0.9880194164254601,0
459,353.27777777777777,0.73888888888888,0.7805555555555657,0.7624999999999886,0.9690346083788736,0.03879728648276112,0.9633787303935939,75.0,0.9310344827470629,1.0236794171220687,6.2835415519657545e-06,0.9972744715035106,0
460,354.05833333333334,0.7805555555555657,0.8083333333333371,0.7638888888888857,1.0218181818181993,0.04147576090753075,1.0298881573318108,86.11111111111111,1.0689655172281094,1.0581818181818274,7.927135447971523e-05,0.9981624713942208,0
461,354.8666666666667,0.8083333333333371,0.7805555555555657,0.7722222222222399,1.0467625899280384,0.04123533940859292,1.0239182305816767,86.11111111111111,1.0689655172281094,1.0107913669064648,2.1689742425223812e-05,0.9991982527180491,0
462,355.64722222222224,0.7805555555555657,0.7694444444444457,0.7722222222222399,1.0107913669064648,0.03798276875417989,0.9431533711898691,69.44444444444444,0.8620689655065398,0.9964028776978205,6.13799727489095e-07,0.9967358539706179,0
463,356.4166666666667,0.7694444444444457,0.7444444444444116,0.7666666666666799,1.0036231884057814,0.03949282109778481,0.9806496097542947,77.77777777777777,0.9655172413673244,0.9710144927535636,3.6547899071592838e-06,0.9974800610574244,0
464,357.1611111111111,0.7444444444444116,0.73888888888888,0.762500000000017,0.976320582877895,0.0408333397594763,1.0139361430004559,77.77777777777777,0.9655172413673244,0.9690346083788374,5.83208748139441e-06,0.9982792971410243,0
465,357.9,0.73888888888888,0.7305555555555543,0.7597222222222229,0.9725776965264957,0.039427212942073755,0.9790204880428971,77.77777777777777,0.9655172413673244,0.9616087751371091,4.487291789700976e-06,0.9991136601790478,0
466,358.63055555555553,0.7305555555555543,0.7638888888889142,0.7527777777777658,0.9704797047970618,0.03722026944959421,0.9242196859099939,69.44444444444444,0.8620689655065398,1.0147601476015258,2.2118967990536476e-06,0.9954904747522817,0
467,359.39444444444445,0.7638888888889142,0.8027777777777487,0.7541666666666629,1.0128913443830956,0.04056656038207373,1.0073117215216114,80.55555555555556,0.9999999999875862,1.0644567219152523,1.611051629879512e-05,0.9997210510427574,0
468,360.1972222222222,0.8027777777777487,0.7916666666666856,0.7666666666666799,1.0471014492753064,0.04084823625268772,1.014306039094187,83.33333333333333,1.0344827586078478,1.0326086956521807,1.3085036698612384e-05,0.9994793417621445,0
469,360.9888888888889,0.7916666666666856,0.76111111111112,0.7750000000000057,1.0215053763441029,0.04038146465005215,1.0027155936095355,80.55555555555556,0.9999999999875862,0.9820788530465991,4.780214112543035e-06,0.9990086116387484,0
470,361.75,0.76111111111112,0.76111111111112,0.7666666666666799,0.9927536231884001,0.040851029405651225,1.0143753961137034,77.77777777777777,0.9655172413673244,0.9927536231884001,4.23684696215787e-06,0.9993238928272117,0
471,362.5111111111111,0.76111111111112,0.7777777777777715,0.762500000000017,0.998178506375217,0.041745313470605325,1.0365814400206532,102.77777777777777,1.2758620689496787,1.0200364298724645,0.006935346405953169,0.9943644759155618,0
472,363.2888888888889,0.7777777777777715,0.7527777777777942,0.762500000000017,1.0200364298724645,0.040918572619324314,1.0160525674144334,80.55555555555556,0.9999999999875862,0.9872495446265933,6.3615329963795375e-06,0.9986093243142451,0
473,364.0416666666667,0.7527777777777942,0.7138888888888459,0.76111111111112,0.989051094890521,0.039776708332963456,0.9876988379090234,75.0,0.9310344827470629,0.9379562043794947,1.8471509974915534e-06,0.9984575001935254,0
474,364.75555555555553,0.7138888888888459,0.7722222222222399,0.76111111111112,0.9379562043794947,0.03750493513600949,0.9312882438537881,86.11111111111111,1.0689655172281094,1.014598540145997,0.00022878397430758923,0.9953841061377989,0
475,365.52777777777777,0.7722222222222399,0.8000000000000114,0.762500000000017,1.0127504553734068,0.04061145366004333,1.008426470336655,77.77777777777777,0.9655172413673244,1.0491803278688439,6.994913292146521e-06,0.9986178036408617,0
476,366.3277777777778,0.8000000000000114,0.7972222222222172,0.768055555555577,1.0415913200723184,0.038941365754544155,0.9669563750824317,72.22222222222223,0.8965517241268014,1.0379746835442683,1.7296536043431843e-06,0.9946592150749369,0
477,367.125,0.7972222222222172,0.7833333333333599,0.7750000000000057,1.0286738351254339,0.04107245257019212,1.0198735736017068,86.11111111111111,1.0689655172281094,1.0107526881720699,2.950153429992497e-05,0.9986284918229048,0
478,367.90833333333336,0.7833333333333599,0.7722222222221831,0.7750000000000057,1.0107526881720699,0.04019214964151058,0.9980146964822515,77.77777777777777,0.9655172413673244,0.9964157706092611,2.86040221908479e-06,0.9990869917137561,0
479,368.68055555555554,0.7722222222221831,0.7416666666666742,0.7722222222222115,0.9999999999999631,0.04112504596640339,1.021179524709695,86.11111111111111,1.0689655172281094,0.9604316546762821,4.099207581020892e-05,0.9970791040641571,0
480,369.4222222222222,0.7416666666666742,0.7472222222222058,0.7722222222222115,0.9604316546762821,0.039914197067199994,0.991112832397815,77.77777777777777,0.9655172413673244,0.9676258992805677,5.4529905355593655e-06,0.9994213492772731,0
481,370.1694444444444,0.7472222222222058,0.7555555555555884,0.7722222222222115,0.9676258992805677,0.037888236591281946,0.9408060349885486,72.22222222222223,0.8965517241268014,0.9784172661871064,3.195131284883246e-06,0.9945050045867321,0
482,370.925,0.7555555555555884,0.7777777777777715,0.7638888888888857,0.9890909090909562,0.04001598847747769,0.9936404235900979,80.55555555555556,0.9999999999875862,1.018181818181814,1.1565045497263782e-05,0.9990454330027001,0
483,371.7027777777778,0.7777777777777715,0.8027777777777487,0.7722222222222115,1.0071942446043223,0.04094421685456058,1.0166893416072575,80.55555555555556,0.9999999999875862,1.039568345323718,1.1561141946003772e-05,0.9994444988919557,0
484,372.50555555555553,0.8027777777777487,0.7888888888888914,0.7750000000000057,1.0358422939067649,0.04102466256195629,1.0186868958303068,83.33333333333333,1.0344827586078478,1.0179211469534009,1.0954438948829193e-05,0.9997156463095717,0
485,373.2944444444444,0.7888888888888914,0.7694444444444457,0.7805555555555657,1.01067615658362,0.04050889890355046,1.0058799244293832,80.55555555555556,0.9999999999875862,0.985765124555149,6.274295628827531e-06,0.9986373029294573,0
486,374.06388888888887,0.7694444444444457,0.7750000000000341,0.7749999999999773,0.9928315412186688,0.03938018974001358,0.9778528509010598,80.55555555555556,0.9999999999875862,1.0000000000000733,9.308353583037388e-06,0.9981252017326783,0
487,374.8388888888889,0.7750000000000341,0.7694444444444457,0.7736111111111086,1.0017953321364925,0.04004507643528567,0.9943627091518791,83.33333333333333,1.0344827586078478,0.9946140035906692,1.4271410691435449e-05,0.9991395712331712,0
488,375.60833333333335,0.7694444444444457,0.7583333333333258,0.7708333333333144,0.9981981981982244,0.04070967717674824,1.01086546685926,80.55555555555556,0.9999999999875862,0.9837837837837982,6.802144071116345e-06,0.9993092248503397,0
489,376.3666666666667,0.7583333333333258,0.7555555555555316,0.7694444444444457,0.9855595667869922,0.03907571900598506,0.9702925121304415,75.0,0.9310344827470629,0.9819494584837217,2.0223544652253622e-06,0.9990361570079684,0
490,377.1222222222222,0.7555555555555316,0.7861111111111541,0.7694444444444457,0.9819494584837217,0.04096706015252913,1.0172565654878432,77.77777777777777,0.9655172413673244,1.0216606498195486,6.530676728289109e-06,0.9995808792367298,0
491,377.90833333333336,0.7861111111111541,0.8194444444444002,0.7722222222222399,1.0179856115108237,0.04077305835592963,1.0124392903264694,83.33333333333333,1.0344827586078478,1.061151079136609,2.9055441700620577e-05,0.9995320261284146,0
492,378.72777777777776,0.8194444444444002,0.8166666666666629,0.7763888888889028,1.0554561717351656,0.041617571420348366,1.033409466273234,88.88888888888889,1.1034482758483708,1.0518783542039118,8.405870175920427e-05,0.9983286152470656,0
493,379.5444444444444,0.8166666666666629,0.7888888888888914,0.7805555555555941,1.046263345195673,0.03956471476479979,0.9824348075330879,77.77777777777777,0.9655172413673244,1.0106761565835833,1.643432597120409e-06,0.9995301288923062,0
494,380.3333333333333,0.7888888888888914,0.7555555555555884,0.7805555555555941,1.0106761565835833,0.03973540219733225,0.9866731617313984,75.0,0.9310344827470629,0.9679715302491047,1.3448983509078971e-06,0.9983249633816396,0
495,381.0888888888889,0.7555555555555884,0.7638888888888573,0.7722222222222399,0.9784172661870705,0.041529238438385296,1.0312160624625506,83.33333333333333,1.0344827586078478,0.9892086330934616,2.227586264780257e-05,0.9995002270599166,0
496,381.85277777777776,0.7638888888888573,0.75,0.7722222222222399,0.9892086330934616,0.040135737408395065,0.9966139195093145,77.77777777777777,0.9655172413673244,0.9712230215827116,3.246499545639381e-06,0.9996647532141719,0
497,382.60277777777776,0.75,0.7722222222222399,0.7666666666666515,0.9782608695652367,0.036949860498728185,0.9175051381828448,66.66666666666667,0.8275862068862783,1.007246376811637,7.968437785166316e-07,0.9955762471288974,0
498,383.375,0.7722222222222399,0.8277777777777828,0.7680555555555486,1.0054249547920755,0.04150557541677966,1.030628483954403,88.88888888888889,1.1034482758483708,1.0777576853526385,0.00024349484010599554,0.9984775636928509,0
499,384.2027777777778,0.8277777777777828,0.8194444444444571,0.779166666666697,1.0623885918003217,0.04135245585369415,1.0268263590210194,80.55555555555556,0.9999999999875862,1.0516934046345563,6.597997980861692e-06,0.9991143498889293,0
500,385.02222222222224,0.8194444444444571,0.7916666666666288,0.7875000000000227,1.0405643738976933,0.04423104306783537,1.0983048037034535,86.11111111111111,1.0689655172281094,1.005291005290928,9.254459291696548e-05,0.9933782446169719,0
501,385.81388888888887,0.7916666666666288,0.8027777777778056,0.7902777777777601,1.0017574692442628,0.03820975610046114,0.9487897133493395,77.77777777777777,0.9655172413673244,1.015817223198652,1.619996692170389e-05,0.99026443289297,0
502,386.6166666666667,0.8027777777778056,0.8027777777777487,0.7902777777777601,1.015817223198652,0.04133802536137836,1.0264680342352814,91.66666666666667,1.1379310344686326,1.01581722319858,0.0002918743994086981,0.996112750695384,0
503,387.4194444444444,0.8027777777777487,0.7750000000000341,0.7902777777777601,1.01581722319858,0.0402949558732864,1.0005674867937273,75.0,0.9310344827470629,0.9806678383128946,1.6670475133651053e-06,0.9971897657312802,0
504,388.19444444444446,0.7750000000000341,0.7555555555555316,0.7833333333333314,0.9893617021277055,0.04157446119887693,1.0323389926862063,83.33333333333333,1.0344827586078478,0.9645390070921703,1.9436931324889883e-05,0.9983705707006905,0
505,388.95,0.7555555555555316,0.8055555555555429,0.7833333333333314,0.9645390070921703,0.04067615732164944,1.0100331324777716,83.33333333333333,1.0344827586078478,1.0283687943262274,4.240123234922066e-05,0.9996888629560872,0
506,389.75555555555553,0.8055555555555429,0.8166666666666629,0.7972222222221887,1.0104529616725004,0.04138435324318956,1.0276184058206996,83.33333333333333,1.0344827586078478,1.0243902439024772,1.839034302975051e-05,0.9995117636918511,0
507,390.5722222222222,0.8166666666666629,0.8388888888889028,0.8027777777777771,1.0173010380622798,0.03913707977692035,0.9718161666681341,80.55555555555556,0.9999999999875862,1.044982698961956,7.355414709309116e-06,0.9994937958706274,0
508,391.4111111111111,0.8388888888889028,0.8166666666666629,0.8041666666666742,1.0431778929188331,0.039279035230148425,0.9753410746372538,80.55555555555556,0.9999999999875862,1.0155440414507628,4.5110195969755296e-06,0.9979191625411494,0
509,392.22777777777776,0.8166666666666629,0.7888888888888914,0.8041666666666742,1.0155440414507628,0.03962730164140061,0.9839889076051584,75.0,0.9310344827470629,0.9810017271157107,9.712205155665288e-07,0.9992141807645198,0
510,393.01666666666665,0.7888888888888914,0.7750000000000341,0.8027777777777771,0.9826989619377202,0.03925781371403761,0.9748141213603294,72.22222222222223,0.8965517241268014,0.9653979238754757,8.400374440498126e-07,0.99908561510481,0
511,393.7916666666667,0.7750000000000341,0.783333333333303,0.8027777777777771,0.9653979238754757,0.04049800198476471,1.005609342109414,77.77777777777777,0.9655172413673244,0.9757785467127658,4.726857696368825e-06,0.999692645136113,0
512,394.575,0.783333333333303,0.7944444444444798,0.7958333333333201,0.9842931937172558,0.03800846704002747,0.9437914875180338,69.44444444444444,0.8620689655065398,0.9982547993019808,8.676830134390912e-07,0.9960924444907653,0
513,395.36944444444447,0.7944444444444798,0.8388888888888459,0.7916666666666856,1.0035087719298452,0.03966327796374558,0.9848822387343942,83.33333333333333,1.0344827586078478,1.059649122806938,2.9255517802084796e-05,0.999662528221094,0
514,396.2083333333333,0.8388888888888459,0.8194444444444571,0.8000000000000114,1.0486111111110425,0.041198664475456656,1.0230075521882849,83.33333333333333,1.0344827586078478,1.0243055555555567,1.18682837637607e-05,0.9983120561292806,0
515,397.02777777777777,0.8194444444444571,0.8111111111111313,0.8111111111111029,1.0102739726027656,0.04085048842748741,1.0143619630387677,80.55555555555556,0.9999999999875862,1.000000000000035,6.067278718546731e-06,0.9995519912221444,0
516,397.8388888888889,0.8111111111111313,0.8138888888888687,0.8138888888888971,0.9965870307167384,0.04004242834189847,0.9942969541190767,86.11111111111111,1.0689655172281094,0.999999999999965,3.364157964824699e-05,0.9995984584299451,0
517,398.65277777777777,0.8138888888888687,0.8055555555555429,0.8125,1.0017094017093768,0.0405050558441704,1.005784497094071,80.55555555555556,0.9999999999875862,0.9914529914529759,6.370810297084972e-06,0.9993790829478526,0
