beat_index,peak_time_s,rr_prev_s,rr_next_s,rr_baseline_s,prematurity_index,aa_ratio,morph_index,qrs_width_ms,width_index,pause_index,pvc_score,morphology_score,is_pvc_candidate
0,0.21388888888888888,,0.8138888888888888,0.7972222222222172,,0.01824840912990471,0.7584243088013087,33.333333333333336,0.923076923051361,1.020905923344954,0.0,0.9935509447380158,0
1,1.0277777777777777,0.8138888888888888,0.8138888888888889,0.7972222222222172,1.020905923344954,0.026791611428853012,1.113489358713605,41.666666666666664,1.153846153814201,1.0209059233449542,0.0,0.9963468005236755,0
2,1.8416666666666666,0.8138888888888889,0.788888888888889,0.7972222222222172,1.0209059233449542,0.01801999161636624,0.7489310212719518,33.333333333333336,0.923076923051361,0.9895470383275325,0.0,0.9925316150199271,0
3,2.6305555555555555,0.788888888888889,0.7888888888888888,0.7972222222222172,0.9895470383275325,0.018767975046870913,0.7800180498582241,33.333333333333336,0.923076923051361,0.9895470383275322,0.0,0.9895407807434438,0
4,3.4194444444444443,0.7888888888888888,0.7888888888888888,0.7972222222222172,0.9895470383275322,0.023194399783718157,0.9639852163989446,36.111111111111114,0.9999999999723078,0.9895470383275322,0.0,0.9958943048015015,0
5,4.208333333333333,0.7888888888888888,0.8166666666666673,0.7972222222222172,0.9895470383275322,0.024240755089552916,1.0074729140902368,36.111111111111114,0.9999999999723078,1.0243902439024464,0.0,0.9993051479139758,0
6,5.025,0.8166666666666673,0.6527777777777777,0.7972222222222172,1.0243902439024464,0.023989669302120573,0.9970375077253532,36.111111111111114,0.9999999999723078,0.818815331010458,0.0,0.9975414013915227,0
7,5.677777777777778,0.6527777777777777,0.9972222222222218,0.7972222222222172,0.818815331010458,0.023687479061967005,0.9844781431043907,36.111111111111114,0.9999999999723078,1.2508710801393803,0.0,0.9965899996409018,0
8,6.675,0.9972222222222218,0.8416666666666668,0.7972222222222172,1.2508710801393803,0.020762391128270517,0.8629082145421637,36.111111111111114,0.9999999999723078,1.0557491289198675,0.0,0.9932565833648443,0
9,7.516666666666667,0.8416666666666668,0.8111111111111109,0.7972222222222172,1.0557491289198675,0.024501152766211662,1.0182953329941253,36.111111111111114,0.9999999999723078,1.0174216027874625,0.0,0.9992043611094276,0
10,8.327777777777778,0.8111111111111109,0.7916666666666661,0.7972222222222172,1.0174216027874625,0.01817526571459311,0.7553843865918621,33.333333333333336,0.923076923051361,0.9930313588850229,0.0,0.9921474093744155,0
11,9.119444444444444,0.7916666666666661,0.7694444444444457,0.7972222222222172,0.9930313588850229,0.01750597124227469,0.7275677591840084,33.333333333333336,0.923076923051361,0.9651567944250948,0.0,0.9922083163283935,0
12,9.88888888888889,0.7694444444444457,0.8416666666666668,0.7972222222222172,0.9651567944250948,0.01794869075075201,0.7459676774902855,33.333333333333336,0.923076923051361,1.0557491289198675,0.0,0.9932389664763883,0
13,10.730555555555556,0.8416666666666668,0.8527777777777779,0.7972222222222172,1.0557491289198675,0.019550919425029404,0.8125580945606208,33.333333333333336,0.923076923051361,1.0696864111498328,0.0,0.9936364318080855,0
14,11.583333333333334,0.8527777777777779,0.8222222222222211,0.7972222222222172,1.0696864111498328,0.025024646187840015,1.040052305540838,36.111111111111114,0.9999999999723078,1.0313588850174267,0.0,0.994552465997717,0
15,12.405555555555555,0.8222222222222211,0.8305555555555557,0.7972222222222172,1.0313588850174267,0.019336752299294782,0.803657069098787,33.333333333333336,0.923076923051361,1.0418118466899022,0.0,0.9944401760292207,0
16,13.23611111111111,0.8305555555555557,0.8194444444444446,0.7972222222222172,1.0418118466899022,0.019857141781670216,0.8252850384559229,36.111111111111114,0.9999999999723078,1.027874564459937,0.0,0.9945766098173671,0
17,14.055555555555555,0.8194444444444446,0.7944444444444443,0.7972222222222172,1.027874564459937,0.02411958423842517,1.0024369178913777,36.111111111111114,0.9999999999723078,0.9965156794425148,0.0,0.9960826024279841,0
18,14.85,0.7944444444444443,0.8000000000000007,0.7972222222222172,0.9965156794425148,0.023110920527429607,0.9605157250696355,36.111111111111114,0.9999999999723078,1.0034843205574986,0.0,0.9936931972319177,0
19,15.65,0.8000000000000007,0.7888888888888896,0.7972222222222172,1.0034843205574986,0.023076338943482745,0.9590784757337921,41.666666666666664,1.153846153814201,0.9895470383275333,0.0,0.9886534496967119,0
20,16.43888888888889,0.7888888888888896,0.8222222222222229,0.7972222222222172,0.9895470383275333,0.02349708194154378,0.9765650256689589,36.111111111111114,0.9999999999723078,1.031358885017429,0.0,0.9941670895332774,0
21,17.261111111111113,0.8222222222222229,0.8694444444444436,0.7972222222222172,1.031358885017429,0.023927639878201068,0.9944594954380026,36.111111111111114,0.9999999999723078,1.0905923344947794,0.0,0.9980398148838439,0
22,18.130555555555556,0.8694444444444436,0.8222222222222229,0.7972222222222172,1.0905923344947794,0.019040308744793913,0.7913365431657903,33.333333333333336,0.923076923051361,1.031358885017429,0.0,0.9946625847717893,0
23,18.95277777777778,0.8222222222222229,0.7861111111111079,0.7972222222222172,1.031358885017429,0.024737510453725946,1.0281186230413184,36.111111111111114,0.9999999999723078,0.9860627177700371,0.0,0.9953432153394944,0
24,19.738888888888887,0.7861111111111079,0.7916666666666679,0.7972222222222172,0.9860627177700371,0.01835324614175901,0.7627814523575706,33.333333333333336,0.923076923051361,0.9930313588850253,0.0,0.994528160077988,0
25,20.530555555555555,0.7916666666666679,0.7750000000000021,0.7972222222222172,0.9930313588850253,0.027849120130436805,1.1574406040161727,41.666666666666664,1.153846153814201,0.9721254355400786,0.0,0.9877448408901135,0
26,21.305555555555557,0.7750000000000021,0.7861111111111079,0.7972222222222172,0.9721254355400786,0.018320212311530724,0.761408529398665,33.333333333333336,0.923076923051361,0.9860627177700371,0.0,0.9930533198945818,0
27,22.091666666666665,0.7861111111111079,0.8111111111111136,0.7972222222222172,0.9860627177700371,0.024018721264447637,0.998244939797397,36.111111111111114,0.9999999999723078,1.017421602787466,0.0,0.999339167169937,0
28,22.90277777777778,0.8111111111111136,0.8166666666666664,0.7972222222222172,1.017421602787466,0.026221439980619116,1.0897923951346604,38.888888888888886,1.0769230768932543,1.0243902439024453,0.0,0.9937162561261788,0
29,23.719444444444445,0.8166666666666664,0.8277777777777757,0.7972222222222172,1.0243902439024453,0.023669533258848543,0.9837322954401305,36.111111111111114,0.9999999999723078,1.038327526132408,0.0,0.9994820187914017,0
30,24.54722222222222,0.8277777777777757,0.844444444444445,0.7972222222222172,1.038327526132408,0.023580430635106366,0.9800290906652387,36.111111111111114,0.9999999999723078,1.0592334494773594,0.0,0.9958207186571202,0
31,25.391666666666666,0.844444444444445,0.8083333333333336,0.7972222222222172,1.0592334494773594,0.02474829937107104,1.0285670225221673,36.111111111111114,0.9999999999723078,1.013937282229972,0.0,0.9950849071288099,0
32,26.2,0.8083333333333336,0.7722222222222221,0.7972222222222172,1.013937282229972,0.021760911871252366,0.9044078542602773,36.111111111111114,0.9999999999723078,0.9686411149825844,0.0,0.9924059766692319,0
33,26.97222222222222,0.7722222222222221,0.8000000000000007,0.7972222222222172,0.9686411149825844,0.023277960137315198,0.9674580782231665,36.111111111111114,0.9999999999723078,1.0034843205574986,0.0,0.9959923121685628,0
34,27.772222222222222,0.8000000000000007,0.7888888888888879,0.7972222222222172,1.0034843205574986,0.02346958475806469,0.9754222119460937,36.111111111111114,0.9999999999723078,0.9895470383275311,0.0,0.9983885772974279,0
35,28.56111111111111,0.7888888888888879,0.8583333333333343,0.7972222222222172,0.9895470383275311,0.02445512934507546,1.016382548097896,36.111111111111114,0.9999999999723078,1.0766550522648164,0.0,0.9982981733445163,0
36,29.419444444444444,0.8583333333333343,0.844444444444445,0.7972222222222172,1.0766550522648164,0.025756714212818943,1.0704778720594181,38.888888888888886,1.0769230768932543,1.0592334494773594,0.0,0.99729692074729,0
37,30.26388888888889,0.844444444444445,0.8222222222222229,0.7972222222222172,1.0592334494773594,0.020351420231008242,0.8458278040540621,36.111111111111114,0.9999999999723078,1.031358885017429,0.0,0.9917156528074613,0
38,31.086111111111112,0.8222222222222229,0.8027777777777771,0.7972222222222172,1.031358885017429,0.023174992952844344,0.9631786467858503,36.111111111111114,0.9999999999723078,1.006968641114988,0.0,0.9946299564190506,0
39,31.88888888888889,0.8027777777777771,0.8361111111111121,0.7972222222222172,1.006968641114988,0.02343036658136207,0.9737922606256036,36.111111111111114,0.9999999999723078,1.048780487804886,0.0,0.997961590192445,0
40,32.725,0.8361111111111121,0.7916666666666643,0.7972222222222172,1.048780487804886,0.019979271264172375,0.8303608764476944,33.333333333333336,0.923076923051361,0.9930313588850207,0.0,0.9942272846968674,0
41,33.516666666666666,0.7916666666666643,0.7888888888888914,0.7972222222222172,0.9930313588850207,0.021961232923921326,0.9127334214276547,33.333333333333336,0.923076923051361,0.9895470383275355,0.0,0.9935706812819799,0
42,34.30555555555556,0.7888888888888914,0.8194444444444429,0.7972222222222172,0.9895470383275355,0.026621900922390692,1.1064360001088225,38.888888888888886,1.0769230768932543,1.0278745644599347,0.0,0.9934879111369539,0
43,35.125,0.8194444444444429,0.8472222222222214,0.7972222222222172,1.0278745644599347,0.019196374970283526,0.7978228301813646,33.333333333333336,0.923076923051361,1.062717770034849,0.0,0.9949346237633521,0
44,35.97222222222222,0.8472222222222214,0.87777777777778,0.7972222222222172,1.062717770034849,0.02085260936419273,0.8666577854079576,36.111111111111114,0.9999999999723078,1.1010452961672572,0.0,0.9931562756310772,0
45,36.85,0.87777777777778,0.8222222222222229,0.7972222222222172,1.1010452961672572,0.02533313757622219,1.0528735529350282,36.111111111111114,0.9999999999723078,1.031358885017429,0.0,0.9886451372552094,0
46,37.672222222222224,0.8222222222222229,0.7777777777777786,0.7972222222222172,1.031358885017429,0.023655715180062258,0.983158000619259,36.111111111111114,0.9999999999723078,0.9756097560975682,0.0,0.9963863928551153,0
47,38.45,0.7777777777777786,0.7999999999999972,0.7972222222222172,0.9756097560975682,0.019132591859976185,0.7951719327248422,33.333333333333336,0.923076923051361,1.0034843205574941,0.0,0.9911572020635221,0
48,39.25,0.7999999999999972,0.81388888888889,0.7972222222222172,1.0034843205574941,0.023885415443267208,0.9927046006605308,36.111111111111114,0.9999999999723078,1.0209059233449556,0.0,0.9975023375582724,0
49,40.06388888888889,0.81388888888889,0.7999999999999972,0.7972222222222172,1.0209059233449556,0.018362348215303317,0.763159744721982,33.333333333333336,0.923076923051361,1.0034843205574941,0.0,0.9916935773568674,0
50,40.86388888888889,0.7999999999999972,0.8333333333333357,0.7972222222222172,1.0034843205574941,0.018785772695418135,0.7807577400526748,33.333333333333336,0.923076923051361,1.0452961672473964,0.0,0.9932297842395175,0
51,41.69722222222222,0.8333333333333357,0.8305555555555557,0.7972222222222172,1.0452961672473964,0.024258462009201884,1.0082088334901236,36.111111111111114,0.9999999999723078,1.0418118466899022,0.0,0.9987640716072055,0
52,42.52777777777778,0.8305555555555557,0.8249999999999957,0.7972222222222172,1.0418118466899022,0.024199844854825646,1.0057726389443291,36.111111111111114,0.9999999999723078,1.0348432055749142,0.0,0.9986166497060514,0
53,43.352777777777774,0.8249999999999957,0.8111111111111171,0.7972222222222172,1.0348432055749142,0.02333347978184456,0.9697655367926958,36.111111111111114,0.9999999999723078,1.0174216027874705,0.0,0.9983029046465126,0
54,44.16388888888889,0.8111111111111171,0.7888888888888843,0.7972222222222172,1.0174216027874705,0.023508383492949574,0.9770347307951595,36.111111111111114,0.9999999999723078,0.9895470383275267,0.0,0.9964665887841971,0
55,44.952777777777776,0.7888888888888843,0.7833333333333385,0.7972222222222172,0.9895470383275267,0.02258206045438557,0.9385357084832182,38.888888888888886,1.0769230768932543,0.9825783972125564,0.0,0.9931592908968125,0
56,45.736111111111114,0.7833333333333385,0.80555555555555,0.7972222222222172,0.9825783972125564,0.020980490852488272,0.8719726831986965,36.111111111111114,0.9999999999723078,1.0104529616724733,0.0,0.992667829704623,0
57,46.541666666666664,0.80555555555555,0.8416666666666686,0.7972222222222172,1.0104529616724733,0.02421056264298742,1.0062180822167048,36.111111111111114,0.9999999999723078,1.0557491289198697,0.0,0.9966192480266287,0
58,47.38333333333333,0.8416666666666686,0.8333333333333357,0.7972222222222172,1.0557491289198697,0.02397513607409496,0.9964334905016318,36.111111111111114,0.9999999999723078,1.0452961672473964,0.0,0.9994488802574442,0
59,48.21666666666667,0.8333333333333357,0.8305555555555557,0.7972222222222172,1.0452961672473964,0.023884207258854085,0.992654387164006,36.111111111111114,0.9999999999723078,1.0418118466899022,0.0,0.998679988653011,0
60,49.047222222222224,0.8305555555555557,0.80555555555555,0.7972222222222172,1.0418118466899022,0.02720804833839126,1.1307969427899793,44.44444444444444,1.2307692307351479,1.0104529616724733,0.0,0.9909508067581343,0
61,49.852777777777774,0.80555555555555,0.7777777777777786,0.7972222222222172,1.0104529616724733,0.018064152245114255,0.750766386431513,33.333333333333336,0.923076923051361,0.9756097560975682,0.0,0.9937555227238344,0
62,50.63055555555555,0.7777777777777786,0.7972222222222243,0.7972222222222172,0.9756097560975682,0.025535923348892826,1.0613015566244253,38.888888888888886,1.0769230768932543,1.0000000000000089,0.0,0.9961728241434286,0
63,51.42777777777778,0.7972222222222243,0.7833333333333314,0.7972222222222172,1.0000000000000089,0.019722937805943527,0.8197073710108137,36.111111111111114,0.9999999999723078,0.9825783972125474,0.0,0.9948653638327839,0
64,52.21111111111111,0.7833333333333314,0.7916666666666714,0.7972222222222172,0.9825783972125474,0.020949030993429634,0.8706651762433404,36.111111111111114,0.9999999999723078,0.9930313588850297,0.0,0.988964527590384,0
65,53.00277777777778,0.7916666666666714,0.8527777777777743,0.7972222222222172,0.9930313588850297,0.019350863992718695,0.8042435668726399,33.333333333333336,0.923076923051361,1.069686411149828,0.0,0.993441233825231,0
66,53.855555555555554,0.8527777777777743,0.8472222222222214,0.7972222222222172,1.069686411149828,0.024938517485742905,1.0364727002782121,36.111111111111114,0.9999999999723078,1.062717770034849,0.0,0.9976712315513928,0
67,54.702777777777776,0.8472222222222214,0.8222222222222229,0.7972222222222172,1.062717770034849,0.026384384368304502,1.096564546269787,38.888888888888886,1.0769230768932543,1.031358885017429,0.0,0.9954835374440922,0
68,55.525,0.8222222222222229,0.7861111111111114,0.7972222222222172,1.031358885017429,0.02377156719551082,0.9879729400539423,36.111111111111114,0.9999999999723078,0.9860627177700415,0.0,0.9943450870172277,0
69,56.31111111111111,0.7861111111111114,0.7833333333333314,0.7972222222222172,0.9860627177700415,0.018119953995295177,0.7530855696276808,33.333333333333336,0.923076923051361,0.9825783972125474,0.0,0.9917847948337248,0
70,57.09444444444444,0.7833333333333314,0.7888888888888914,0.7972222222222172,0.9825783972125474,0.024108084193094348,1.0019589631354795,36.111111111111114,0.9999999999723078,0.9895470383275355,0.0,0.996678065923418,0
71,57.88333333333333,0.7888888888888914,0.81388888888889,0.7972222222222172,0.9895470383275355,0.01888817455436855,0.7850136759285954,33.333333333333336,0.923076923051361,1.0209059233449556,0.0,0.9937496346348068,0
72,58.69722222222222,0.81388888888889,0.81111111111111,0.7972222222222172,1.0209059233449556,0.02373771050507857,0.9865658181039364,36.111111111111114,0.9999999999723078,1.0174216027874614,0.0,0.9943752009371395,0
73,59.50833333333333,0.81111111111111,0.8500000000000014,0.7972222222222172,1.0174216027874614,0.0250283042491339,1.0402043386626634,36.111111111111114,0.9999999999723078,1.066202090592343,0.0,0.9947670739166669,0
74,60.358333333333334,0.8500000000000014,0.8361111111111086,0.7972222222222172,1.066202090592343,0.01838356266023085,0.7640414407984032,33.333333333333336,0.923076923051361,1.0487804878048814,0.0,0.9938887369703673,0
75,61.19444444444444,0.8361111111111086,0.8083333333333371,0.7972222222222172,1.0487804878048814,0.019015562898488426,0.7903080780954195,33.333333333333336,0.923076923051361,1.0139372822299764,0.0,0.9923158268344564,0
76,62.00277777777778,0.8083333333333371,0.7833333333333314,0.7972222222222172,1.0139372822299764,0.017685140340022026,0.735014227429555,33.333333333333336,0.923076923051361,0.9825783972125474,0.0,0.9931839377259393,0
77,62.78611111111111,0.7833333333333314,0.7722222222222186,0.7972222222222172,0.9825783972125474,0.017903184473138024,0.7440763856576759,33.333333333333336,0.923076923051361,0.96864111498258,0.0,0.9928916397616212,0
78,63.55833333333333,0.7722222222222186,0.7861111111111185,0.7972222222222172,0.96864111498258,0.01793356660427578,0.7453391010343441,33.333333333333336,0.923076923051361,0.9860627177700504,0.0,0.9902571826825404,0
79,64.34444444444445,0.7861111111111185,0.8055555555555571,0.7972222222222172,0.9860627177700504,0.0175696803287699,0.7302155801280441,33.333333333333336,0.923076923051361,1.0104529616724822,0.0,0.9923930753188388,0
80,65.15,0.8055555555555571,0.8388888888888886,0.7972222222222172,1.0104529616724822,0.01947050379709647,0.8092159310548764,33.333333333333336,0.923076923051361,1.0522648083623756,0.0,0.9947402082804346,0
81,65.9888888888889,0.8388888888888886,0.8249999999999886,0.7972222222222172,1.0522648083623756,0.024162892409211184,1.0042368539438855,36.111111111111114,0.9999999999723078,1.0348432055749053,0.0,0.9981265952263921,0
82,66.81388888888888,0.8249999999999886,0.8111111111111171,0.7972222222222172,1.0348432055749053,0.02523703358046517,1.0488793633025952,38.888888888888886,1.0769230768932543,1.0174216027874705,0.0,0.9988894082976585,0
83,67.625,0.8111111111111171,0.7777777777777715,0.7972222222222172,1.0174216027874705,0.022715586600369438,0.9440852045655239,36.111111111111114,0.9999999999723078,0.9756097560975593,0.0,0.9931504813528026,0
84,68.40277777777777,0.7777777777777715,0.8000000000000114,0.7972222222222172,0.9756097560975593,0.023310304833321253,0.9688023599924513,36.111111111111114,0.9999999999723078,1.003484320557512,0.0,0.9950490948485391,0
85,69.20277777777778,0.8000000000000114,0.7888888888888772,0.7972222222222172,1.003484320557512,0.02678424092946986,1.1131830325094743,41.666666666666664,1.153846153814201,0.9895470383275178,0.0,0.9935010772716784,0
86,69.99166666666666,0.7888888888888772,0.8000000000000114,0.7972222222222172,0.9895470383275178,0.023216348309657058,0.9648974217038521,36.111111111111114,0.9999999999723078,1.003484320557512,0.0,0.9951998916673097,0
87,70.79166666666667,0.8000000000000114,0.8194444444444429,0.7972222222222172,1.003484320557512,0.024198829219017524,1.005730427983347,36.111111111111114,0.9999999999723078,1.0278745644599347,0.0,0.9993869415376511,0
88,71.61111111111111,0.8194444444444429,0.8583333333333343,0.7972222222222172,1.0278745644599347,0.021382871069871648,0.8886960554155217,38.888888888888886,1.0769230768932543,1.0766550522648164,0.0,0.9931075741357429,0
89,72.46944444444445,0.8583333333333343,0.8277777777777686,0.7972222222222172,1.0766550522648164,0.02081938385056761,0.8652768958725293,36.111111111111114,0.9999999999723078,1.0383275261323992,0.0,0.9866417432427934,0
90,73.29722222222222,0.8277777777777686,0.7861111111111114,0.7972222222222172,1.0383275261323992,0.019138260493537253,0.7954075274805164,33.333333333333336,0.923076923051361,0.9860627177700415,0.0,0.9939512942570462,0
91,74.08333333333333,0.7861111111111114,0.7833333333333314,0.7972222222222172,0.9860627177700415,0.02352300638293709,0.9776424744703758,36.111111111111114,0.9999999999723078,0.9825783972125474,0.0,0.9938302435254844,0
92,74.86666666666666,0.7833333333333314,0.7916666666666714,0.7972222222222172,0.9825783972125474,0.023990019865955645,0.9970520775507232,33.333333333333336,0.923076923051361,0.9930313588850297,0.0,0.9978756047565692,0
93,75.65833333333333,0.7916666666666714,0.8305555555555628,0.7972222222222172,0.9930313588850297,0.024391237725588936,1.013727140878433,36.111111111111114,0.9999999999723078,1.0418118466899111,0.0,0.9967984673046892,0
94,76.4888888888889,0.8305555555555628,0.8249999999999886,0.7972222222222172,1.0418118466899111,0.0223607225518051,0.9293366575094526,36.111111111111114,0.9999999999723078,1.0348432055749053,0.0,0.9947613319511288,0
95,77.31388888888888,0.8249999999999886,0.8305555555555628,0.7972222222222172,1.0348432055749053,0.02197293044203463,0.9132195833734231,38.888888888888886,1.0769230768932543,1.0418118466899111,0.0,0.9932244043862677,0
96,78.14444444444445,0.8305555555555628,0.8305555555555486,0.7972222222222172,1.0418118466899111,0.02546373304777029,1.0583012469074926,38.888888888888886,1.0769230768932543,1.0418118466898934,0.0,0.994963054683127,0
97,78.975,0.8305555555555486,0.8222222222222229,0.7972222222222172,1.0418118466898934,0.025164170633158664,1.0458510976573667,36.111111111111114,0.9999999999723078,1.031358885017429,0.0,0.9990239015820175,0
98,79.79722222222222,0.8222222222222229,0.8000000000000114,0.7972222222222172,1.031358885017429,0.01851220299161101,0.7693878769571085,33.333333333333336,0.923076923051361,1.003484320557512,0.0,0.9932513772807239,0
99,80.59722222222223,0.8000000000000114,0.7749999999999915,0.7972222222222172,1.003484320557512,0.02015496738830076,0.8376630040223536,36.111111111111114,0.9999999999723078,0.9721254355400651,0.0,0.9872275095707381,0
100,81.37222222222222,0.7749999999999915,0.7944444444444514,0.7972222222222172,0.9721254355400651,0.01801564532673243,0.7487503846099882,33.333333333333336,0.923076923051361,0.9965156794425237,0.0,0.9937672574449465,0
101,82.16666666666667,0.7944444444444514,0.8138888888888829,0.7972222222222172,0.9965156794425237,0.025987727269278924,1.0800790332577728,41.666666666666664,1.153846153814201,1.0209059233449467,0.0,0.995387083342743,0
102,82.98055555555555,0.8138888888888829,0.8583333333333343,0.7972222222222172,1.0209059233449467,0.02512417535174583,1.0441888489953102,38.888888888888886,1.0769230768932543,1.0766550522648164,0.0,0.9965250876594993,0
103,83.83888888888889,0.8583333333333343,0.8472222222222285,0.7972222222222172,1.0766550522648164,0.0244189012576577,1.0148768682348783,36.111111111111114,0.9999999999723078,1.0627177700348578,0.0,0.9997218077869958,0
104,84.68611111111112,0.8472222222222285,0.8111111111111029,0.7972222222222172,1.0627177700348578,0.024121533234657343,1.0025179203562893,36.111111111111114,0.9999999999723078,1.0174216027874525,0.0,0.9996926713564771,0
105,85.49722222222222,0.8111111111111029,0.7944444444444514,0.7972222222222172,1.0174216027874525,0.02302995035020663,0.9571505138746925,36.111111111111114,0.9999999999723078,0.9965156794425237,0.0,0.9928197539745645,0
106,86.29166666666667,0.7944444444444514,0.7861111111111114,0.7972222222222172,0.9965156794425237,0.018008243635673507,0.7484427620448998,33.333333333333336,0.923076923051361,0.9860627177700415,0.0,0.9937878069318741,0
107,87.07777777777778,0.7861111111111114,0.7972222222222172,0.7972222222222172,0.9860627177700415,0.023613882354578057,0.9814193815688417,36.111111111111114,0.9999999999723078,1.0,0.0,0.9949627581899314,0
108,87.875,0.7972222222222172,0.8138888888888829,0.7972222222222172,1.0,0.025846504265259695,1.0742096471404587,38.888888888888886,1.0769230768932543,1.0209059233449467,0.0,0.9954827479769208,0
109,88.68888888888888,0.8138888888888829,0.8222222222222229,0.7972222222222172,1.0209059233449467,0.02085216362422768,0.8666392599560954,38.888888888888886,1.0769230768932543,1.031358885017429,0.0,0.9921534182768832,0
110,89.5111111111111,0.8222222222222229,0.8472222222222285,0.7972222222222172,1.031358885017429,0.02575292038301143,1.0703201962462012,38.888888888888886,1.0769230768932543,1.0627177700348578,0.0,0.9963538049358986,0
111,90.35833333333333,0.8472222222222285,0.8527777777777743,0.7972222222222172,1.0627177700348578,0.02716647197623935,1.1290689826427103,41.666666666666664,1.153846153814201,1.069686411149828,0.0,0.9891811596590969,0
112,91.21111111111111,0.8527777777777743,0.8083333333333371,0.7972222222222172,1.069686411149828,0.024588582841228224,1.0219290247719044,36.111111111111114,0.9999999999723078,1.0139372822299764,0.0,0.9970897340163034,0
113,92.01944444444445,0.8083333333333371,0.7666666666666657,0.7972222222222172,1.0139372822299764,0.025572588927263027,1.0628254191011084,38.888888888888886,1.0769230768932543,0.9616724738676007,0.0,0.996458130279195,0
114,92.78611111111111,0.7666666666666657,0.7999999999999972,0.7972222222222172,0.9616724738676007,0.02298304175258302,0.9552009400528724,33.333333333333336,0.923076923051361,1.0034843205574941,0.0,0.993091637515559,0
115,93.58611111111111,0.7999999999999972,0.8027777777777771,0.7972222222222172,1.0034843205574941,0.02559020682114634,1.0635576384905283,38.888888888888886,1.0769230768932543,1.006968641114988,0.0,0.9965021879498257,0
116,94.38888888888889,0.8027777777777771,0.8166666666666629,0.7972222222222172,1.006968641114988,0.024988249581086405,1.0385396218255993,36.111111111111114,0.9999999999723078,1.0243902439024408,0.0,0.9920716374362537,0
117,95.20555555555555,0.8166666666666629,0.8361111111111228,0.7972222222222172,1.0243902439024408,0.024826177223643758,1.0318037132434204,38.888888888888886,1.0769230768932543,1.0487804878048994,0.0,0.9986753222641889,0
118,96.04166666666667,0.8361111111111228,0.8194444444444429,0.7972222222222172,1.0487804878048994,0.02528917955810515,1.0510466085000716,36.111111111111114,0.9999999999723078,1.0278745644599347,0.0,0.9994124781250631,0
119,96.86111111111111,0.8194444444444429,0.8277777777777686,0.7972222222222172,1.0278745644599347,0.02397610519035178,0.9964737680579927,36.111111111111114,0.9999999999723078,1.0383275261323992,0.0,0.9968550405713841,0
120,97.68888888888888,0.8277777777777686,0.7972222222222314,0.7972222222222172,1.0383275261323992,0.02339503817836384,0.9723239726540743,36.111111111111114,0.9999999999723078,1.0000000000000178,0.0,0.9984222354203438,0
121,98.48611111111111,0.7972222222222314,0.7805555555555515,0.7972222222222172,1.0000000000000178,0.022959424143062703,0.9542193657661237,36.111111111111114,0.9999999999723078,0.9790940766550533,0.0,0.9962439606640239,0
122,99.26666666666667,0.7805555555555515,0.7777777777777857,0.7972222222222172,0.9790940766550533,0.023873170637299483,0.9921956928189557,36.111111111111114,0.9999999999723078,0.975609756097577,0.0,0.9955321808186974,0
123,100.04444444444445,0.7777777777777857,0.8166666666666629,0.7972222222222172,0.975609756097577,0.02343219628654196,0.9738683052208607,36.111111111111114,0.9999999999723078,1.0243902439024408,0.0,0.9964658242988808,0
124,100.86111111111111,0.8166666666666629,0.8194444444444429,0.7972222222222172,1.0243902439024408,0.022043694262187455,0.916160606944601,38.888888888888886,1.0769230768932543,1.0278745644599347,0.0,0.9898259703935195,0
125,101.68055555555556,0.8194444444444429,0.8638888888888943,0.7972222222222172,1.0278745644599347,0.019850331112490956,0.8250019794216814,33.333333333333336,0.923076923051361,1.0836236933798045,0.0,0.9951778782712724,0
126,102.54444444444445,0.8638888888888943,0.8305555555555486,0.7972222222222172,1.0836236933798045,0.024947122639839902,1.0368303401141938,36.111111111111114,0.9999999999723078,1.0418118466898934,0.0,0.9991165586149797,0
127,103.375,0.8305555555555486,0.7888888888888914,0.7972222222222172,1.0418118466898934,0.023220604362257903,0.9650743080137237,36.111111111111114,0.9999999999723078,0.9895470383275355,0.0,0.9992191190447457,0
128,104.16388888888889,0.7888888888888914,0.7861111111111114,0.7972222222222172,0.9895470383275355,0.022641847947413335,0.9410205436133249,33.333333333333336,0.923076923051361,0.9860627177700415,0.0,0.9963710246545223,0
129,104.95,0.7861111111111114,0.8027777777777771,0.7972222222222172,0.9860627177700415,0.023095700103151935,0.9598831472005028,36.111111111111114,0.9999999999723078,1.006968641114988,0.0,0.995734293168481,0
130,105.75277777777778,0.8027777777777771,0.7916666666666714,0.7972222222222172,1.006968641114988,0.023445059609632897,0.9744029193263799,36.111111111111114,0.9999999999723078,0.9930313588850297,0.0,0.9965986554803302,0
131,106.54444444444445,0.7916666666666714,0.8194444444444429,0.7972222222222172,0.9930313588850297,0.023155106384017278,0.9623521387264501,36.111111111111114,0.9999999999723078,1.0278745644599347,0.0,0.9945811530473077,0
132,107.3638888888889,0.8194444444444429,0.8305555555555486,0.7972222222222172,1.0278745644599347,0.02587343086836818,1.0753287469044734,41.666666666666664,1.153846153814201,1.0418118466898934,0.0,0.9940661243866277,0
133,108.19444444444444,0.8305555555555486,0.8388888888888886,0.7972222222222172,1.0418118466898934,0.02338684224466221,0.9719833404757626,36.111111111111114,0.9999999999723078,1.0522648083623756,0.0,0.9944415119542844,0
134,109.03333333333333,0.8388888888888886,0.8222222222222229,0.7972222222222172,1.0522648083623756,0.02518501905744431,1.046717581506226,36.111111111111114,0.9999999999723078,1.031358885017429,0.0,0.9965351030719214,0
135,109.85555555555555,0.8222222222222229,0.7694444444444457,0.7972222222222172,1.031358885017429,0.01955581502574503,0.8127615612059861,36.111111111111114,0.9999999999723078,0.9651567944250948,0.0,0.9898183247579363,0
136,110.625,0.7694444444444457,0.75277777777778,0.7972222222222172,0.9651567944250948,0.02383376221090103,0.9905578345081612,36.111111111111114,0.9999999999723078,0.9442508710801482,0.0,0.9950065456370079,0
137,111.37777777777778,0.75277777777778,0.7944444444444372,0.7972222222222172,0.9442508710801482,0.017522270017834032,0.7282451545394011,33.333333333333336,0.923076923051361,0.996515679442506,0.0,0.9903193514049529,0
138,112.17222222222222,0.7944444444444372,0.8222222222222229,0.7972222222222172,0.996515679442506,0.024281367315787845,1.009160803669643,36.111111111111114,0.9999999999723078,1.031358885017429,0.0,0.9968259993663763,0
139,112.99444444444444,0.8222222222222229,0.8111111111111171,0.7972222222222172,1.031358885017429,0.019481561143051117,0.8096754867291893,33.333333333333336,0.923076923051361,1.0174216027874705,0.0,0.9887760227136804,0
140,113.80555555555556,0.8111111111111171,0.8388888888888886,0.7972222222222172,1.0174216027874705,0.023884938877728013,0.9926847940633041,36.111111111111114,0.9999999999723078,1.0522648083623756,0.0,0.9991478798124488,0
141,114.64444444444445,0.8388888888888886,0.8194444444444429,0.7972222222222172,1.0522648083623756,0.02211618736678991,0.9191735015130857,41.666666666666664,1.153846153814201,1.0278745644599347,0.0,0.9872263175205811,0
142,115.46388888888889,0.8194444444444429,0.7861111111111114,0.7972222222222172,1.0278745644599347,0.017356705840265708,0.7213641220044203,33.333333333333336,0.923076923051361,0.9860627177700415,0.0,0.9919283402832376,0
143,116.25,0.7861111111111114,0.74166666666666,0.7972222222222172,0.9860627177700415,0.018396244797289737,0.7645685246096298,33.333333333333336,0.923076923051361,0.9303135888501718,0.0,0.9928219904078099,0
144,116.99166666666666,0.74166666666666,0.8277777777777828,0.7972222222222172,0.9303135888501718,0.01868049610308859,0.7763823270398414,33.333333333333336,0.923076923051361,1.0383275261324172,0.0,0.99394079920859,0
145,117.81944444444444,0.8277777777777828,0.7861111111111114,0.7972222222222172,1.0383275261324172,0.025354852260479382,1.0537760395179057,38.888888888888886,1.0769230768932543,0.9860627177700415,0.0,0.9955557413086014,0
146,118.60555555555555,0.7861111111111114,0.8277777777777828,0.7972222222222172,0.9860627177700415,0.022048730631207006,0.9163699240782388,38.888888888888886,1.0769230768932543,1.0383275261324172,0.0,0.9918871553434869,0
147,119.43333333333334,0.8277777777777828,0.86388888888888,0.7972222222222172,1.0383275261324172,0.02551175024155304,1.0602968952265333,36.111111111111114,0.9999999999723078,1.0836236933797867,0.0,0.9957931337316788,0
148,120.29722222222222,0.86388888888888,0.8250000000000028,0.7972222222222172,1.0836236933797867,0.02460438340701634,1.022585713971561,36.111111111111114,0.9999999999723078,1.034843205574923,0.0,0.9996457681165549,0
149,121.12222222222222,0.8250000000000028,0.7999999999999972,0.7972222222222172,1.034843205574923,0.019156958031054494,0.7961846180678027,33.333333333333336,0.923076923051361,1.0034843205574941,0.0,0.9938388443994248,0
150,121.92222222222222,0.7999999999999972,0.7777777777777857,0.7972222222222172,1.0034843205574941,0.024579426275098976,1.0215484676346696,36.111111111111114,0.9999999999723078,0.975609756097577,0.0,0.9951420077750059,0
151,122.7,0.7777777777777857,0.7888888888888914,0.7972222222222172,0.975609756097577,0.01773856946390785,0.7372348016212285,33.333333333333336,0.923076923051361,0.9895470383275355,0.0,0.9901869463179097,0
152,123.4888888888889,0.7888888888888914,0.7972222222222172,0.7972222222222172,0.9895470383275355,0.020140703923183477,0.8370701984470469,33.333333333333336,0.923076923051361,1.0,0.0,0.9924512018819027,0
153,124.28611111111111,0.7972222222222172,0.7972222222222172,0.7972222222222172,1.0,0.024132866300269302,1.0029889352481718,36.111111111111114,0.9999999999723078,1.0,0.0,0.9996603393200794,0
154,125.08333333333333,0.7972222222222172,0.8138888888888971,0.7972222222222172,1.0,0.01867657683942439,0.776219438055143,33.333333333333336,0.923076923051361,1.0209059233449644,0.0,0.994669103410939,0
155,125.89722222222223,0.8138888888888971,0.8472222222222143,0.7972222222222172,1.0209059233449644,0.02444381285999765,1.0159122223115713,36.111111111111114,0.9999999999723078,1.06271777003484,0.0,0.9988845186487876,0
156,126.74444444444444,0.8472222222222143,0.8222222222222229,0.7972222222222172,1.06271777003484,0.019453181779876354,0.8084960086307523,33.333333333333336,0.923076923051361,1.031358885017429,0.0,0.9949784653048397,0
157,127.56666666666666,0.8222222222222229,0.7750000000000057,0.7972222222222172,1.031358885017429,0.022830835160640182,0.9488750637275726,33.333333333333336,0.923076923051361,0.972125435540083,0.0,0.9894111039452227,0
158,128.34166666666667,0.7750000000000057,0.7666666666666515,0.7972222222222172,0.972125435540083,0.024060948679667255,0.9999999584388807,33.333333333333336,0.923076923051361,0.9616724738675829,0.0,0.9946635879326048,0
159,129.10833333333332,0.7666666666666515,0.7777777777777999,0.7972222222222172,0.9616724738675829,0.020300537006456128,0.8437130402883113,33.333333333333336,0.923076923051361,0.9756097560975949,0.0,0.9943606836145051,0
160,129.88611111111112,0.7777777777777999,0.7722222222222115,0.7972222222222172,0.9756097560975949,0.022309773775883217,0.9272191693554028,33.333333333333336,0.923076923051361,0.9686411149825711,0.0,0.9907620850559892,0
161,130.65833333333333,0.7722222222222115,0.8249999999999886,0.7972222222222172,0.9686411149825711,0.023847828836036294,0.9911424591934931,36.111111111111114,0.9999999999723078,1.0348432055749053,0.0,0.9990641436158781,0
162,131.48333333333332,0.8249999999999886,0.830555555555577,0.7972222222222172,1.0348432055749053,0.02489390371700037,1.0346185021132812,36.111111111111114,0.9999999999723078,1.041811846689929,0.0,0.9965892902143703,0
163,132.3138888888889,0.830555555555577,0.7972222222222172,0.7972222222222172,1.041811846689929,0.024113123008915313,1.0021683819609226,44.44444444444444,1.2307692307351479,1.0,0.0,0.9853625042625842,0
164,133.11111111111111,0.7972222222222172,0.7833333333333314,0.7972222222222172,1.0,0.020929001923357213,0.8698327456726822,36.111111111111114,0.9999999999723078,0.9825783972125474,0.0,0.9930056195121459,0
165,133.89444444444445,0.7833333333333314,0.7888888888888914,0.7972222222222172,0.9825783972125474,0.023663813888490218,0.983494592006373,36.111111111111114,0.9999999999723078,0.9895470383275355,0.0,0.9992576870390658,0
166,134.68333333333334,0.7888888888888914,0.7777777777777715,0.7972222222222172,0.9895470383275355,0.01876394273341977,0.7798504623978443,33.333333333333336,0.923076923051361,0.9756097560975593,0.0,0.9914580448988626,0
167,135.4611111111111,0.7777777777777715,0.76111111111112,0.7972222222222172,0.9756097560975593,0.01829858405920838,0.7605096350237426,33.333333333333336,0.923076923051361,0.9547038327526304,0.0,0.9925715669113288,0
168,136.22222222222223,0.76111111111112,0.7861111111110972,0.7972222222222172,0.9547038327526304,0.023523053927400818,0.9776444504715046,36.111111111111114,0.9999999999723078,0.9860627177700236,0.0,0.9974607960111954,0
169,137.00833333333333,0.7861111111110972,0.8194444444444571,0.7972222222222172,0.9860627177700236,0.025111457474530106,1.0436602797831618,36.111111111111114,0.9999999999723078,1.0278745644599527,0.0,0.9973853724547009,0
170,137.82777777777778,0.8194444444444571,0.8472222222222285,0.7972222222222172,1.0278745644599527,0.024957017153876673,1.037241567192447,36.111111111111114,0.9999999999723078,1.0627177700348578,0.0,0.9984036592672085,0
171,138.675,0.8472222222222285,0.8083333333333087,0.7972222222222172,1.0627177700348578,0.024897135680864713,1.034752826149006,36.111111111111114,0.9999999999723078,1.0139372822299406,0.0,0.9995270404355622,0
172,139.48333333333332,0.8083333333333087,0.7694444444444457,0.7972222222222172,1.0139372822299406,0.02425717785473023,1.0081554625929332,36.111111111111114,0.9999999999723078,0.9651567944250948,0.0,0.9989231024813747,0
173,140.25277777777777,0.7694444444444457,0.7777777777777999,0.7972222222222172,0.9651567944250948,0.022725516493724243,0.9444979020478347,33.333333333333336,0.923076923051361,0.9756097560975949,0.0,0.9945718369039849,0
174,141.03055555555557,0.7777777777777999,0.7916666666666572,0.7972222222222172,0.9756097560975949,0.024078661495947073,1.0007361229093457,36.111111111111114,0.9999999999723078,0.9930313588850118,0.0,0.9966757651883995,0
175,141.82222222222222,0.7916666666666572,0.7861111111110972,0.7972222222222172,0.9930313588850118,0.01779371392086362,0.7395266669752536,33.333333333333336,0.923076923051361,0.9860627177700236,0.0,0.9933132254826044,0
176,142.60833333333332,0.7861111111110972,0.7972222222222456,0.7972222222222172,0.9860627177700236,0.025944610637263783,1.0782870577709707,38.888888888888886,1.0769230768932543,1.0000000000000357,0.0,0.9952833258608891,0
177,143.40555555555557,0.7972222222222456,0.8194444444444287,0.7972222222222172,1.0000000000000357,0.02533241124028734,1.0528433656005913,36.111111111111114,0.9999999999723078,1.027874564459917,0.0,0.99584851265988,0
178,144.225,0.8194444444444287,0.8194444444444571,0.7972222222222172,1.027874564459917,0.024234726490130684,1.0072223587504645,36.111111111111114,0.9999999999723078,1.0278745644599527,0.0,0.9995574889282992,0
179,145.04444444444445,0.8194444444444571,0.8055555555555429,0.7972222222222172,1.0278745644599527,0.01876310746979215,0.7798157479065735,33.333333333333336,0.923076923051361,1.0104529616724645,0.0,0.993959958087417,0
180,145.85,0.8055555555555429,0.7722222222222399,0.7972222222222172,1.0104529616724645,0.018196285661298117,0.7562579991044542,33.333333333333336,0.923076923051361,0.9686411149826067,0.0,0.9939461630359092,0
181,146.62222222222223,0.7722222222222399,0.7749999999999773,0.7972222222222172,0.9686411149826067,0.022971659439355214,0.9547278783749527,36.111111111111114,0.9999999999723078,0.9721254355400474,0.0,0.9959157583503834,0
182,147.3972222222222,0.7749999999999773,0.7722222222222399,0.7972222222222172,0.9721254355400474,0.017709046662764013,0.7360078009609518,33.333333333333336,0.923076923051361,0.9686411149826067,0.0,0.992291675598379,0
183,148.16944444444445,0.7722222222222399,0.8083333333333371,0.7972222222222172,0.9686411149826067,0.017419170958099948,0.7239602422185375,33.333333333333336,0.923076923051361,1.0139372822299764,0.0,0.992245752723145,0
184,148.9777777777778,0.8083333333333371,0.8083333333333087,0.7972222222222172,1.0139372822299764,0.019467989705926905,0.8091114426118584,33.333333333333336,0.923076923051361,1.0139372822299406,0.0,0.9920778636989345,0
185,149.7861111111111,0.8083333333333087,0.8222222222222229,0.7972222222222172,1.0139372822299406,0.019522400379842913,0.8113728111214309,33.333333333333336,0.923076923051361,1.031358885017429,0.0,0.9952628454505146,0
186,150.60833333333332,0.8222222222222229,0.8027777777777771,0.7972222222222172,1.031358885017429,0.025080828030095266,1.0423872857890502,36.111111111111114,0.9999999999723078,1.006968641114988,0.0,0.9969028893668734,0
187,151.4111111111111,0.8027777777777771,0.7666666666666799,0.7972222222222172,1.006968641114988,0.01901771659276553,0.7903975880401963,33.333333333333336,0.923076923051361,0.9616724738676186,0.0,0.9932203032969767,0
188,152.17777777777778,0.7666666666666799,0.7777777777777715,0.7972222222222172,0.9616724738676186,0.024510582378814535,1.0186872382484238,36.111111111111114,0.9999999999723078,0.9756097560975593,0.0,0.993297657713937,0
189,152.95555555555555,0.7777777777777715,0.7750000000000057,0.7972222222222172,0.9756097560975593,0.02346558199678928,0.9752558527072149,36.111111111111114,0.9999999999723078,0.972125435540083,0.0,0.9971242418091991,0
190,153.73055555555555,0.7750000000000057,0.7833333333333314,0.7972222222222172,0.972125435540083,0.023630683401192766,0.9821176518714851,36.111111111111114,0.9999999999723078,0.9825783972125474,0.0,0.9906909262040218,0
191,154.51388888888889,0.7833333333333314,0.7861111111111256,0.7972222222222172,0.9825783972125474,0.027892929175073338,1.1592613569465342,44.44444444444444,1.2307692307351479,0.9860627177700593,0.0,0.9895687255841669,0
192,155.3,0.7861111111111256,0.8333333333333144,0.7972222222222172,0.9860627177700593,0.019223033156040237,0.7989307742198012,33.333333333333336,0.923076923051361,1.0452961672473695,0.0,0.9946225666540367,0
193,156.13333333333333,0.8333333333333144,0.8166666666666629,0.7972222222222172,1.0452961672473695,0.021827947883111057,0.9071939459462317,38.888888888888886,1.0769230768932543,1.0243902439024408,0.0,0.9896302016673766,0
194,156.95,0.8166666666666629,0.7861111111111256,0.7972222222222172,1.0243902439024408,0.025122639245249743,1.0441250066899759,36.111111111111114,0.9999999999723078,0.9860627177700593,0.0,0.9993962182564693,0
195,157.73611111111111,0.7861111111111256,0.75,0.7972222222222172,0.9860627177700593,0.022669621976174545,0.9421748633359865,38.888888888888886,1.0769230768932543,0.940766550522654,0.0,0.9913756188728734,0
196,158.48611111111111,0.75,0.7722222222222115,0.7972222222222172,0.940766550522654,0.024884796369822774,1.0342399905707675,36.111111111111114,0.9999999999723078,0.9686411149825711,0.0,0.9969155690812486,0
197,159.25833333333333,0.7722222222222115,0.7833333333333314,0.7972222222222172,0.9686411149825711,0.024583854052832962,1.0217324910332857,36.111111111111114,0.9999999999723078,0.9825783972125474,0.0,0.9989775210809624,0
198,160.04166666666666,0.7833333333333314,0.7916666666666856,0.7972222222222172,0.9825783972125474,0.02514125947413032,1.0448988842437912,36.111111111111114,0.9999999999723078,0.9930313588850475,0.0,0.9951846511413778,0
199,160.83333333333334,0.7916666666666856,0.8111111111111029,0.7972222222222172,0.9930313588850475,0.026561030640742795,1.1039061630717029,41.666666666666664,1.153846153814201,1.0174216027874525,0.0,0.9921852204568136,0
200,161.64444444444445,0.8111111111111029,0.8277777777777828,0.7972222222222172,1.0174216027874525,0.025289508354505538,1.051060273646492,38.888888888888886,1.0769230768932543,1.0383275261324172,0.0,0.997489727552465,0
201,162.47222222222223,0.8277777777777828,0.8277777777777828,0.7972222222222172,1.0383275261324172,0.025172232788075365,1.0461861698396386,36.111111111111114,0.9999999999723078,1.0383275261324172,0.0,0.9994907899900869,0
202,163.3,0.8277777777777828,0.8027777777777771,0.7972222222222172,1.0383275261324172,0.01875320074295891,0.7794040132508292,33.333333333333336,0.923076923051361,1.006968641114988,0.0,0.9946980181928828,0
203,164.1027777777778,0.8027777777777771,0.7694444444444457,0.7972222222222172,1.006968641114988,0.023730448101564917,0.9862639844851333,36.111111111111114,0.9999999999723078,0.9651567944250948,0.0,0.9993058178913444,0
204,164.87222222222223,0.7694444444444457,0.7722222222222115,0.7972222222222172,0.9651567944250948,0.023412490994467662,0.9730493312262078,36.111111111111114,0.9999999999723078,0.9686411149825711,0.0,0.9949704972859308,0
205,165.64444444444445,0.7722222222222115,0.8000000000000114,0.7972222222222172,0.9686411149825711,0.019034350562910814,0.7910889144577624,33.333333333333336,0.923076923051361,1.003484320557512,0.0,0.9924764262580477,0
206,166.44444444444446,0.8000000000000114,0.8166666666666629,0.7972222222222172,1.003484320557512,0.01909625100570967,0.7936615661453708,33.333333333333336,0.923076923051361,1.0243902439024408,0.0,0.9904277007559161,0
207,167.26111111111112,0.8166666666666629,0.8388888888888744,0.7972222222222172,1.0243902439024408,0.027304886400187793,1.1348216410286511,41.666666666666664,1.153846153814201,1.0522648083623578,0.0,0.9938813756730849,0
208,168.1,0.8388888888888744,0.8388888888889028,0.7972222222222172,1.0522648083623578,0.028509824288616564,1.1849002083533235,44.44444444444444,1.2307692307351479,1.0522648083623933,0.0,0.9864280942931973,0
209,168.9388888888889,0.8388888888889028,0.799999999999983,0.7972222222222172,1.0522648083623933,0.019616334551527545,0.8152768204367412,33.333333333333336,0.923076923051361,1.0034843205574762,0.0,0.9939224811695204,0
210,169.73888888888888,0.799999999999983,0.7916666666666856,0.7972222222222172,1.0034843205574762,0.018142063144609036,0.7540044506198363,33.333333333333336,0.923076923051361,0.9930313588850475,0.0,0.9921136867900351,0
211,170.53055555555557,0.7916666666666856,0.8027777777777771,0.7972222222222172,0.9930313588850475,0.02400794844339786,0.997797209296598,36.111111111111114,0.9999999999723078,1.006968641114988,0.0,0.9945602271682623,0
212,171.33333333333334,0.8027777777777771,0.7888888888888914,0.7972222222222172,1.006968641114988,0.01882428543365727,0.7823583725610284,33.333333333333336,0.923076923051361,0.9895470383275355,0.0,0.9942350595854343,0
213,172.12222222222223,0.7888888888888914,0.788888888888863,0.7972222222222172,0.9895470383275355,0.020684336441125637,0.8596641743781613,36.111111111111114,0.9999999999723078,0.9895470383274999,0.0,0.9913062009474813,0
214,172.9111111111111,0.788888888888863,0.830555555555577,0.7972222222222172,0.9895470383274999,0.020560185809861575,0.8545043351815824,36.111111111111114,0.9999999999723078,1.041811846689929,0.0,0.9918216041287358,0
215,173.74166666666667,0.830555555555577,0.8472222222222285,0.7972222222222172,1.041811846689929,0.02212296831506811,0.9194553253134128,38.888888888888886,1.0769230768932543,1.0627177700348578,0.0,0.9936478409717455,0
216,174.5888888888889,0.8472222222222285,0.8416666666666401,0.7972222222222172,1.0627177700348578,0.01998696487438507,0.8306806314995575,33.333333333333336,0.923076923051361,1.055749128919834,0.0,0.992721629327131,0
217,175.43055555555554,0.8416666666666401,0.7888888888888914,0.7972222222222172,1.055749128919834,0.024949735196238613,1.036938920882347,41.666666666666664,1.153846153814201,0.9895470383275355,0.0,0.9854759177893688,0
218,176.21944444444443,0.7888888888888914,0.75555555555556,0.7972222222222172,0.9895470383275355,0.017672334397753876,0.7344819981352569,33.333333333333336,0.923076923051361,0.9477351916376422,0.0,0.9917828302777989,0
219,176.975,0.75555555555556,0.7972222222222172,0.7972222222222172,0.9477351916376422,0.02315126454328586,0.9621924675254973,36.111111111111114,0.9999999999723078,1.0,0.0,0.9943678154752239,0
220,177.7722222222222,0.7972222222222172,0.8055555555555713,0.7972222222222172,1.0,0.024158527051188494,1.0040554247783369,36.111111111111114,0.9999999999723078,1.0104529616725,0.0,0.9959861889467629,0
221,178.57777777777778,0.8055555555555713,0.8166666666666629,0.7972222222222172,1.0104529616725,0.018136978725140383,0.7537931364557513,33.333333333333336,0.923076923051361,1.0243902439024408,0.0,0.9925575012176403,0
222,179.39444444444445,0.8166666666666629,0.8166666666666629,0.7972222222222172,1.0243902439024408,0.020674282714940137,0.8592463302648014,36.111111111111114,0.9999999999723078,1.0243902439024408,0.0,0.9905610469541373,0
223,180.2111111111111,0.8166666666666629,0.8277777777777828,0.7972222222222172,1.0243902439024408,0.018620081168342757,0.7738714147296392,33.333333333333336,0.923076923051361,1.0383275261324172,0.0,0.9940364083003761,0
224,181.0388888888889,0.8277777777777828,0.8055555555555429,0.7972222222222172,1.0383275261324172,0.022742710654718574,0.9452125106241064,36.111111111111114,0.9999999999723078,1.0104529616724645,0.0,0.9953245279920274,0
225,181.84444444444443,0.8055555555555429,0.7944444444444514,0.7972222222222172,1.0104529616724645,0.017891007452742462,0.743570295060352,33.333333333333336,0.923076923051361,0.9965156794425237,0.0,0.9925808997372934,0
226,182.63888888888889,0.7944444444444514,0.7805555555555657,0.7972222222222172,0.9965156794425237,0.024248357018733124,1.0077888587757713,36.111111111111114,0.9999999999723078,0.9790940766550712,0.0,0.9972938919469521,0
227,183.41944444444445,0.7805555555555657,0.7666666666666515,0.7972222222222172,0.9790940766550712,0.023464006459548072,0.9751903716159787,41.666666666666664,1.153846153814201,0.9616724738675829,0.0,0.9879677641168162,0
228,184.1861111111111,0.7666666666666515,0.825000000000017,0.7972222222222172,0.9616724738675829,0.023694460639752283,0.9847683052915956,36.111111111111114,0.9999999999723078,1.0348432055749408,0.0,0.9951824014781687,0
229,185.01111111111112,0.825000000000017,0.5194444444444457,0.7972222222222172,1.0348432055749408,0.023756969054546623,0.9873662249758367,36.111111111111114,0.9999999999723078,0.6515679442508768,0.0,0.9947537939229366,0
230,185.53055555555557,0.5194444444444457,0.9416666666666629,0.7972222222222172,0.6515679442508768,0.023707445913057363,0.9853079877845129,38.888888888888886,1.0769230768932543,1.1811846689895498,0.0,0.9961865657265089,0
231,186.47222222222223,0.9416666666666629,0.8444444444444343,0.7972222222222172,1.1811846689895498,0.02502857832665705,1.0402157296312993,36.111111111111114,0.9999999999723078,1.0592334494773459,0.0,0.9958759439667286,0
232,187.31666666666666,0.8444444444444343,0.8166666666666629,0.7972222222222172,1.0592334494773459,0.026895017470644687,1.1177870295523857,38.888888888888886,1.0769230768932543,1.0243902439024408,0.0,0.9939713811758997,0
233,188.13333333333333,0.8166666666666629,0.7777777777777715,0.7972222222222172,1.0243902439024408,0.02492144386542989,1.0357631015075766,36.111111111111114,0.9999999999723078,0.9756097560975593,0.0,0.9958264502763146,0
234,188.9111111111111,0.7777777777777715,0.8166666666666913,0.7972222222222172,0.9756097560975593,0.019338530210428306,0.8037309610755041,33.333333333333336,0.923076923051361,1.0243902439024763,0.0,0.994130946731377,0
235,189.7277777777778,0.8166666666666913,0.8111111111111029,0.7972222222222172,1.0243902439024763,0.023976428807601997,0.996487217953135,36.111111111111114,0.9999999999723078,1.0174216027874525,0.0,0.9995719494635714,0
236,190.5388888888889,0.8111111111111029,0.8111111111111029,0.7972222222222172,1.0174216027874525,0.02465685457184073,1.0247664743124019,36.111111111111114,0.9999999999723078,1.0174216027874525,0.0,0.9934148761370618,0
237,191.35,0.8111111111111029,0.8472222222222285,0.7972222222222172,1.0174216027874525,0.024278982797192986,1.0090617004078597,36.111111111111114,0.9999999999723078,1.0627177700348578,0.0,0.9985066738513972,0
238,192.19722222222222,0.8472222222222285,0.86944444444444,0.7972222222222172,1.0627177700348578,0.019138355783623762,0.7954114878431694,33.333333333333336,0.923076923051361,1.090592334494775,0.0,0.9944245204203259,0
239,193.06666666666666,0.86944444444444,0.8111111111111029,0.7972222222222172,1.090592334494775,0.02087676346261722,0.8676616567740534,38.888888888888886,1.0769230768932543,1.0174216027874525,0.0,0.9945477440205128,0
240,193.87777777777777,0.8111111111111029,0.7694444444444457,0.7972222222222172,1.0174216027874525,0.022850671332994357,0.9496994772531507,36.111111111111114,0.9999999999723078,0.9651567944250948,0.0,0.9955995360861596,0
241,194.6472222222222,0.7694444444444457,0.7888888888888914,0.7972222222222172,0.9651567944250948,0.02317785195742038,0.9632974702161012,36.111111111111114,0.9999999999723078,0.9895470383275355,0.0,0.9944478165844575,0
242,195.4361111111111,0.7888888888888914,0.7944444444444514,0.7972222222222172,0.9895470383275355,0.023737772241064548,0.9865683839206144,36.111111111111114,0.9999999999723078,0.9965156794425237,0.0,0.9966287300656664,0
243,196.23055555555555,0.7944444444444514,0.8277777777777828,0.7972222222222172,0.9965156794425237,0.01796868400425644,0.7467986194842886,33.333333333333336,0.923076923051361,1.0383275261324172,0.0,0.9922023626636818,0
244,197.05833333333334,0.8277777777777828,0.8305555555555486,0.7972222222222172,1.0383275261324172,0.023936935987759585,0.9948458521563482,36.111111111111114,0.9999999999723078,1.0418118466898934,0.0,0.995326083143922,0
245,197.88888888888889,0.8305555555555486,0.8333333333333428,0.7972222222222172,1.0418118466898934,0.019886183534993877,0.8264920462303584,33.333333333333336,0.923076923051361,1.0452961672474053,0.0,0.9951401212927741,0
246,198.72222222222223,0.8333333333333428,0.8499999999999943,0.7972222222222172,1.0452961672474053,0.018479881512275743,0.7680445600986481,33.333333333333336,0.923076923051361,1.0662020905923342,0.0,0.9932605913434092,0
247,199.57222222222222,0.8499999999999943,0.8111111111111029,0.7972222222222172,1.0662020905923342,0.019278487036557032,0.8012354995633588,33.333333333333336,0.923076923051361,1.0174216027874525,0.0,0.9943737632528555,0
248,200.38333333333333,0.8111111111111029,0.7750000000000057,0.7972222222222172,1.0174216027874525,0.01734582430097659,0.7209118730519065,33.333333333333336,0.923076923051361,0.972125435540083,0.0,0.9881851070176595,0
249,201.15833333333333,0.7750000000000057,0.7944444444444514,0.7972222222222172,0.972125435540083,0.0234459663533329,0.9744406046094661,36.111111111111114,0.9999999999723078,0.9965156794425237,0.0,0.995754320269477,0
250,201.95277777777778,0.7944444444444514,0.8194444444444287,0.7972222222222172,0.9965156794425237,0.02477237371833066,1.0295675793405858,36.111111111111114,0.9999999999723078,1.027874564459917,0.0,0.9954083278120642,0
251,202.7722222222222,0.8194444444444287,0.8416666666666686,0.7972222222222172,1.027874564459917,0.017806323791675748,0.7400507473203775,33.333333333333336,0.923076923051361,1.0557491289198697,0.0,0.9897074640478467,0
252,203.61388888888888,0.8416666666666686,0.8638888888889085,0.7972222222222172,1.0557491289198697,0.023801416920694703,0.989213528043248,36.111111111111114,0.9999999999723078,1.0836236933798225,0.0,0.9942119710710615,0
253,204.4777777777778,0.8638888888889085,0.8305555555555486,0.7972222222222172,1.0836236933798225,0.019652807505994793,0.8167926772484143,33.333333333333336,0.923076923051361,1.0418118466898934,0.0,0.992217683581214,0
254,205.30833333333334,0.8305555555555486,0.7916666666666572,0.7972222222222172,1.0418118466898934,0.026655241394629964,1.1078216674529278,38.888888888888886,1.0769230768932543,0.9930313588850118,0.0,0.9933928843638999,0
255,206.1,0.7916666666666572,0.7972222222222172,0.7972222222222172,0.9930313588850118,0.017914234622803466,0.7445356422461545,33.333333333333336,0.923076923051361,1.0,0.0,0.9917853739295861,0
256,206.8972222222222,0.7972222222222172,0.7888888888888914,0.7972222222222172,1.0,0.02366296874215999,0.9834594667789202,36.111111111111114,0.9999999999723078,0.9895470383275355,0.0,0.9951989567426686,0
257,207.6861111111111,0.7888888888888914,0.6083333333333485,0.7972222222222172,0.9895470383275355,0.01759306207362775,0.7311873516154184,33.333333333333336,0.923076923051361,0.7630662020906162,0.0,0.9929392368897483,0
258,208.29444444444445,0.6083333333333485,0.9611111111111086,0.7972222222222172,0.7630662020906162,0.018187846661015427,0.7559072648069705,33.333333333333336,0.923076923051361,1.2055749128919906,0.0,0.9944311604545774,0
259,209.25555555555556,0.9611111111111086,0.8333333333333428,0.7972222222222172,1.2055749128919906,0.02343227439985731,0.9738715516976785,36.111111111111114,0.9999999999723078,1.0452961672474053,0.0,0.9962515736298376,0
260,210.0888888888889,0.8333333333333428,0.8388888888888744,0.7972222222222172,1.0452961672474053,0.02327058189608923,0.967151430259383,36.111111111111114,0.9999999999723078,1.0522648083623578,0.0,0.9953233511171531,0
261,210.92777777777778,0.8388888888888744,0.8333333333333428,0.7972222222222172,1.0522648083623578,0.026595119211765765,1.105322922238602,41.666666666666664,1.153846153814201,1.0452961672474053,0.0,0.9913443319837061,0
262,211.76111111111112,0.8333333333333428,0.7805555555555372,0.7972222222222172,1.0452961672474053,0.01867341591059289,0.7760880663148925,33.333333333333336,0.923076923051361,0.9790940766550355,0.0,0.9925582754154172,0
263,212.54166666666666,0.7805555555555372,0.75,0.7972222222222172,0.9790940766550355,0.022884613489396657,0.9511101512645337,36.111111111111114,0.9999999999723078,0.940766550522654,0.0,0.9952522036167802,0
264,213.29166666666666,0.75,0.8027777777777771,0.7972222222222172,0.940766550522654,0.02246055624083952,0.9334858573691234,33.333333333333336,0.923076923051361,1.006968641114988,0.0,0.994422128157946,0
265,214.09444444444443,0.8027777777777771,0.8138888888888971,0.7972222222222172,1.006968641114988,0.024518967432297308,1.0190357304565207,36.111111111111114,0.9999999999723078,1.0209059233449644,0.0,0.9995203361325348,0
266,214.90833333333333,0.8138888888888971,0.8249999999999886,0.7972222222222172,1.0209059233449644,0.021334474214885688,0.8866846279519225,38.888888888888886,1.0769230768932543,1.0348432055749053,0.0,0.990730431098709,0
267,215.73333333333332,0.8249999999999886,0.8055555555555713,0.7972222222222172,1.0348432055749053,0.017420430258263536,0.7240125801428653,33.333333333333336,0.923076923051361,1.0104529616725,0.0,0.9910257813231472,0
268,216.5388888888889,0.8055555555555713,0.8249999999999886,0.7972222222222172,1.0104529616725,0.018375990832549052,0.763726747164835,33.333333333333336,0.923076923051361,1.0348432055749053,0.0,0.9944258138685926,0
269,217.36388888888888,0.8249999999999886,0.8000000000000114,0.7972222222222172,1.0348432055749053,0.024498827618269756,1.018198697243132,36.111111111111114,0.9999999999723078,1.003484320557512,0.0,0.9976429780108452,0
270,218.1638888888889,0.8000000000000114,0.7944444444444514,0.7972222222222172,1.003484320557512,0.022989006006469474,0.9554488211201559,36.111111111111114,0.9999999999723078,0.9965156794425237,0.0,0.9987304605783137,0
271,218.95833333333334,0.7944444444444514,0.7638888888888857,0.7972222222222172,0.9965156794425237,0.02066990534881695,0.8590644020291555,36.111111111111114,0.9999999999723078,0.9581881533101066,0.0,0.9932166527404858,0
272,219.72222222222223,0.7638888888888857,0.7944444444444514,0.7972222222222172,0.9581881533101066,0.017736719025436803,0.7371578953271843,33.333333333333336,0.923076923051361,0.9965156794425237,0.0,0.9931670010379141,0
273,220.51666666666668,0.7944444444444514,0.8416666666666401,0.7972222222222172,0.9965156794425237,0.02407551058584359,1.0006051675586454,36.111111111111114,0.9999999999723078,1.055749128919834,0.0,0.9997264376484842,0
274,221.35833333333332,0.8416666666666401,0.8388888888889028,0.7972222222222172,1.055749128919834,0.024175355541539757,1.004754835673389,36.111111111111114,0.9999999999723078,1.0522648083623933,0.0,0.998721913058707,0
275,222.19722222222222,0.8388888888889028,0.8333333333333428,0.7972222222222172,1.0522648083623933,0.02322525532441867,0.9652676072069263,36.111111111111114,0.9999999999723078,1.0452961672474053,0.0,0.9943436065547593,0
276,223.03055555555557,0.8333333333333428,0.8111111111111029,0.7972222222222172,1.0452961672474053,0.01857068869377907,0.7718186082019972,33.333333333333336,0.923076923051361,1.0174216027874525,0.0,0.9919386948039954,0
277,223.84166666666667,0.8111111111111029,0.7916666666666572,0.7972222222222172,1.0174216027874525,0.023768345194850195,0.9878390301001159,36.111111111111114,0.9999999999723078,0.9930313588850118,0.0,0.998738864378352,0
278,224.63333333333333,0.7916666666666572,0.7888888888888914,0.7972222222222172,0.9930313588850118,0.022121481630915672,0.9193935370559986,33.333333333333336,0.923076923051361,0.9895470383275355,0.0,0.9909536403886094,0
279,225.42222222222222,0.7888888888888914,0.7972222222222172,0.7972222222222172,0.9895470383275355,0.025370104971919088,1.0544099592776315,38.888888888888886,1.0769230768932543,1.0,0.0,0.9961370138543263,0
280,226.21944444444443,0.7972222222222172,0.8083333333333371,0.7972222222222172,1.0,0.026099453377810916,1.0847224953828942,38.888888888888886,1.0769230768932543,1.0139372822299764,0.0,0.996115946432292,0
281,227.02777777777777,0.8083333333333371,0.8361111111111086,0.7972222222222172,1.0139372822299764,0.024280332029935296,1.00911777603082,36.111111111111114,0.9999999999723078,1.0487804878048814,0.0,0.9957886546955149,0
282,227.86388888888888,0.8361111111111086,0.8444444444444628,0.7972222222222172,1.0487804878048814,0.019369486582341958,0.8050175425415637,33.333333333333336,0.923076923051361,1.0592334494773816,0.0,0.9930023880193598,0
283,228.70833333333334,0.8444444444444628,0.8361111111111086,0.7972222222222172,1.0592334494773816,0.026691647978696595,1.109334765836463,41.666666666666664,1.153846153814201,1.0487804878048814,0.0,0.9939714123832568,0
284,229.54444444444445,0.8361111111111086,0.8083333333333371,0.7972222222222172,1.0487804878048814,0.02415486857971122,1.0039033746088306,36.111111111111114,0.9999999999723078,1.0139372822299764,0.0,0.9960636122415807,0
285,230.3527777777778,0.8083333333333371,0.7833333333333314,0.7972222222222172,1.0139372822299764,0.025255481028934594,1.0496460599091306,38.888888888888886,1.0769230768932543,0.9825783972125474,0.0,0.9976915712744567,0
286,231.13611111111112,0.7833333333333314,0.7861111111110972,0.7972222222222172,0.9825783972125474,0.022723468087268897,0.9444127679827784,36.111111111111114,0.9999999999723078,0.9860627177700236,0.0,0.9947057153000399,0
287,231.92222222222222,0.7861111111110972,0.8388888888889028,0.7972222222222172,0.9860627177700236,0.024283506231174475,1.0092496993871898,36.111111111111114,0.9999999999723078,1.0522648083623933,0.0,0.9986409409072659,0
288,232.76111111111112,0.8388888888889028,0.8611111111111143,0.7972222222222172,1.0522648083623933,0.024892423076389295,1.0345569650322106,36.111111111111114,0.9999999999723078,1.0801393728223105,0.0,0.9952011022274199,0
289,233.62222222222223,0.8611111111111143,0.8416666666666686,0.7972222222222172,1.0801393728223105,0.019317712040516438,0.8028657346322827,33.333333333333336,0.923076923051361,1.0557491289198697,0.0,0.9888341483319119,0
290,234.4638888888889,0.8416666666666686,0.8388888888888744,0.7972222222222172,1.0557491289198697,0.024187241403287357,1.0052488253914111,36.111111111111114,0.9999999999723078,1.0522648083623578,0.0,0.9964949712583222,0
291,235.30277777777778,0.8388888888888744,0.8361111111111086,0.7972222222222172,1.0522648083623578,0.024831528402523007,1.0320261142271925,36.111111111111114,0.9999999999723078,1.0487804878048814,0.0,0.9958119642942788,0
292,236.13888888888889,0.8361111111111086,0.8138888888888971,0.7972222222222172,1.0487804878048814,0.024700395860371305,1.0265760989993016,33.333333333333336,0.923076923051361,1.0209059233449644,0.0,0.9988647355678577,0
293,236.95277777777778,0.8138888888888971,0.7694444444444457,0.7972222222222172,1.0209059233449644,0.025329754406691773,1.0527329446225775,36.111111111111114,0.9999999999723078,0.9651567944250948,0.0,0.9914155785588168,0
294,237.72222222222223,0.7694444444444457,0.8055555555555429,0.7972222222222172,0.9651567944250948,0.01884719831126192,0.7833106574005588,33.333333333333336,0.923076923051361,1.0104529616724645,0.0,0.9927953208260187,0
295,238.52777777777777,0.8055555555555429,0.8388888888889028,0.7972222222222172,1.0104529616724645,0.024071229339475482,1.000427234167607,36.111111111111114,0.9999999999723078,1.0522648083623933,0.0,0.9984249660621269,0
296,239.36666666666667,0.8388888888889028,0.8499999999999943,0.7972222222222172,1.0522648083623933,0.01886234696666843,0.7839402524750754,33.333333333333336,0.923076923051361,1.0662020905923342,0.0,0.9925093839400171,0
297,240.21666666666667,0.8499999999999943,0.8388888888888744,0.7972222222222172,1.0662020905923342,0.024232109377073947,1.0071135886025036,36.111111111111114,0.9999999999723078,1.0522648083623578,0.0,0.9994460305561836,0
298,241.05555555555554,0.8388888888888744,0.830555555555577,0.7972222222222172,1.0522648083623578,0.024171717693905585,1.0046036426538865,36.111111111111114,0.9999999999723078,1.041811846689929,0.0,0.9976611049253381,0
299,241.88611111111112,0.830555555555577,0.7916666666666572,0.7972222222222172,1.041811846689929,0.026388626909918254,1.0967408710479123,41.666666666666664,1.153846153814201,0.9930313588850118,0.0,0.9948053207763548,0
300,242.67777777777778,0.7916666666666572,0.8000000000000114,0.7972222222222172,0.9930313588850118,0.023813991145429276,0.9897361268974902,36.111111111111114,0.9999999999723078,1.003484320557512,0.0,0.9950789566320288,0
301,243.4777777777778,0.8000000000000114,0.8027777777777771,0.7972222222222172,1.003484320557512,0.024077621598230542,1.000692903596294,36.111111111111114,0.9999999999723078,1.006968641114988,0.0,0.9996377160709138,0
302,244.28055555555557,0.8027777777777771,0.8083333333333371,0.7972222222222172,1.006968641114988,0.02418871501994287,1.0053100705490268,36.111111111111114,0.9999999999723078,1.0139372822299764,0.0,0.99849954752527,0
303,245.0888888888889,0.8083333333333371,0.8277777777777544,0.7972222222222172,1.0139372822299764,0.01853967161489804,0.7705295036864243,33.333333333333336,0.923076923051361,1.0383275261323814,0.0,0.9944831646176924,0
304,245.91666666666666,0.8277777777777544,0.8444444444444628,0.7972222222222172,1.0383275261323814,0.0246621583199304,1.0249869040194701,36.111111111111114,0.9999999999723078,1.0592334494773816,0.0,0.9959786670403884,0
305,246.76111111111112,0.8444444444444628,0.8361111111111086,0.7972222222222172,1.0592334494773816,0.024651027178283946,1.0245242813136066,36.111111111111114,0.9999999999723078,1.0487804878048814,0.0,0.9981886995348017,0
306,247.59722222222223,0.8361111111111086,0.7944444444444514,0.7972222222222172,1.0487804878048814,0.02677361532562786,1.11274142052061,41.666666666666664,1.153846153814201,0.9965156794425237,0.0,0.9913206858869339,0
307,248.39166666666668,0.7944444444444514,0.7833333333333314,0.7972222222222172,0.9965156794425237,0.022602037779878643,0.9393659884912412,36.111111111111114,0.9999999999723078,0.9825783972125474,0.0,0.9926239414360238,0
308,249.175,0.7833333333333314,0.7916666666666572,0.7972222222222172,0.9825783972125474,0.02272051524432752,0.944290044525031,33.333333333333336,0.923076923051361,0.9930313588850118,0.0,0.9961413818477385,0
309,249.96666666666667,0.7916666666666572,0.8277777777777828,0.7972222222222172,0.9930313588850118,0.02496786234793113,1.0376923055963274,36.111111111111114,0.9999999999723078,1.0383275261324172,0.0,0.9985867713759142,0
310,250.79444444444445,0.8277777777777828,0.8444444444444343,0.7972222222222172,1.0383275261324172,0.023418675383010224,0.9733063613361951,36.111111111111114,0.9999999999723078,1.0592334494773459,0.0,0.9987664825680247,0
311,251.63888888888889,0.8444444444444343,0.8194444444444571,0.7972222222222172,1.0592334494773459,0.019383028174280895,0.8055803462595891,33.333333333333336,0.923076923051361,1.0278745644599527,0.0,0.9949180460633416,0
312,252.45833333333334,0.8194444444444571,0.8472222222222001,0.7972222222222172,1.0278745644599527,0.019723404785271632,0.8197267791943776,33.333333333333336,0.923076923051361,1.0627177700348223,0.0,0.994772716187164,0
313,253.30555555555554,0.8472222222222001,0.8083333333333371,0.7972222222222172,1.0627177700348223,0.019265077225531346,0.80067817280759,33.333333333333336,0.923076923051361,1.0139372822299764,0.0,0.9944673659842148,0
314,254.11388888888888,0.8083333333333371,0.7777777777777999,0.7972222222222172,1.0139372822299764,0.025517548407441835,1.0605378734907327,38.888888888888886,1.0769230768932543,0.9756097560975949,0.0,0.9944466757278889,0
315,254.89166666666668,0.7777777777777999,0.794444444444423,0.7972222222222172,0.9756097560975949,0.023509404981542137,0.977077185004414,36.111111111111114,0.9999999999723078,0.9965156794424881,0.0,0.9967000595695612,0
316,255.6861111111111,0.794444444444423,0.8083333333333655,0.7972222222222172,0.9965156794424881,0.02059260226493771,0.8558515993381393,38.888888888888886,1.0769230768932543,1.013937282230012,0.0,0.9936297495466305,0
317,256.49444444444447,0.8083333333333655,0.8194444444444002,0.7972222222222172,1.013937282230012,0.01873895596482892,0.7788119843276304,33.333333333333336,0.923076923051361,1.0278745644598815,0.0,0.9933664343714173,0
318,257.31388888888887,0.8194444444444002,0.8666666666666742,0.7972222222222172,1.0278745644598815,0.024786154527180974,1.0301403251812025,38.888888888888886,1.0769230768932543,1.0871080139372986,0.0,0.9959418977883607,0
319,258.18055555555554,0.8666666666666742,0.8361111111111086,0.7972222222222172,1.0871080139372986,0.01943287319816894,0.8076519612436878,33.333333333333336,0.923076923051361,1.0487804878048814,0.0,0.99437557841963,0
320,259.01666666666665,0.8361111111111086,0.8000000000000114,0.7972222222222172,1.0487804878048814,0.024545223553553756,1.0201269642442974,36.111111111111114,0.9999999999723078,1.003484320557512,0.0,0.9994039214498389,0
321,259.81666666666666,0.8000000000000114,0.8055555555555429,0.7972222222222172,1.003484320557512,0.02386353495495858,0.9917952230756918,36.111111111111114,0.9999999999723078,1.0104529616724645,0.0,0.9991378458756188,0
322,260.6222222222222,0.8055555555555429,0.7750000000000341,0.7972222222222172,1.0104529616724645,0.024764979248179202,1.029260256884494,36.111111111111114,0.9999999999723078,0.9721254355401187,0.0,0.9958852982001427,0
323,261.39722222222224,0.7750000000000341,0.8138888888888687,0.7972222222222172,0.9721254355401187,0.018595954336737008,0.7728686766030499,33.333333333333336,0.923076923051361,1.020905923344929,0.0,0.9935346598749364,0
324,262.2111111111111,0.8138888888888687,0.8249999999999886,0.7972222222222172,1.020905923344929,0.023289068995747574,0.9679197748137116,41.666666666666664,1.153846153814201,1.0348432055749053,0.0,0.9890456072619664,0
325,263.0361111111111,0.8249999999999886,0.841666666666697,0.7972222222222172,1.0348432055749053,0.01797832387101964,0.7471992631368267,33.333333333333336,0.923076923051361,1.0557491289199052,0.0,0.9935986069383607,0
326,263.8777777777778,0.841666666666697,0.8388888888888459,0.7972222222222172,1.0557491289199052,0.021925709843847667,0.9112570424589693,38.888888888888886,1.0769230768932543,1.052264808362322,0.0,0.9939562517827585,0
327,264.71666666666664,0.8388888888888459,0.8555555555555543,0.7972222222222172,1.052264808362322,0.024787381669684055,1.0301913265971656,36.111111111111114,0.9999999999723078,1.0731707317073222,0.0,0.996987012201209,0
328,265.5722222222222,0.8555555555555543,0.797222222222274,0.7972222222222172,1.0731707317073222,0.02412942460685493,1.0028458946175987,36.111111111111114,0.9999999999723078,1.0000000000000713,0.0,0.9986418371689122,0
329,266.36944444444447,0.797222222222274,0.7722222222221831,0.7972222222222172,1.0000000000000713,0.023016863023348905,0.9566065899218992,36.111111111111114,0.9999999999723078,0.9686411149825355,0.0,0.9951615293613205,0
330,267.14166666666665,0.7722222222221831,0.7750000000000341,0.7972222222222172,0.9686411149825355,0.018465424832901207,0.7674437243225459,33.333333333333336,0.923076923051361,0.9721254355401187,0.0,0.9899751664902507,0
331,267.9166666666667,0.7750000000000341,0.8249999999999886,0.7972222222222172,0.9721254355401187,0.023420194240831953,0.9733694867673169,36.111111111111114,0.9999999999723078,1.0348432055749053,0.0,0.9967910142545082,0
332,268.7416666666667,0.8249999999999886,0.8416666666666401,0.7972222222222172,1.0348432055749053,0.022602535799800694,0.9393866867566331,41.666666666666664,1.153846153814201,1.055749128919834,0.0,0.9885303349906174,0
333,269.5833333333333,0.8416666666666401,0.8277777777777828,0.7972222222222172,1.055749128919834,0.02363457093388136,0.982279222081321,36.111111111111114,0.9999999999723078,1.0383275261324172,0.0,0.9988579131656351,0
334,270.4111111111111,0.8277777777777828,0.8249999999999886,0.7972222222222172,1.0383275261324172,0.02415343540439617,1.0038438102385905,36.111111111111114,0.9999999999723078,1.0348432055749053,0.0,0.9972728434702216,0
335,271.2361111111111,0.8249999999999886,0.8111111111111313,0.7972222222222172,1.0348432055749053,0.019091499925318698,0.793464105926459,33.333333333333336,0.923076923051361,1.0174216027874883,0.0,0.9904122378775984,0
336,272.0472222222222,0.8111111111111313,0.8083333333333371,0.7972222222222172,1.0174216027874883,0.020572003448148805,0.8549954894562292,36.111111111111114,0.9999999999723078,1.0139372822299764,0.0,0.9919574049375128,0
337,272.85555555555555,0.8083333333333371,0.7777777777777715,0.7972222222222172,1.0139372822299764,0.022439066028581284,0.9325927000937728,36.111111111111114,0.9999999999723078,0.9756097560975593,0.0,0.9931912998587981,0
338,273.6333333333333,0.7777777777777715,0.7805555555555657,0.7972222222222172,0.9756097560975593,0.023686424265439435,0.984434304580076,36.111111111111114,0.9999999999723078,0.9790940766550712,0.0,0.9958508788808678,0
339,274.4138888888889,0.7805555555555657,0.8194444444444571,0.7972222222222172,0.9790940766550712,0.024017312949922272,0.9981864086694027,36.111111111111114,0.9999999999723078,1.0278745644599527,0.0,0.9956032090239939,0
340,275.23333333333335,0.8194444444444571,0.8277777777777828,0.7972222222222172,1.0278745644599527,0.02666473921286879,1.1082164074097987,41.666666666666664,1.153846153814201,1.0383275261324172,0.0,0.9946456973544415,0
341,276.06111111111113,0.8277777777777828,0.5499999999999545,0.7972222222222172,1.0383275261324172,0.023365281610447153,0.9710872563850638,36.111111111111114,0.9999999999723078,0.6898954703832226,0.0,0.9981003932464834,0
342,276.6111111111111,0.5499999999999545,0.9722222222222285,0.7972222222222172,0.6898954703832226,0.01973153798718469,0.8200648041693407,38.888888888888886,1.0769230768932543,1.219512195121967,0.0,0.988005847018167,0
343,277.5833333333333,0.9722222222222285,0.8000000000000114,0.7972222222222172,1.219512195121967,0.023309480119224887,0.9687680839515076,36.111111111111114,0.9999999999723078,1.003484320557512,0.0,0.9965314112034867,0
344,278.3833333333333,0.8000000000000114,0.7722222222222399,0.7972222222222172,1.003484320557512,0.02505967883387965,1.0415083015221287,36.111111111111114,0.9999999999723078,0.9686411149826067,0.0,0.9978334604199567,0
345,279.15555555555557,0.7722222222222399,0.7916666666666288,0.7972222222222172,0.9686411149826067,0.023987141503730946,0.9969324495949268,36.111111111111114,0.9999999999723078,0.9930313588849762,0.0,0.9964631040701868,0
346,279.9472222222222,0.7916666666666288,0.8027777777778056,0.7972222222222172,0.9930313588849762,0.023555580629208154,0.9789962966056089,36.111111111111114,0.9999999999723078,1.0069686411150238,0.0,0.9951344038700214,0
347,280.75,0.8027777777778056,0.8083333333333371,0.7972222222222172,1.0069686411150238,0.025488344703672748,1.0593241348745148,38.888888888888886,1.0769230768932543,1.0139372822299764,0.0,0.9967511517702772,0
348,281.55833333333334,0.8083333333333371,0.8138888888888687,0.7972222222222172,1.0139372822299764,0.027684778387498374,1.150610377232676,41.666666666666664,1.153846153814201,1.020905923344929,0.0,0.9913585942854775,0
349,282.3722222222222,0.8138888888888687,0.8000000000000114,0.7972222222222172,1.020905923344929,0.019424058412402752,0.8072856088808948,33.333333333333336,0.923076923051361,1.003484320557512,0.0,0.99353820164375,0
350,283.1722222222222,0.8000000000000114,0.8111111111111313,0.7972222222222172,1.003484320557512,0.019504675561702992,0.8106361478402264,36.111111111111114,0.9999999999723078,1.0174216027874883,0.0,0.9924487464085302,0
351,283.98333333333335,0.8111111111111313,0.7861111111110972,0.7972222222222172,1.0174216027874883,0.025150038061845025,1.0452637321750482,36.111111111111114,0.9999999999723078,0.9860627177700236,0.0,0.9957977672853331,0
352,284.76944444444445,0.7861111111110972,0.7638888888889142,0.7972222222222172,0.9860627177700236,0.01800039173015952,0.7481164280631359,33.333333333333336,0.923076923051361,0.9581881533101423,0.0,0.992076459203715,0
353,285.53333333333336,0.7638888888889142,0.783333333333303,0.7972222222222172,0.9581881533101423,0.024739948011748683,1.028219930681091,36.111111111111114,0.9999999999723078,0.9825783972125117,0.0,0.9950828450231288,0
354,286.31666666666666,0.783333333333303,0.8249999999999886,0.7972222222222172,0.9825783972125117,0.01899539594097633,0.7894699167684317,33.333333333333336,0.923076923051361,1.0348432055749053,0.0,0.994780515996553,0
355,287.14166666666665,0.8249999999999886,0.8277777777777828,0.7972222222222172,1.0348432055749053,0.024667174689388744,1.0251953899489588,36.111111111111114,0.9999999999723078,1.0383275261324172,0.0,0.9993418677703902,0
356,287.96944444444443,0.8277777777777828,0.8194444444444571,0.7972222222222172,1.0383275261324172,0.024200836155587036,1.0058138385135311,36.111111111111114,0.9999999999723078,1.0278745644599527,0.0,0.9980651704973478,0
357,288.7888888888889,0.8194444444444571,0.8249999999999886,0.7972222222222172,1.0278745644599527,0.025320323632683703,1.0523409910989792,38.888888888888886,1.0769230768932543,1.0348432055749053,0.0,0.9941942665182366,0
358,289.6138888888889,0.8249999999999886,0.7916666666666856,0.7972222222222172,1.0348432055749053,0.024612284757167466,1.0229141029277875,36.111111111111114,0.9999999999723078,0.9930313588850475,0.0,0.9963418074746784,0
359,290.40555555555557,0.7916666666666856,0.7888888888888914,0.7972222222222172,0.9930313588850475,0.021062666706126703,0.8753880036549739,36.111111111111114,0.9999999999723078,0.9895470383275355,0.0,0.9913954410342696,0
360,291.19444444444446,0.7888888888888914,0.8000000000000114,0.7972222222222172,0.9895470383275355,0.024033505135795913,0.9988593740381522,36.111111111111114,0.9999999999723078,1.003484320557512,0.0,0.9952949162408484,0
361,291.99444444444447,0.8000000000000114,0.8027777777777487,0.7972222222222172,1.003484320557512,0.02469978118840898,1.0265505525445477,36.111111111111114,0.9999999999723078,1.0069686411149525,0.0,0.997429779748244,0
362,292.7972222222222,0.8027777777777487,0.8333333333333144,0.7972222222222172,1.0069686411149525,0.02461013312854968,1.022824678834124,36.111111111111114,0.9999999999723078,1.0452961672473695,0.0,0.9990090683312292,0
363,293.63055555555553,0.8333333333333144,0.8583333333333485,0.7972222222222172,1.0452961672473695,0.0240154835670319,0.9981103774688588,36.111111111111114,0.9999999999723078,1.0766550522648342,0.0,0.9980751423825145,0
364,294.4888888888889,0.8583333333333485,0.8277777777777828,0.7972222222222172,1.0766550522648342,0.020988705432748816,0.8723140903488675,36.111111111111114,0.9999999999723078,1.0383275261324172,0.0,0.9916070356787245,0
365,295.31666666666666,0.8277777777777828,0.794444444444423,0.7972222222222172,1.0383275261324172,0.026366141598251618,1.0958063563273386,38.888888888888886,1.0769230768932543,0.9965156794424881,0.0,0.9957697567783172,0
366,296.1111111111111,0.794444444444423,0.7833333333333599,0.7972222222222172,0.9965156794424881,0.02603117320030472,1.0818846947800405,38.888888888888886,1.0769230768932543,0.9825783972125831,0.0,0.9969057297593963,0
367,296.89444444444445,0.7833333333333599,0.7694444444444457,0.7972222222222172,0.9825783972125831,0.024475381123573812,1.0172242346800124,36.111111111111114,0.9999999999723078,0.9651567944250948,0.0,0.9991963234352136,0
368,297.6638888888889,0.7694444444444457,0.8194444444444571,0.7972222222222172,0.9651567944250948,0.024997925129971132,1.038941748467047,36.111111111111114,0.9999999999723078,1.0278745644599527,0.0,0.9977580028979202,0
369,298.48333333333335,0.8194444444444571,0.8249999999999886,0.7972222222222172,1.0278745644599527,0.030467499536038643,1.2662633828533065,44.44444444444444,1.2307692307351479,1.0348432055749053,0.0,0.981229705829735,0
370,299.30833333333334,0.8249999999999886,0.8166666666666629,0.7972222222222172,1.0348432055749053,0.027800489199342505,1.1554194480875106,44.44444444444444,1.2307692307351479,1.0243902439024408,0.0,0.9850302341672983,0
371,300.125,0.8166666666666629,0.8249999999999886,0.7972222222222172,1.0243902439024408,0.024608950012386336,1.022775507202119,36.111111111111114,0.9999999999723078,1.0348432055749053,0.0,0.9996815005252266,0
372,300.95,0.8249999999999886,0.8388888888889028,0.7972222222222172,1.0348432055749053,0.02519502300643252,1.0471333568235512,36.111111111111114,0.9999999999723078,1.0522648083623933,0.0,0.9976832523187922,0
373,301.7888888888889,0.8388888888889028,0.783333333333303,0.7972222222222172,1.0522648083623933,0.01844249923692221,0.766490910893142,33.333333333333336,0.923076923051361,0.9825783972125117,0.0,0.9921346643397996,0
374,302.5722222222222,0.783333333333303,0.7583333333333826,0.7972222222222172,0.9825783972125117,0.017806581011974982,0.7400614376839191,33.333333333333336,0.923076923051361,0.9512195121951897,0.0,0.992115130827024,0
375,303.3305555555556,0.7583333333333826,0.7972222222222172,0.7972222222222172,0.9512195121951897,0.024110371667643963,1.0020540331381214,36.111111111111114,0.9999999999723078,1.0,0.0,0.9964157969732568,0
376,304.1277777777778,0.7972222222222172,0.7972222222222172,0.7972222222222172,1.0,0.019386910242367574,0.8057416893544528,33.333333333333336,0.923076923051361,1.0,0.0,0.9943817838574953,0
377,304.925,0.7972222222222172,0.8416666666666401,0.7972222222222172,1.0,0.0209590104217027,0.8710799324522983,36.111111111111114,0.9999999999723078,1.055749128919834,0.0,0.9917897872224499,0
378,305.76666666666665,0.8416666666666401,0.8277777777777828,0.7972222222222172,1.055749128919834,0.024835334878142327,1.0321843156145025,36.111111111111114,0.9999999999723078,1.0383275261324172,0.0,0.9957045733564838,0
379,306.59444444444443,0.8277777777777828,0.830555555555577,0.7972222222222172,1.0383275261324172,0.023931547303558044,0.9946218924094022,36.111111111111114,0.9999999999723078,1.041811846689929,0.0,0.9962880191182839,0
380,307.425,0.830555555555577,0.8055555555555429,0.7972222222222172,1.041811846689929,0.02480100078802231,1.0307573523991216,36.111111111111114,0.9999999999723078,1.0104529616724645,0.0,0.9964649453828645,0
381,308.23055555555555,0.8055555555555429,0.7805555555555657,0.7972222222222172,1.0104529616724645,0.024063876373468865,1.0001216366702301,36.111111111111114,0.9999999999723078,0.9790940766550712,0.0,0.996201752749383,0
382,309.0111111111111,0.7805555555555657,0.7777777777777715,0.7972222222222172,0.9790940766550712,0.018261188361788683,0.7589554279821437,33.333333333333336,0.923076923051361,0.9756097560975593,0.0,0.9920262415845784,0
383,309.7888888888889,0.7777777777777715,0.7972222222222172,0.7972222222222172,0.9756097560975593,0.024009282892052473,0.9978526704763261,36.111111111111114,0.9999999999723078,1.0,0.0,0.9995960381930961,0
384,310.5861111111111,0.7972222222222172,0.8249999999999886,0.7972222222222172,1.0,0.01955222345165135,0.8126122913666199,33.333333333333336,0.923076923051361,1.0348432055749053,0.0,0.9937434364554234,0
385,311.4111111111111,0.8249999999999886,0.8249999999999886,0.7972222222222172,1.0348432055749053,0.019263125257611705,0.8005970468360208,33.333333333333336,0.923076923051361,1.0348432055749053,0.0,0.9952682858202653,0
386,312.2361111111111,0.8249999999999886,0.8500000000000227,0.7972222222222172,1.0348432055749053,0.025474777904691638,1.0587602835236025,36.111111111111114,0.9999999999723078,1.0662020905923697,0.0,0.999426583450456,0
387,313.0861111111111,0.8500000000000227,0.8055555555555429,0.7972222222222172,1.0662020905923697,0.019810671740511546,0.82335369153166,33.333333333333336,0.923076923051361,1.0104529616724645,0.0,0.9934511052449615,0
388,313.89166666666665,0.8055555555555429,0.7777777777777715,0.7972222222222172,1.0104529616724645,0.01971483948889756,0.8193707958899734,33.333333333333336,0.923076923051361,0.9756097560975593,0.0,0.9905947560177288,0
389,314.6694444444444,0.7777777777777715,0.7805555555555657,0.7972222222222172,0.9756097560975593,0.023580143347268462,0.9800171506611354,33.333333333333336,0.923076923051361,0.9790940766550712,0.0,0.9962651019797402,0
390,315.45,0.7805555555555657,0.8000000000000114,0.7972222222222172,0.9790940766550712,0.026405292328462643,1.0974335044961454,38.888888888888886,1.0769230768932543,1.003484320557512,0.0,0.9954733039787238,0
391,316.25,0.8000000000000114,0.8111111111111313,0.7972222222222172,1.003484320557512,0.025568233228624476,1.0626443913903763,38.888888888888886,1.0769230768932543,1.0174216027874883,0.0,0.9988470473231064,0
392,317.06111111111113,0.8111111111111313,0.794444444444423,0.7972222222222172,1.0174216027874883,0.02695876001964491,1.1204362412355842,38.888888888888886,1.0769230768932543,0.9965156794424881,0.0,0.9945670913929557,0
393,317.85555555555555,0.794444444444423,0.8000000000000114,0.7972222222222172,0.9965156794424881,0.023758377666879958,0.9874247684810635,36.111111111111114,0.9999999999723078,1.003484320557512,0.0,0.9992677737206144,0
394,318.65555555555557,0.8000000000000114,0.7916666666666288,0.7972222222222172,1.003484320557512,0.024327234570541718,1.0110670981162264,36.111111111111114,0.9999999999723078,0.9930313588849762,0.0,0.9982817282787173,0
395,319.4472222222222,0.7916666666666288,0.7750000000000341,0.7972222222222172,0.9930313588849762,0.022529357450859044,0.9363453126664204,38.888888888888886,1.0769230768932543,0.9721254355401187,0.0,0.9895694695193464,0
396,320.22222222222223,0.7750000000000341,0.7416666666666742,0.7972222222222172,0.9721254355401187,0.023425694980479205,0.9735981036640099,36.111111111111114,0.9999999999723078,0.9303135888501897,0.0,0.9978169826058447,0
397,320.9638888888889,0.7416666666666742,0.7444444444444116,0.7972222222222172,0.9303135888501897,0.023207121211526904,0.9645139331777133,36.111111111111114,0.9999999999723078,0.9337979094076302,0.0,0.9935190457254628,0
398,321.7083333333333,0.7444444444444116,0.7472222222222626,0.7972222222222172,0.9337979094076302,0.017977253017827637,0.7471547572795659,33.333333333333336,0.923076923051361,0.9372822299652135,0.0,0.9898919871947592,0
399,322.4555555555556,0.7472222222222626,0.7916666666666288,0.7972222222222172,0.9372822299652135,0.018369941280680306,0.7634753210179337,33.333333333333336,0.923076923051361,0.9930313588849762,0.0,0.9932172438631279,0
400,323.2472222222222,0.7916666666666288,0.7916666666666856,0.7972222222222172,0.9930313588849762,0.024434355664951637,1.015519170700063,36.111111111111114,0.9999999999723078,0.9930313588850475,0.0,0.9960724748248211,0
401,324.0388888888889,0.7916666666666856,0.7916666666666856,0.7972222222222172,0.9930313588850475,0.024513507102569915,1.0188087930413277,36.111111111111114,0.9999999999723078,0.9930313588850475,0.0,0.9987808976853789,0
402,324.8305555555556,0.7916666666666856,0.7611111111110631,0.7972222222222172,0.9930313588850475,0.026852808023444735,1.116032757681911,38.888888888888886,1.0769230768932543,0.9547038327525591,0.0,0.9904089164580046,0
403,325.59166666666664,0.7611111111110631,0.7805555555555657,0.7972222222222172,0.9547038327525591,0.023079258440450577,0.9591998132955551,36.111111111111114,0.9999999999723078,0.9790940766550712,0.0,0.9926666838016858,0
404,326.3722222222222,0.7805555555555657,0.7555555555555884,0.7972222222222172,0.9790940766550712,0.023559140093643887,0.9791442319316506,36.111111111111114,0.9999999999723078,0.9477351916376778,0.0,0.9963465527383403,0
405,327.1277777777778,0.7555555555555884,0.7722222222221831,0.7972222222222172,0.9477351916376778,0.02198738278486228,0.9138202389177827,33.333333333333336,0.923076923051361,0.9686411149825355,0.0,0.9915377069547915,0
406,327.9,0.7722222222221831,0.7750000000000341,0.7972222222222172,0.9686411149825355,0.016786867248556676,0.6976809923152137,33.333333333333336,0.923076923051361,0.9721254355401187,0.0,0.9872888925281484,0
407,328.675,0.7750000000000341,0.7888888888888914,0.7972222222222172,0.9721254355401187,0.02361128456701216,0.981311414609911,36.111111111111114,0.9999999999723078,0.9895470383275355,0.0,0.999181537401195,0
408,329.4638888888889,0.7888888888888914,0.8472222222222285,0.7972222222222172,0.9895470383275355,0.02372875650568555,0.986193679866991,33.333333333333336,0.923076923051361,1.0627177700348578,0.0,0.9967073905587474,0
409,330.31111111111113,0.8472222222222285,0.8444444444444343,0.7972222222222172,1.0627177700348578,0.01910028146385785,0.7938290764972828,33.333333333333336,0.923076923051361,1.0592334494773459,0.0,0.9912856314289002,0
410,331.15555555555557,0.8444444444444343,0.8138888888888687,0.7972222222222172,1.0592334494773459,0.019402802343736633,0.8064021828753086,33.333333333333336,0.923076923051361,1.020905923344929,0.0,0.9895820605781356,0
411,331.96944444444443,0.8138888888888687,0.7861111111110972,0.7972222222222172,1.020905923344929,0.02239073815198789,0.930584139449376,33.333333333333336,0.923076923051361,0.9860627177700236,0.0,0.9886566020919333,0
412,332.75555555555553,0.7861111111110972,0.7916666666666856,0.7972222222222172,0.9860627177700236,0.01896327183389313,0.7881348029216849,33.333333333333336,0.923076923051361,0.9930313588850475,0.0,0.9868330647893283,0
413,333.5472222222222,0.7916666666666856,0.830555555555577,0.7972222222222172,0.9930313588850475,0.017035417124727188,0.7080110033696215,30.555555555555557,0.8461538461304142,1.041811846689929,0.0,0.9851541492545353,0
414,334.3777777777778,0.830555555555577,0.8333333333333144,0.7972222222222172,1.041811846689929,0.018634343564724425,0.7744641758870976,33.333333333333336,0.923076923051361,1.0452961672473695,0.0,0.9936321033165592,0
415,335.2111111111111,0.8333333333333144,0.8722222222222058,0.7972222222222172,1.0452961672473695,0.024260486962299228,1.00829299280737,33.333333333333336,0.923076923051361,1.0940766550522512,0.0,0.9982073602541304,0
416,336.0833333333333,0.8722222222222058,0.8611111111111427,0.7972222222222172,1.0940766550522512,0.025820577243269,1.073132091086526,38.888888888888886,1.0769230768932543,1.080139372822346,0.0,0.9917741090293708,0
417,336.94444444444446,0.8611111111111427,0.8444444444444343,0.7972222222222172,1.080139372822346,0.025474940449856483,1.0587670390825896,38.888888888888886,1.0769230768932543,1.0592334494773459,0.0,0.9902260314444464,0
418,337.7888888888889,0.8444444444444343,0.7916666666666856,0.7972222222222172,1.0592334494773459,0.025253040471522947,1.0495446276113976,36.111111111111114,0.9999999999723078,0.9930313588850475,0.0,0.9953928212195619,0
419,338.5805555555556,0.7916666666666856,0.7805555555555088,0.7972222222222172,0.9930313588850475,0.024397536982586877,1.0139889450499977,36.111111111111114,0.9999999999723078,0.9790940766549998,0.0,0.9965179392447627,0
420,339.3611111111111,0.7805555555555088,0.8083333333333371,0.7972222222222172,0.9790940766549998,0.023343669686586244,0.9701890406392749,36.111111111111114,0.9999999999723078,1.0139372822299764,0.0,0.9977511372217547,0
421,340.1694444444444,0.8083333333333371,0.8027777777778056,0.7972222222222172,1.0139372822299764,0.025837025241932432,1.0738156883211494,38.888888888888886,1.0769230768932543,1.0069686411150238,0.0,0.9937335027181238,0
422,340.97222222222223,0.8027777777778056,0.8333333333333144,0.7972222222222172,1.0069686411150238,0.02363784157340841,0.9824151535208774,36.111111111111114,0.9999999999723078,1.0452961672473695,0.0,0.9943417913890289,0
423,341.80555555555554,0.8333333333333144,0.8611111111111427,0.7972222222222172,1.0452961672473695,0.023055544781778736,0.9582142470985616,36.111111111111114,0.9999999999723078,1.080139372822346,0.0,0.9968690556853187,0
424,342.6666666666667,0.8611111111111427,0.8444444444444343,0.7972222222222172,1.080139372822346,0.0186910160159529,0.7768195463933734,33.333333333333336,0.923076923051361,1.0592334494773459,0.0,0.9933079502843383,0
425,343.5111111111111,0.8444444444444343,0.7555555555555316,0.7972222222222172,1.0592334494773459,0.01820938665510313,0.7568024910708742,33.333333333333336,0.923076923051361,0.9477351916376066,0.0,0.9916547613432304,0
426,344.26666666666665,0.7555555555555316,0.7916666666666856,0.7972222222222172,0.9477351916376066,0.022918050113220397,0.9524998147761115,33.333333333333336,0.923076923051361,0.9930313588850475,0.0,0.992591011875918,0
427,345.05833333333334,0.7916666666666856,0.794444444444423,0.7972222222222172,0.9930313588850475,0.025596557666477535,1.0638215867309655,38.888888888888886,1.0769230768932543,0.9965156794424881,0.0,0.9941343734291695,0
428,345.85277777777776,0.794444444444423,0.7444444444444684,0.7972222222222172,0.9965156794424881,0.02405907436424663,0.9999220597920867,36.111111111111114,0.9999999999723078,0.9337979094077016,0.0,0.9959248363170328,0
429,346.59722222222223,0.7444444444444684,0.7888888888888914,0.7972222222222172,0.9337979094077016,0.023310004548191297,0.9687898798063426,33.333333333333336,0.923076923051361,0.9895470383275355,0.0,0.9905175343996941,0
430,347.3861111111111,0.7888888888888914,0.8222222222221944,0.7972222222222172,0.9895470383275355,0.024850045741054125,1.0327957155429197,33.333333333333336,0.923076923051361,1.0313588850173934,0.0,0.9980626431796884,0
431,348.2083333333333,0.8222222222221944,0.8166666666666629,0.7972222222222172,1.0313588850173934,0.025166344012713514,1.0459414257443203,36.111111111111114,0.9999999999723078,1.0243902439024408,0.0,0.9971205913178183,0
432,349.025,0.8166666666666629,0.7694444444444457,0.7972222222222172,1.0243902439024408,0.01823287432160845,0.7577786647804751,33.333333333333336,0.923076923051361,0.9651567944250948,0.0,0.9896454837054748,0
433,349.7944444444444,0.7694444444444457,0.7694444444444457,0.7972222222222172,0.9651567944250948,0.01749588419239517,0.7271485301006259,33.333333333333336,0.923076923051361,0.9651567944250948,0.0,0.9883227337899994,0
434,350.56388888888887,0.7694444444444457,0.7583333333333258,0.7972222222222172,0.9651567944250948,0.022890045204018567,0.9513358994039142,33.333333333333336,0.923076923051361,0.9512195121951185,0.0,0.9946905374770046,0
435,351.3222222222222,0.7583333333333258,0.75,0.7972222222222172,0.9512195121951185,0.023168622729823587,0.9629138931869455,36.111111111111114,0.9999999999723078,0.940766550522654,0.0,0.9946970064568942,0
436,352.0722222222222,0.75,0.7750000000000341,0.7972222222222172,0.940766550522654,0.023329782979859076,0.9696118935643653,33.333333333333336,0.923076923051361,0.9721254355401187,0.0,0.9918900842420443,0
437,352.84722222222223,0.7750000000000341,0.8000000000000114,0.7972222222222172,0.9721254355401187,0.01839828119773298,0.7646531596913849,33.333333333333336,0.923076923051361,1.003484320557512,0.0,0.9925916729670858,0
438,353.64722222222224,0.8000000000000114,0.8055555555555429,0.7972222222222172,1.003484320557512,0.023713326381970722,0.9855523866545346,36.111111111111114,0.9999999999723078,1.0104529616724645,0.0,0.9942776128782238,0
439,354.4527777777778,0.8055555555555429,0.8027777777777487,0.7972222222222172,1.0104529616724645,0.024342965328898014,1.0117208860408813,36.111111111111114,0.9999999999723078,1.0069686411149525,0.0,0.9943713198529864,0
440,355.25555555555553,0.8027777777777487,0.5388888888888914,0.7972222222222172,1.0069686411149525,0.02771403496676903,1.1518263134139224,41.666666666666664,1.153846153814201,0.6759581881533175,0.0,0.9897865771089218,0
441,355.7944444444444,0.5388888888888914,0.9333333333333371,0.7972222222222172,0.6759581881533175,0.023209446609540472,0.9646105793219647,41.666666666666664,1.153846153814201,1.1707317073170853,1.0,0.9846571883878252,1
442,356.72777777777776,0.9333333333333371,0.7666666666667084,0.7972222222222172,1.1707317073170853,0.02523039562303173,1.0486034823618253,38.888888888888886,1.0769230768932543,0.9616724738676542,0.0,0.997981446491341,0
443,357.49444444444447,0.7666666666667084,0.7222222222221717,0.7972222222222172,0.9616724738676542,0.025986277598509425,1.0800187833179824,36.111111111111114,0.9999999999723078,0.9059233449476776,0.0,0.9978587673053521,0
444,358.21666666666664,0.7222222222221717,0.7555555555555884,0.7972222222222172,0.9059233449476776,0.024781317376809588,1.0299392877975668,36.111111111111114,0.9999999999723078,0.9477351916376778,0.0,0.996016921458579,0
445,358.97222222222223,0.7555555555555884,0.8027777777777487,0.7972222222222172,0.9477351916376778,0.02788738626658043,1.1590309874654163,41.666666666666664,1.153846153814201,1.0069686411149525,0.0,0.9872077502686338,0
446,359.775,0.8027777777777487,0.7750000000000341,0.7972222222222172,1.0069686411149525,0.025014676173485604,1.0396379405848764,36.111111111111114,0.9999999999723078,0.9721254355401187,0.0,0.9954600447997852,0
447,360.55,0.7750000000000341,0.7194444444444343,0.7972222222222172,0.9721254355401187,0.025048371842288485,1.0410383702957349,36.111111111111114,0.9999999999723078,0.9024390243902369,0.0,0.995022135641467,0
448,361.26944444444445,0.7194444444444343,0.7250000000000227,0.7972222222222172,0.9024390243902369,0.025510547870106124,1.0602469233233904,36.111111111111114,0.9999999999723078,0.9094076655052608,0.0,0.997958102871237,0
449,361.99444444444447,0.7250000000000227,0.6944444444444002,0.7972222222222172,0.9094076655052608,0.025154398975086756,1.0454449766105252,36.111111111111114,0.9999999999723078,0.8710801393727724,0.0,0.9983738478411983,0
450,362.68888888888887,0.6944444444444002,0.6972222222222513,0.7972222222222172,0.8710801393727724,0.023599291183897707,0.9808129561835345,36.111111111111114,0.9999999999723078,0.8745644599303556,0.0,0.9992649167301393,0
451,363.3861111111111,0.6972222222222513,0.7083333333333144,0.7972222222222172,0.8745644599303556,0.02032461169202758,0.8447136111673483,36.111111111111114,0.9999999999723078,0.8885017421602606,0.0,0.9903704179958612,0
452,364.09444444444443,0.7083333333333144,0.7027777777777828,0.7972222222222172,0.8885017421602606,0.019639494200613058,0.8162393613752263,33.333333333333336,0.923076923051361,0.8815331010453081,0.0,0.9936943208146005,0
453,364.7972222222222,0.7027777777777828,0.7138888888889028,0.7972222222222172,0.8815331010453081,0.01903435975190929,0.7910892963628242,36.111111111111114,0.9999999999723078,0.8954703832752844,0.0,0.991852836905011,0
454,365.5111111111111,0.7138888888889028,0.7472222222222058,0.7972222222222172,0.8954703832752844,0.024124300193641177,1.0026329182687024,36.111111111111114,0.9999999999723078,0.9372822299651421,0.0,0.9957400830848226,0
455,366.2583333333333,0.7472222222222058,0.7472222222222058,0.7972222222222172,0.9372822299651421,0.03008977917170346,1.2505649017308273,50.0,1.3846153845770415,0.9372822299651421,0.0,0.9671575749176955,0
456,367.00555555555553,0.7472222222222058,0.7194444444444912,0.7972222222222172,0.9372822299651421,0.025590924269847985,1.063587456461606,36.111111111111114,0.9999999999723078,0.9024390243903082,0.0,0.9981293541400115,0
457,367.725,0.7194444444444912,0.6888888888888687,0.7972222222222172,0.9024390243903082,0.019345443650410334,0.8040182913793396,33.333333333333336,0.923076923051361,0.8641114982578199,0.0,0.9929488159761093,0
458,368.4138888888889,0.6888888888888687,0.705555555555577,0.7972222222222172,0.8641114982578199,0.023628482615413365,0.9820261847511635,33.333333333333336,0.923076923051361,0.88501742160282,0.0,0.9951558311673598,0
459,369.11944444444447,0.705555555555577,0.6916666666666629,0.7972222222222172,0.88501742160282,0.01866908994993381,0.7759082745478726,33.333333333333336,0.923076923051361,0.8675958188153318,0.0,0.9923800017020066,0
460,369.81111111111113,0.6916666666666629,0.7166666666666401,0.7972222222222172,0.8675958188153318,0.01832079132355112,0.7614325937863182,33.333333333333336,0.923076923051361,0.898954703832725,0.0,0.9878319639663853,0
461,370.52777777777777,0.7166666666666401,0.7583333333333258,0.7972222222222172,0.898954703832725,0.018871420395821258,0.7843173543465154,33.333333333333336,0.923076923051361,0.9512195121951185,0.0,0.9934703763891362,0
462,371.2861111111111,0.7583333333333258,0.75,0.7972222222222172,0.9512195121951185,0.020871457813332737,0.8674411480512009,36.111111111111114,0.9999999999723078,0.940766550522654,0.0,0.9911890202748084,0
463,372.0361111111111,0.75,0.7333333333333485,0.7972222222222172,0.940766550522654,0.024910471718283974,1.0353070867911174,36.111111111111114,0.9999999999723078,0.9198606271777252,0.0,0.9991645885104556,0
464,372.76944444444445,0.7333333333333485,0.7416666666666742,0.7972222222222172,0.9198606271777252,0.024437768451529042,1.0156610099301366,36.111111111111114,0.9999999999723078,0.9303135888501897,0.0,0.9991179162630272,0
465,373.5111111111111,0.7416666666666742,0.7583333333333258,0.7972222222222172,0.9303135888501897,0.019556324149507885,0.8127827209594304,33.333333333333336,0.923076923051361,0.9512195121951185,0.0,0.9930947691565001,0
466,374.26944444444445,0.7583333333333258,0.7027777777777828,0.7972222222222172,0.9512195121951185,0.02557005644574196,1.0627201663344976,36.111111111111114,0.9999999999723078,0.8815331010453081,0.0,0.9957597678530477,0
467,374.97222222222223,0.7027777777777828,0.7027777777777828,0.7972222222222172,0.8815331010453081,0.01879014632393344,0.7809395129491536,33.333333333333336,0.923076923051361,0.8815331010453081,0.0,0.9913834465674813,0
468,375.675,0.7027777777777828,0.7277777777777601,0.7972222222222172,0.8815331010453081,0.024279844888445222,1.0090975298852374,36.111111111111114,0.9999999999723078,0.9128919860627014,0.0,0.9923154082906496,0
469,376.40277777777777,0.7277777777777601,0.7666666666666515,0.7972222222222172,0.9128919860627014,0.01967102838307395,0.8175499572943701,33.333333333333336,0.923076923051361,0.9616724738675829,0.0,0.990147600128175,0
470,377.1694444444444,0.7666666666666515,0.7777777777777715,0.7972222222222172,0.9616724738675829,0.01937784622522105,0.8053649786565296,36.111111111111114,0.9999999999723078,0.9756097560975593,0.0,0.9912237060750981,0
471,377.9472222222222,0.7777777777777715,0.8055555555555998,0.7972222222222172,0.9756097560975593,0.024731934252656226,1.0278868698834438,36.111111111111114,0.9999999999723078,1.0104529616725357,0.0,0.9983056829146137,0
472,378.7527777777778,0.8055555555555998,0.7749999999999773,0.7972222222222172,1.0104529616725357,0.019148146867383257,0.7958184162433302,33.333333333333336,0.923076923051361,0.9721254355400474,0.0,0.9918938656094641,0
473,379.52777777777777,0.7749999999999773,0.7472222222222058,0.7972222222222172,0.9721254355400474,0.026168342244626754,1.08758559379476,38.888888888888886,1.0769230768932543,0.9372822299651421,0.0,0.996877638104853,0
474,380.275,0.7472222222222058,0.7555555555555884,0.7972222222222172,0.9372822299651421,0.023618346995348188,0.9816049370365008,36.111111111111114,0.9999999999723078,0.9477351916376778,0.0,0.9934423137063562,0
475,381.03055555555557,0.7555555555555884,0.7722222222222399,0.7972222222222172,0.9477351916376778,0.018693893409683797,0.7769391340974834,33.333333333333336,0.923076923051361,0.9686411149826067,0.0,0.9895329931088956,0
476,381.8027777777778,0.7722222222222399,0.7777777777777715,0.7972222222222172,0.9686411149826067,0.018079484366329137,0.751403606550378,33.333333333333336,0.923076923051361,0.9756097560975593,0.0,0.9859717989121838,0
477,382.5805555555556,0.7777777777777715,0.7749999999999773,0.7972222222222172,0.9756097560975593,0.026259112623072157,1.0913581123218283,38.888888888888886,1.0769230768932543,0.9721254355400474,0.0,0.9966347492361485,0
478,383.35555555555555,0.7749999999999773,0.8222222222222513,0.7972222222222172,0.9721254355400474,0.024303228487353293,1.0100693784290142,36.111111111111114,0.9999999999723078,1.0313588850174646,0.0,0.9987242076781457,0
479,384.1777777777778,0.8222222222222513,0.8194444444444002,0.7972222222222172,1.0313588850174646,0.02424329125594603,1.007578320004254,36.111111111111114,0.9999999999723078,1.0278745644598815,0.0,0.9962287045888105,0
480,384.9972222222222,0.8194444444444002,0.8027777777778056,0.7972222222222172,1.0278745644598815,0.02822824900442854,1.173197624376517,41.666666666666664,1.153846153814201,1.0069686411150238,0.0,0.9914538872135811,0
481,385.8,0.8027777777778056,0.7666666666666515,0.7972222222222172,1.0069686411150238,0.025263209743720677,1.0499672739463561,36.111111111111114,0.9999999999723078,0.9616724738675829,0.0,0.9927856282115732,0
482,386.56666666666666,0.7666666666666515,0.7666666666666515,0.7972222222222172,0.9616724738675829,0.018094060365080114,0.7520094013733186,33.333333333333336,0.923076923051361,0.9616724738675829,0.0,0.9849729811959609,0
483,387.3333333333333,0.7666666666666515,0.7750000000000341,0.7972222222222172,0.9616724738675829,0.02452711184623718,1.0193742214158676,33.333333333333336,0.923076923051361,0.9721254355401187,0.0,0.9936898712308643,0
484,388.10833333333335,0.7750000000000341,0.8083333333333371,0.7972222222222172,0.9721254355401187,0.024763143722998184,1.0291839704034758,36.111111111111114,0.9999999999723078,1.0139372822299764,0.0,0.99285889179648,0
485,388.9166666666667,0.8083333333333371,0.8111111111110745,0.7972222222222172,1.0139372822299764,0.018333904034318067,0.7619775727227909,33.333333333333336,0.923076923051361,1.017421602787417,0.0,0.9865427260064735,0
486,389.72777777777776,0.8111111111110745,0.8250000000000455,0.7972222222222172,1.017421602787417,0.028631343939001175,1.1899507010397075,41.666666666666664,1.153846153814201,1.0348432055749766,0.0,0.9893718357821489,0
487,390.5527777777778,0.8250000000000455,0.783333333333303,0.7972222222222172,1.0348432055749766,0.024890683356796367,1.0344846603386681,36.111111111111114,0.9999999999723078,0.9825783972125117,0.0,0.9986374171233379,0
488,391.3361111111111,0.783333333333303,0.7527777777777942,0.7972222222222172,0.9825783972125117,0.02445379483371304,1.0163270843119614,36.111111111111114,0.9999999999723078,0.9442508710801659,0.0,0.9945263089695389,0
489,392.0888888888889,0.7527777777777942,0.7527777777777374,0.7972222222222172,0.9442508710801659,0.024129613670814957,1.0028537523273957,36.111111111111114,0.9999999999723078,0.9442508710800946,0.0,0.9934712373001371,0
490,392.84166666666664,0.7527777777777374,0.7250000000000227,0.7972222222222172,0.9442508710800946,0.024786722662935547,1.0301639375390743,36.111111111111114,0.9999999999723078,0.9094076655052608,0.0,0.9946182675061683,0
491,393.56666666666666,0.7250000000000227,0.7194444444444343,0.7972222222222172,0.9094076655052608,0.02761813339024915,1.1478405365515518,38.888888888888886,1.0769230768932543,0.9024390243902369,0.0,0.9935920126363667,0
492,394.2861111111111,0.7194444444444343,0.7333333333333485,0.7972222222222172,0.9024390243902369,0.017468595269927938,0.7260143719385193,30.555555555555557,0.8461538461304142,0.9198606271777252,0.0,0.9846521441124532,0
493,395.01944444444445,0.7333333333333485,0.7555555555555316,0.7972222222222172,0.9198606271777252,0.02465503042494239,1.0246906607255475,36.111111111111114,0.9999999999723078,0.9477351916376066,0.0,0.9964904187077185,0
494,395.775,0.7555555555555316,0.7444444444444684,0.7972222222222172,0.9477351916376066,0.02462802106542508,1.0235681215125532,36.111111111111114,0.9999999999723078,0.9337979094077016,0.0,0.9946232148261698,0
495,396.51944444444445,0.7444444444444684,0.7333333333333485,0.7972222222222172,0.9337979094077016,0.018174639267406645,0.7553583507456131,33.333333333333336,0.923076923051361,0.9198606271777252,0.0,0.9915022571830938,0
496,397.2527777777778,0.7333333333333485,0.7055555555555202,0.7972222222222172,0.9198606271777252,0.02048179605106078,0.851246369064516,36.111111111111114,0.9999999999723078,0.8850174216027487,0.0,0.9904408731842695,0
497,397.9583333333333,0.7055555555555202,0.6944444444444571,0.7972222222222172,0.8850174216027487,0.01773756626600741,0.7371931075936113,33.333333333333336,0.923076923051361,0.8710801393728437,0.0,0.9853295412871261,0
498,398.65277777777777,0.6944444444444571,0.6972222222222513,0.7972222222222172,0.8710801393728437,0.01821026935386221,0.7568391770193024,33.333333333333336,0.923076923051361,0.8745644599303556,0.0,0.9887707651967768,0
499,399.35,0.6972222222222513,0.7194444444444343,0.7972222222222172,0.8745644599303556,0.024503987175636524,1.0184131342223643,36.111111111111114,0.9999999999723078,0.9024390243902369,0.0,0.998510126313028,0
500,400.06944444444446,0.7194444444444343,0.7249999999999659,0.7972222222222172,0.9024390243902369,0.023870154705729486,0.992070347327188,36.111111111111114,0.9999999999723078,0.9094076655051895,0.0,0.9922793745311036,0
501,400.7944444444444,0.7249999999999659,0.7555555555555884,0.7972222222222172,0.9094076655051895,0.018813845684154343,0.781924484886522,33.333333333333336,0.923076923051361,0.9477351916376778,0.0,0.9925856668376978,0
502,401.55,0.7555555555555884,0.76111111111112,0.7972222222222172,0.9477351916376778,0.019129133180684165,0.7950281861421817,33.333333333333336,0.923076923051361,0.9547038327526304,0.0,0.9926299336943383,0
503,402.31111111111113,0.76111111111112,0.7777777777777715,0.7972222222222172,0.9547038327526304,0.025345626522573748,1.0533926075242206,36.111111111111114,0.9999999999723078,0.9756097560975593,0.0,0.9944669979905469,0
504,403.0888888888889,0.7777777777777715,0.75,0.7972222222222172,0.9756097560975593,0.01865355890103192,0.7752627867716768,30.555555555555557,0.8461538461304142,0.940766550522654,0.0,0.9903263461920362,0
505,403.8388888888889,0.75,0.7361111111110858,0.7972222222222172,0.940766550522654,0.018507697387220884,0.7692006189955521,33.333333333333336,0.923076923051361,0.9233449477351658,0.0,0.9898702458166887,0
506,404.575,0.7361111111110858,0.7111111111111086,0.7972222222222172,0.9233449477351658,0.023889101175240866,0.9928577838067792,33.333333333333336,0.923076923051361,0.8919860627177725,0.0,0.9951954710225865,0
507,405.2861111111111,0.7111111111111086,0.7416666666666742,0.7972222222222172,0.8919860627177725,0.01840433176145105,0.7649046278918766,33.333333333333336,0.923076923051361,0.9303135888501897,0.0,0.9873142933971395,0
508,406.02777777777777,0.7416666666666742,0.7638888888889142,0.7972222222222172,0.9303135888501897,0.02338393571537091,0.9718625418651511,33.333333333333336,0.923076923051361,0.9581881533101423,0.0,0.9932403208390905,0
509,406.7916666666667,0.7638888888889142,0.8111111111110745,0.7972222222222172,0.9581881533101423,0.02511923061585911,1.0439833402372374,36.111111111111114,0.9999999999723078,1.017421602787417,0.0,0.9961198867403633,0
510,407.60277777777776,0.8111111111110745,0.7666666666667084,0.7972222222222172,1.017421602787417,0.02606918967529856,1.0834647020324544,36.111111111111114,0.9999999999723078,0.9616724738676542,0.0,0.9959499092696136,0
511,408.36944444444447,0.7666666666667084,0.7694444444444457,0.7972222222222172,0.9616724738676542,0.025260446862466628,1.0498524455089573,33.333333333333336,0.923076923051361,0.9651567944250948,0.0,0.9982977977407951,0
512,409.1388888888889,0.7694444444444457,0.7638888888888573,0.7972222222222172,0.9651567944250948,0.025440904469280327,1.0573524656335243,36.111111111111114,0.9999999999723078,0.958188153310071,0.0,0.9961733004984541,0
513,409.90277777777777,0.7638888888888573,0.7444444444444684,0.7972222222222172,0.958188153310071,0.02409826566931549,1.0015508942974005,33.333333333333336,0.923076923051361,0.9337979094077016,0.0,0.9978449651429456,0
514,410.64722222222224,0.7444444444444684,0.73888888888888,0.7972222222222172,0.9337979094077016,0.01835349253796681,0.7627916928597568,33.333333333333336,0.923076923051361,0.9268292682926778,0.0,0.9878475757184668,0
515,411.3861111111111,0.73888888888888,0.7361111111110858,0.7972222222222172,0.9268292682926778,0.025434231699458684,1.0570751378509353,36.111111111111114,0.9999999999723078,0.9233449477351658,0.0,0.9978345038388017,0
516,412.1222222222222,0.7361111111110858,0.76111111111112,0.7972222222222172,0.9233449477351658,0.02928251244968373,1.2170139931936672,44.44444444444444,1.2307692307351479,0.9547038327526304,0.0,0.9875187388720783,0
517,412.8833333333333,0.76111111111112,0.7722222222222399,0.7972222222222172,0.9547038327526304,0.019587481481096257,0.8140776545345045,36.111111111111114,0.9999999999723078,0.9686411149826067,0.0,0.9911458233520852,0
518,413.65555555555557,0.7722222222222399,0.8027777777777487,0.7972222222222172,0.9686411149826067,0.025524035382506558,1.0608074794352647,36.111111111111114,0.9999999999723078,1.0069686411149525,0.0,0.9950475420604694,0
519,414.4583333333333,0.8027777777777487,0.7861111111111541,0.7972222222222172,1.0069686411149525,0.024062292635256513,1.0000558147374536,41.666666666666664,1.153846153814201,0.986062717770095,0.0,0.9885416398312217,0
520,415.24444444444447,0.7861111111111541,0.7805555555555088,0.7972222222222172,0.986062717770095,0.024413920263432923,1.014669852539692,36.111111111111114,0.9999999999723078,0.9790940766549998,0.0,0.9938516064065606,0
521,416.025,0.7805555555555088,0.7250000000000227,0.7972222222222172,0.9790940766549998,0.018825522854789844,0.782409801168338,33.333333333333336,0.923076923051361,0.9094076655052608,0.0,0.9916751763316012,0
522,416.75,0.7250000000000227,0.7583333333333258,0.7972222222222172,0.9094076655052608,0.024398778776528917,1.0140405553961631,33.333333333333336,0.923076923051361,0.9512195121951185,0.0,0.9940731635432118,0
523,417.5083333333333,0.7583333333333258,0.7555555555555884,0.7972222222222172,0.9512195121951185,0.02590328895251403,1.0765696823015944,36.111111111111114,0.9999999999723078,0.9477351916376778,0.0,0.9955478012100316,0
524,418.2638888888889,0.7555555555555884,0.7611111111110631,0.7972222222222172,0.9477351916376778,0.02417833516637116,1.0048786722164629,36.111111111111114,0.9999999999723078,0.9547038327525591,0.0,0.9939357062214267,0
525,419.025,0.7611111111110631,0.7583333333333826,0.7972222222222172,0.9547038327525591,0.025078697445545813,1.0422987363104212,36.111111111111114,0.9999999999723078,0.9512195121951897,0.0,0.9958897316497459,0
526,419.78333333333336,0.7583333333333826,0.7916666666666288,0.7972222222222172,0.9512195121951897,0.024140401558953726,1.0033021090332779,36.111111111111114,0.9999999999723078,0.9930313588849762,0.0,0.9948368532800411,0
527,420.575,0.7916666666666288,0.8138888888889255,0.7972222222222172,0.9930313588849762,0.024803186745780758,1.0308482032502952,36.111111111111114,0.9999999999723078,1.0209059233450002,0.0,0.9951081529507066,0
528,421.3888888888889,0.8138888888889255,0.7611111111110631,0.7972222222222172,1.0209059233450002,0.02831632864044871,1.1768583126366567,44.44444444444444,1.2307692307351479,0.9547038327525591,0.0,0.9911263259623948,0
529,422.15,0.7611111111110631,0.7305555555555543,0.7972222222222172,0.9547038327525591,0.024414106278548425,1.0146775835360982,36.111111111111114,0.9999999999723078,0.9163763066202133,0.0,0.9967966295059563,0
530,422.88055555555553,0.7305555555555543,0.76111111111112,0.7972222222222172,0.9163763066202133,0.02425743746709345,1.0081662523733317,33.333333333333336,0.923076923051361,0.9547038327526304,0.0,0.9969252858637636,0
531,423.64166666666665,0.76111111111112,0.75,0.7972222222222172,0.9547038327526304,0.018287590841332465,0.7600527445841601,33.333333333333336,0.923076923051361,0.940766550522654,0.0,0.991424378765293,0
532,424.39166666666665,0.75,0.7944444444444798,0.7972222222222172,0.940766550522654,0.024716794063470812,1.0272576266745523,36.111111111111114,0.9999999999723078,0.9965156794425594,0.0,0.9942490094889338,0
533,425.18611111111113,0.7944444444444798,0.8194444444444002,0.7972222222222172,0.9965156794425594,0.024459083283778466,1.0165468782160187,33.333333333333336,0.923076923051361,1.0278745644598815,0.0,0.9965233945342618,0
534,426.00555555555553,0.8194444444444002,0.7833333333333599,0.7972222222222172,1.0278745644598815,0.02469404719328474,1.0263122412891492,36.111111111111114,0.9999999999723078,0.9825783972125831,0.0,0.995309405344228,0
535,426.7888888888889,0.7833333333333599,0.7722222222222399,0.7972222222222172,0.9825783972125831,0.023709394376622336,0.9853889681111797,36.111111111111114,0.9999999999723078,0.9686411149826067,0.0,0.9974997622454899,0
536,427.56111111111113,0.7722222222222399,0.7527777777777374,0.7972222222222172,0.9686411149826067,0.025089037256587815,1.042728470430631,36.111111111111114,0.9999999999723078,0.9442508710800946,0.0,0.9943093502535136,0
537,428.31388888888887,0.7527777777777374,0.7694444444444457,0.7972222222222172,0.9442508710800946,0.018730859012140944,0.7784754659110353,33.333333333333336,0.923076923051361,0.9651567944250948,0.0,0.9932372927737905,0
538,429.0833333333333,0.7694444444444457,0.7527777777777942,0.7972222222222172,0.9651567944250948,0.024136186465002964,1.0031269250107484,36.111111111111114,0.9999999999723078,0.9442508710801659,0.0,0.995091133647203,0
539,429.8361111111111,0.7527777777777942,0.7444444444444684,0.7972222222222172,0.9442508710801659,0.023751662834924303,0.9871456925491052,36.111111111111114,0.9999999999723078,0.9337979094077016,0.0,0.9922722195814273,0
540,430.5805555555556,0.7444444444444684,0.783333333333303,0.7972222222222172,0.9337979094077016,0.023428004240435816,0.9736940790925509,33.333333333333336,0.923076923051361,0.9825783972125117,0.0,0.9944084151831354,0
541,431.3638888888889,0.783333333333303,0.8249999999999886,0.7972222222222172,0.9825783972125117,0.024861669464365913,1.0332788104941388,36.111111111111114,0.9999999999723078,1.0348432055749053,0.0,0.9951173062290866,0
542,432.18888888888887,0.8249999999999886,0.7694444444444457,0.7972222222222172,1.0348432055749053,0.025857746022568216,1.0746768671570495,38.888888888888886,1.0769230768932543,0.9651567944250948,0.0,0.9958550690058054,0
543,432.9583333333333,0.7694444444444457,0.7416666666666742,0.7972222222222172,0.9651567944250948,0.020263006871650856,0.8421532458784926,33.333333333333336,0.923076923051361,0.9303135888501897,0.0,0.990024791070698,0
544,433.7,0.7416666666666742,0.7305555555555543,0.7972222222222172,0.9303135888501897,0.024179291444004995,1.0049184161852824,36.111111111111114,0.9999999999723078,0.9163763066202133,0.0,0.9957407568249254,0
545,434.43055555555554,0.7305555555555543,0.7027777777777828,0.7972222222222172,0.9163763066202133,0.018940725940198716,0.7871977703442274,33.333333333333336,0.923076923051361,0.8815331010453081,0.0,0.9905505785028383,0
546,435.1333333333333,0.7027777777777828,0.716666666666697,0.7972222222222172,0.8815331010453081,0.018114588826907543,0.7528625872242818,33.333333333333336,0.923076923051361,0.8989547038327963,0.0,0.9892070322953567,0
547,435.85,0.716666666666697,0.7305555555555543,0.7972222222222172,0.8989547038327963,0.01847071676052599,0.7676636627578628,33.333333333333336,0.923076923051361,0.9163763066202133,0.0,0.9901839293897008,0
548,436.5805555555556,0.7305555555555543,0.7277777777777601,0.7972222222222172,0.9163763066202133,0.01977137770983573,0.8217205876351409,36.111111111111114,0.9999999999723078,0.9128919860627014,0.0,0.9920723023244007,0
549,437.30833333333334,0.7277777777777601,0.7333333333333485,0.7972222222222172,0.9128919860627014,0.02119926186901531,0.8810650515149775,36.111111111111114,0.9999999999723078,0.9198606271777252,0.0,0.9903149564030171,0
550,438.0416666666667,0.7333333333333485,0.7333333333332916,0.7972222222222172,0.9198606271777252,0.02449447913838315,1.0180179695518108,36.111111111111114,0.9999999999723078,0.9198606271776539,0.0,0.9958824673939104,0
551,438.775,0.7333333333332916,0.7638888888889142,0.7972222222222172,0.9198606271776539,0.025301077587481617,1.0515411039183684,33.333333333333336,0.923076923051361,0.9581881533101423,0.0,0.996626942757718,0
552,439.5388888888889,0.7638888888889142,0.7111111111111086,0.7972222222222172,0.9581881533101423,0.024252849989884032,1.0079755916857656,41.666666666666664,1.153846153814201,0.8919860627177725,0.0,0.9871691440858446,0
