beat_index,peak_time_s,rr_prev_s,rr_next_s,rr_baseline_s,prematurity_index,aa_ratio,morph_index,qrs_width_ms,width_index,pause_index,pvc_score,morphology_score,is_pvc_candidate
0,0.23055555555555557,,0.8694444444444445,0.9777777777777601,,0.022415787439968943,0.7545800064870744,36.111111111111114,0.7222222222077779,0.8892045454545615,0.0,0.9838054677414652,0
1,1.1,0.8694444444444445,0.875,0.9777777777777601,0.8892045454545615,0.02913288171138237,0.9806967580163909,44.44444444444444,0.8888888888711112,0.8948863636363799,0.0,0.9931544297809862,0
2,1.975,0.875,0.8916666666666666,0.9777777777777601,0.8948863636363799,0.029217108268243346,0.9835320666573542,44.44444444444444,0.8888888888711112,0.9119318181818347,0.0,0.9943038902217232,0
3,2.8666666666666667,0.8916666666666666,0.9333333333333331,0.9777777777777601,0.9119318181818347,0.029512833305208597,0.9934870236674185,44.44444444444444,0.8888888888711112,0.9545454545454716,0.0,0.9962022480606849,0
4,3.8,0.9333333333333331,0.9555555555555557,0.9777777777777601,0.9545454545454716,0.028854200909748832,0.9713155590882863,44.44444444444444,0.8888888888711112,0.9772727272727451,0.0,0.9934900354417923,0
5,4.7555555555555555,0.9555555555555557,0.9000000000000004,0.9777777777777601,0.9772727272727451,0.023000808353609323,0.7742734964432962,38.888888888888886,0.7777777777622222,0.9204545454545625,0.0,0.984007137559356,0
6,5.655555555555556,0.9000000000000004,0.8694444444444445,0.9777777777777601,0.9204545454545625,0.022790191341952627,0.7671835208424918,38.888888888888886,0.7777777777622222,0.8892045454545615,0.0,0.9854679115468896,0
7,6.525,0.8694444444444445,0.8694444444444445,0.9777777777777601,0.8892045454545615,0.022488633066182585,0.7570322002031351,38.888888888888886,0.7777777777622222,0.8892045454545615,0.0,0.9895227437194123,0
8,7.394444444444445,0.8694444444444445,0.8611111111111116,0.9777777777777601,0.8892045454545615,0.02235835607448895,0.7526467012104914,41.666666666666664,0.8333333333166667,0.8806818181818347,0.0,0.9897640219276626,0
9,8.255555555555556,0.8611111111111116,0.9138888888888879,0.9777777777777601,0.8806818181818347,0.023045480791962142,0.7757772994621435,41.666666666666664,0.8333333333166667,0.9346590909091068,0.0,0.9907921665132359,0
10,9.169444444444444,0.9138888888888879,0.9138888888888896,0.9777777777777601,0.9346590909091068,0.03016393604994091,1.015405018502961,44.44444444444444,0.8888888888711112,0.9346590909091086,0.0,0.9948203654219228,0
11,10.083333333333334,0.9138888888888896,0.9166666666666661,0.9777777777777601,0.9346590909091086,0.029351405453785635,0.9880528969609554,41.666666666666664,0.8333333333166667,0.9375000000000163,0.0,0.9931039407473783,0
12,11.0,0.9166666666666661,0.8972222222222221,0.9777777777777601,0.9375000000000163,0.029634151058876693,0.9975709288880149,44.44444444444444,0.8888888888711112,0.9176136363636529,0.0,0.9953967168857911,0
13,11.897222222222222,0.8972222222222221,0.905555555555555,0.9777777777777601,0.9176136363636529,0.02402368377146873,0.8087064308878641,38.888888888888886,0.7777777777622222,0.9261363636363799,0.0,0.9942063683317295,0
14,12.802777777777777,0.905555555555555,0.8861111111111111,0.9777777777777601,0.9261363636363799,0.02995812636096328,1.0084768712380145,47.22222222222222,0.9444444444255556,0.9062500000000163,0.0,0.993343015458811,0
15,13.688888888888888,0.8861111111111111,0.8666666666666671,0.9777777777777601,0.9062500000000163,0.02321785263568412,0.7815798324894686,38.888888888888886,0.7777777777622222,0.8863636363636529,0.0,0.9816005138729633,0
16,14.555555555555555,0.8666666666666671,0.9111111111111114,0.9777777777777601,0.8863636363636529,0.02981439891035025,1.0036385910345464,50.0,0.9999999999800001,0.931818181818199,0.0,0.9945969488547993,0
17,15.466666666666667,0.9111111111111114,0.9166666666666661,0.9777777777777601,0.931818181818199,0.030891663277851342,1.039902414270479,50.0,0.9999999999800001,0.9375000000000163,0.0,0.9953781807566093,0
18,16.383333333333333,0.9166666666666661,0.9027777777777786,0.9777777777777601,0.9375000000000163,0.03136073912054302,1.055692858990261,50.0,0.9999999999800001,0.923295454545472,0.0,0.989479258696992,0
19,17.28611111111111,0.9027777777777786,0.8472222222222214,0.9777777777777601,0.923295454545472,0.023834730833755646,0.8023457304508561,41.666666666666664,0.8333333333166667,0.8664772727272876,0.0,0.9958837671022123,0
20,18.133333333333333,0.8472222222222214,0.8388888888888886,0.9777777777777601,0.8664772727272876,0.02390911224601624,0.8048496231513211,41.666666666666664,0.8333333333166667,0.8579545454545606,0.0,0.9910084758308346,0
21,18.97222222222222,0.8388888888888886,0.8666666666666671,0.9777777777777601,0.8579545454545606,0.02394626985880456,0.8061004554842894,38.888888888888886,0.7777777777622222,0.8863636363636529,0.0,0.9933449287268782,0
22,19.83888888888889,0.8666666666666671,0.8888888888888893,0.9777777777777601,0.8863636363636529,0.03038946432948771,1.0229969503545275,47.22222222222222,0.9444444444255556,0.9090909090909259,0.0,0.9931881622398449,0
23,20.727777777777778,0.8888888888888893,0.8972222222222221,0.9777777777777601,0.9090909090909259,0.03047807926157124,1.0259799843525754,47.22222222222222,0.9444444444255556,0.9176136363636529,0.0,0.9887966478499982,0
24,21.625,0.8972222222222221,0.8888888888888893,0.9777777777777601,0.9176136363636529,0.031109426455993665,1.0472329504301092,50.0,0.9999999999800001,0.9090909090909259,0.0,0.9904872341006721,0
25,22.51388888888889,0.8888888888888893,0.8583333333333343,0.9777777777777601,0.9090909090909259,0.02914187975405806,0.9809996580647956,38.888888888888886,0.7777777777622222,0.8778409090909259,0.0,0.9866630969349839,0
26,23.372222222222224,0.8583333333333343,0.8527777777777779,0.9777777777777601,0.8778409090909259,0.022289132734010206,0.7503164440715264,36.111111111111114,0.7222222222077779,0.8721590909091068,0.0,0.9848769692639133,0
27,24.225,0.8527777777777779,0.8444444444444414,0.9777777777777601,0.8721590909091068,0.030539949974044165,1.0280627308429322,47.22222222222222,0.9444444444255556,0.8636363636363762,0.0,0.9935543036179617,0
28,25.069444444444443,0.8444444444444414,0.8194444444444464,0.9777777777777601,0.8636363636363762,0.029963099168608048,1.008644270274738,47.22222222222222,0.9444444444255556,0.838068181818199,0.0,0.9905758166680945,0
29,25.88888888888889,0.8194444444444464,0.8555555555555543,0.9777777777777601,0.838068181818199,0.029492058908550323,0.9927876976050553,47.22222222222222,0.9444444444255556,0.8750000000000145,0.0,0.993449532597281,0
30,26.744444444444444,0.8555555555555543,0.9027777777777786,0.9777777777777601,0.8750000000000145,0.02949601057048707,0.9929207219343522,38.888888888888886,0.7777777777622222,0.923295454545472,0.0,0.9921799127547768,0
31,27.647222222222222,0.9027777777777786,0.9111111111111114,0.9777777777777601,0.923295454545472,0.02482669340277988,0.8357380493142382,41.666666666666664,0.8333333333166667,0.931818181818199,0.0,0.9923699162698856,0
32,28.558333333333334,0.9111111111111114,0.8583333333333343,0.9777777777777601,0.931818181818199,0.0304481429104618,1.0249722404990589,41.666666666666664,0.8333333333166667,0.8778409090909259,0.0,0.9886534971221657,0
33,29.416666666666668,0.8583333333333343,0.8388888888888886,0.9777777777777601,0.8778409090909259,0.0219592445377137,0.7392114566617345,36.111111111111114,0.7222222222077779,0.8579545454545606,0.0,0.9837621201548825,0
34,30.255555555555556,0.8388888888888886,0.8138888888888864,0.9777777777777601,0.8579545454545606,0.021598929891018855,0.7270822272439185,36.111111111111114,0.7222222222077779,0.8323863636363762,0.0,0.9789548589680028,0
35,31.069444444444443,0.8138888888888864,0.7916666666666679,0.9777777777777601,0.8323863636363762,0.02176388573915783,0.732635116487365,38.888888888888886,0.7777777777622222,0.8096590909091068,0.0,0.986042279412607,0
36,31.86111111111111,0.7916666666666679,0.8055555555555536,0.9777777777777601,0.8096590909091068,0.026976989708371136,0.9081232200144664,41.666666666666664,0.8333333333166667,0.8238636363636492,0.0,0.990793077030801,0
37,32.666666666666664,0.8055555555555536,0.8027777777777771,0.9777777777777601,0.8238636363636492,0.023085582776776088,0.7771272478430375,41.666666666666664,0.8333333333166667,0.8210227272727415,0.0,0.9925181201887021,0
38,33.46944444444444,0.8027777777777771,0.8027777777777843,0.9777777777777601,0.8210227272727415,0.030341888512272597,1.0213954112357726,44.44444444444444,0.8888888888711112,0.8210227272727487,0.0,0.9913561813552971,0
39,34.272222222222226,0.8027777777777843,0.7861111111111043,0.9777777777777601,0.8210227272727487,0.022800687512436902,0.7675368521904681,38.888888888888886,0.7777777777622222,0.8039772727272804,0.0,0.9887953898988504,0
40,35.05833333333333,0.7861111111111043,0.8055555555555571,0.9777777777777601,0.8039772727272804,0.029707980104041853,1.0000562273201514,44.44444444444444,0.8888888888711112,0.8238636363636529,0.0,0.9953581990949251,0
41,35.86388888888889,0.8055555555555571,0.75555555555556,0.9777777777777601,0.8238636363636529,0.022386326387962546,0.7535882625711562,38.888888888888886,0.7777777777622222,0.7727272727272912,0.0,0.9857039621413897,0
42,36.61944444444445,0.75555555555556,0.7611111111111057,0.9777777777777601,0.7727272727272912,0.028815705564812232,0.9700196948359252,41.666666666666664,0.8333333333166667,0.7784090909090995,0.0,0.9866067089883047,0
43,37.38055555555555,0.7611111111111057,0.7861111111111114,0.9777777777777601,0.7784090909090995,0.028145221474282958,0.947449268044719,41.666666666666664,0.8333333333166667,0.8039772727272876,0.0,0.9892067371100176,0
44,38.166666666666664,0.7861111111111114,0.8027777777777771,0.9777777777777601,0.8039772727272876,0.0222477670573918,0.7489239561825932,38.888888888888886,0.7777777777622222,0.8210227272727415,0.0,0.9818818263397244,0
45,38.96944444444444,0.8027777777777771,0.8444444444444485,0.9777777777777601,0.8210227272727415,0.03083447227111284,1.0379772001618373,52.77777777777778,1.0555555555344445,0.8636363636363834,0.0,0.9954997236389882,0
46,39.81388888888889,0.8444444444444485,0.8527777777777743,0.9777777777777601,0.8636363636363834,0.024003826585093434,0.8080379807669833,41.666666666666664,0.8333333333166667,0.8721590909091032,0.0,0.9915647823581484,0
47,40.666666666666664,0.8527777777777743,0.7861111111111114,0.9777777777777601,0.8721590909091032,0.030274399979677714,1.0191235527298141,41.666666666666664,0.8333333333166667,0.8039772727272876,0.0,0.9922631257074659,0
48,41.452777777777776,0.7861111111111114,0.75555555555556,0.9777777777777601,0.8039772727272876,0.02791246271288135,0.939613937336007,41.666666666666664,0.8333333333166667,0.7727272727272912,0.0,0.9925014047643577,0
49,42.208333333333336,0.75555555555556,0.7749999999999986,0.9777777777777601,0.7727272727272912,0.027624154453767827,0.9299086504432409,38.888888888888886,0.7777777777622222,0.7926136363636492,0.0,0.9874548832266061,0
50,42.983333333333334,0.7749999999999986,0.7944444444444443,0.9777777777777601,0.7926136363636492,0.023500212364440366,0.7910848747070206,41.666666666666664,0.8333333333166667,0.8125000000000145,0.0,0.9896087669830854,0
51,43.77777777777778,0.7944444444444443,0.80833333333333,0.9777777777777601,0.8125000000000145,0.030144470806072948,1.0147497622964372,41.666666666666664,0.8333333333166667,0.826704545454557,0.0,0.9935911140162669,0
52,44.58611111111111,0.80833333333333,0.8333333333333357,0.9777777777777601,0.826704545454557,0.03047193276090147,1.0257730754261016,41.666666666666664,0.8333333333166667,0.8522727272727451,0.0,0.9939451917263364,0
53,45.419444444444444,0.8333333333333357,0.8444444444444414,0.9777777777777601,0.8522727272727451,0.02474311627137276,0.8329246022056658,44.44444444444444,0.8888888888711112,0.8636363636363762,0.0,0.9938998715764548,0
54,46.263888888888886,0.8444444444444414,0.8361111111111157,0.9777777777777601,0.8636363636363762,0.024827710445726365,0.8357722859108875,44.44444444444444,0.8888888888711112,0.8551136363636566,0.0,0.9951282458912205,0
55,47.1,0.8361111111111157,0.8166666666666629,0.9777777777777601,0.8551136363636566,0.030180690197258973,1.015969011386361,44.44444444444444,0.8888888888711112,0.8352272727272839,0.0,0.9966101834711361,0
56,47.916666666666664,0.8166666666666629,0.7833333333333385,0.9777777777777601,0.8352272727272839,0.029857625918563543,1.0050937367092347,41.666666666666664,0.8333333333166667,0.8011363636363834,0.0,0.9929600054545178,0
57,48.7,0.7833333333333385,0.7833333333333314,0.9777777777777601,0.8011363636363834,0.02290566096416522,0.771070561104253,38.888888888888886,0.7777777777622222,0.8011363636363762,0.0,0.9871275880502256,0
58,49.483333333333334,0.7833333333333314,0.7916666666666643,0.9777777777777601,0.8011363636363762,0.029612948828931753,0.9968572007242268,41.666666666666664,0.8333333333166667,0.8096590909091032,0.0,0.9867533857257406,0
59,50.275,0.7916666666666643,0.8222222222222229,0.9777777777777601,0.8096590909091032,0.02393782913652447,0.8058163164465721,41.666666666666664,0.8333333333166667,0.8409090909091068,0.0,0.9923745221950888,0
60,51.09722222222222,0.8222222222222229,0.81111111111111,0.9777777777777601,0.8409090909091068,0.03075653829240068,1.035353717836281,41.666666666666664,0.8333333333166667,0.8295454545454685,0.0,0.9946881404745535,0
61,51.90833333333333,0.81111111111111,0.8027777777777771,0.9777777777777601,0.8295454545454685,0.024618475246543182,0.8287288261002609,44.44444444444444,0.8888888888711112,0.8210227272727415,0.0,0.9946648708875471,0
62,52.71111111111111,0.8027777777777771,0.8083333333333371,0.9777777777777601,0.8210227272727415,0.029323584127412598,0.9871163509354693,41.666666666666664,0.8333333333166667,0.8267045454545643,0.0,0.989031614688366,0
63,53.519444444444446,0.8083333333333371,0.80833333333333,0.9777777777777601,0.8267045454545643,0.029411307029743535,0.9900693566412566,44.44444444444444,0.8888888888711112,0.826704545454557,0.0,0.9900211261359132,0
64,54.327777777777776,0.80833333333333,0.8388888888888886,0.9777777777777601,0.826704545454557,0.027973394230461204,0.941665067819547,41.666666666666664,0.8333333333166667,0.8579545454545606,0.0,0.989996380116553,0
65,55.166666666666664,0.8388888888888886,0.8694444444444471,0.9777777777777601,0.8579545454545606,0.029587097968557824,0.995986986263062,41.666666666666664,0.8333333333166667,0.8892045454545643,0.0,0.9938089454600603,0
66,56.03611111111111,0.8694444444444471,0.8888888888888857,0.9777777777777601,0.8892045454545643,0.02199343022972867,0.7403622455765342,36.111111111111114,0.7222222222077779,0.9090909090909223,0.0,0.9868497574579137,0
67,56.925,0.8888888888888857,0.9138888888888914,0.9777777777777601,0.9090909090909223,0.02914555901651065,0.981123512642413,44.44444444444444,0.8888888888711112,0.9346590909091104,0.0,0.9924418264970564,0
68,57.83888888888889,0.9138888888888914,0.9527777777777757,0.9777777777777601,0.9346590909091104,0.023854968871886248,0.8030270011394175,41.666666666666664,0.8333333333166667,0.9744318181818337,0.0,0.9917602390054483,0
69,58.791666666666664,0.9527777777777757,0.9250000000000043,0.9777777777777601,0.9744318181818337,0.030027003914735888,1.0107954881999097,41.666666666666664,0.8333333333166667,0.9460227272727487,0.0,0.9955498709754537,0
70,59.71666666666667,0.9250000000000043,0.8611111111111072,0.9777777777777601,0.9460227272727487,0.028596210791100366,0.9626308681790461,41.666666666666664,0.8333333333166667,0.8806818181818301,0.0,0.9912916789190769,0
71,60.577777777777776,0.8611111111111072,0.8944444444444457,0.9777777777777601,0.8806818181818301,0.028186763364760732,0.9488476877999986,41.666666666666664,0.8333333333166667,0.9147727272727451,0.0,0.9923733731068853,0
72,61.47222222222222,0.8944444444444457,0.8916666666666657,0.9777777777777601,0.9147727272727451,0.029339270199389283,0.9876443893247351,44.44444444444444,0.8888888888711112,0.9119318181818337,0.0,0.9949552965461209,0
73,62.36388888888889,0.8916666666666657,0.9194444444444443,0.9777777777777601,0.9119318181818337,0.029206737364106526,0.9831829521356451,44.44444444444444,0.8888888888711112,0.9403409090909259,0.0,0.9930279247492502,0
74,63.28333333333333,0.9194444444444443,0.9555555555555628,0.9777777777777601,0.9403409090909259,0.024033074452198277,0.8090225482647262,41.666666666666664,0.8333333333166667,0.9772727272727524,0.0,0.9915851217018841,0
75,64.2388888888889,0.9555555555555628,0.9194444444444372,0.9777777777777601,0.9772727272727524,0.030032321101052167,1.0109744800151996,44.44444444444444,0.8888888888711112,0.9403409090909187,0.0,0.9961645520879718,0
76,65.15833333333333,0.9194444444444372,0.88055555555556,0.9777777777777601,0.9403409090909187,0.023531605752861007,0.7921416666355459,41.666666666666664,0.8333333333166667,0.9005681818182026,0.0,0.990175653183738,0
77,66.03888888888889,0.88055555555556,0.87777777777778,0.9777777777777601,0.9005681818182026,0.028279985278101615,0.951985806064275,38.888888888888886,0.7777777777622222,0.8977272727272912,0.0,0.988493028772666,0
78,66.91666666666667,0.87777777777778,0.86944444444444,0.9777777777777601,0.8977272727272912,0.02251642094059572,0.757967620139244,38.888888888888886,0.7777777777622222,0.889204545454557,0.0,0.9843638303833568,0
79,67.78611111111111,0.86944444444444,0.88055555555556,0.9777777777777601,0.889204545454557,0.029072340015724608,0.9786587500621973,41.666666666666664,0.8333333333166667,0.9005681818182026,0.0,0.99143987999526,0
80,68.66666666666667,0.88055555555556,0.8888888888888857,0.9777777777777601,0.9005681818182026,0.027654050827559305,0.930915048545022,41.666666666666664,0.8333333333166667,0.9090909090909223,0.0,0.9897759393659273,0
81,69.55555555555556,0.8888888888888857,0.9249999999999972,0.9777777777777601,0.9090909090909223,0.023578173856131292,0.7937092831987332,41.666666666666664,0.8333333333166667,0.9460227272727415,0.0,0.9913844817991471,0
82,70.48055555555555,0.9249999999999972,0.9194444444444514,0.9777777777777601,0.9460227272727415,0.030790122614968683,1.036484262922377,52.77777777777778,1.0555555555344445,0.9403409090909332,0.0,0.9969527191557062,0
83,71.4,0.9194444444444514,0.8444444444444343,0.9777777777777601,0.9403409090909332,0.023461397437843146,0.7897782524149434,38.888888888888886,0.7777777777622222,0.863636363636369,0.0,0.9913363723085452,0
84,72.24444444444444,0.8444444444444343,0.8361111111111086,0.9777777777777601,0.863636363636369,0.029861025876158475,1.0052081890804,44.44444444444444,0.8888888888711112,0.8551136363636492,0.0,0.9956276684431569,0
85,73.08055555555555,0.8361111111111086,0.9111111111111114,0.9777777777777601,0.8551136363636492,0.029801530015494553,1.0032053869461468,44.44444444444444,0.8888888888711112,0.931818181818199,0.0,0.9938412808697132,0
86,73.99166666666666,0.9111111111111114,0.9166666666666714,0.9777777777777601,0.931818181818199,0.024871229875262753,0.8372372753300559,44.44444444444444,0.8888888888711112,0.9375000000000218,0.0,0.9965504351135783,0
87,74.90833333333333,0.9166666666666714,0.9333333333333371,0.9777777777777601,0.9375000000000218,0.030995149194887283,1.0433860484795126,52.77777777777778,1.0555555555344445,0.9545454545454757,0.0,0.9946832880391152,0
88,75.84166666666667,0.9333333333333371,0.8833333333333258,0.9777777777777601,0.9545454545454757,0.023291435601800994,0.7840568471916514,38.888888888888886,0.7777777777622222,0.9034090909090995,0.0,0.990107652370581,0
89,76.725,0.8833333333333258,0.8694444444444542,0.9777777777777601,0.9034090909090995,0.02894328866530154,0.974314509686962,41.666666666666664,0.8333333333166667,0.8892045454545715,0.0,0.9913023528013669,0
90,77.59444444444445,0.8694444444444542,0.8583333333333343,0.9777777777777601,0.8892045454545715,0.022105438991862247,0.7441327833139977,38.888888888888886,0.7777777777622222,0.8778409090909259,0.0,0.9841956240850682,0
91,78.45277777777778,0.8583333333333343,0.875,0.9777777777777601,0.8778409090909259,0.022375229846264368,0.753214720997878,38.888888888888886,0.7777777777622222,0.8948863636363799,0.0,0.9884591964697378,0
92,79.32777777777778,0.875,0.8416666666666686,0.9777777777777601,0.8948863636363799,0.02929028886325124,0.9859955363883939,47.22222222222222,0.9444444444255556,0.860795454545472,0.0,0.9945731809057394,0
93,80.16944444444445,0.8416666666666686,0.8166666666666629,0.9777777777777601,0.860795454545472,0.024097276832351213,0.8111837854089501,38.888888888888886,0.7777777777622222,0.8352272727272839,0.0,0.9918238869320803,0
94,80.98611111111111,0.8166666666666629,0.86666666666666,0.9777777777777601,0.8352272727272839,0.02459735902124888,0.8280179931008746,41.666666666666664,0.8333333333166667,0.8863636363636456,0.0,0.9951497286305921,0
95,81.85277777777777,0.86666666666666,0.875,0.9777777777777601,0.8863636363636456,0.030811789479441482,1.0372136320234278,52.77777777777778,1.0555555555344445,0.8948863636363799,0.0,0.9967831259941623,0
96,82.72777777777777,0.875,0.8500000000000085,0.9777777777777601,0.8948863636363799,0.024829370848535703,0.8358281798546535,41.666666666666664,0.8333333333166667,0.8693181818182063,0.0,0.9938565909132556,0
97,83.57777777777778,0.8500000000000085,0.8277777777777686,0.9777777777777601,0.8693181818182063,0.029007629197395017,0.9764803974236519,38.888888888888886,0.7777777777622222,0.8465909090909151,0.0,0.9896123177318281,0
98,84.40555555555555,0.8277777777777686,0.8388888888888886,0.9777777777777601,0.8465909090909151,0.02990314711403334,1.006626111338718,50.0,0.9999999999800001,0.8579545454545606,0.0,0.9910390193911183,0
99,85.24444444444444,0.8388888888888886,0.8250000000000028,0.9777777777777601,0.8579545454545606,0.030526724754433084,1.027617531836355,50.0,0.9999999999800001,0.8437500000000182,0.0,0.9833069424824846,0
100,86.06944444444444,0.8250000000000028,0.9027777777777857,0.9777777777777601,0.8437500000000182,0.023508247351189882,0.7913553555174677,41.666666666666664,0.8333333333166667,0.9232954545454793,0.0,0.9920198094286947,0
101,86.97222222222223,0.9027777777777857,0.8999999999999915,0.9777777777777601,0.9232954545454793,0.02418574297068314,0.8141618105805023,38.888888888888886,0.7777777777622222,0.9204545454545534,0.0,0.9912619408638157,0
102,87.87222222222222,0.8999999999999915,0.86944444444444,0.9777777777777601,0.9204545454545534,0.030283966810151598,1.0194455998147258,47.22222222222222,0.9444444444255556,0.889204545454557,0.0,0.9948156127920396,0
103,88.74166666666666,0.86944444444444,0.875,0.9777777777777601,0.889204545454557,0.023273086356690748,0.7834391587195688,38.888888888888886,0.7777777777622222,0.8948863636363799,0.0,0.9884108398070499,0
104,89.61666666666666,0.875,0.8416666666666686,0.9777777777777601,0.8948863636363799,0.027813348737631596,0.9362774752872295,41.666666666666664,0.8333333333166667,0.860795454545472,0.0,0.9885251551665715,0
105,90.45833333333333,0.8416666666666686,0.8361111111111228,0.9777777777777601,0.860795454545472,0.028518724557143122,0.9600224582323198,38.888888888888886,0.7777777777622222,0.8551136363636638,0.0,0.9865585322275541,0
106,91.29444444444445,0.8361111111111228,0.8305555555555486,0.9777777777777601,0.8551136363636638,0.02979755767589063,1.0030716665469805,52.77777777777778,1.0555555555344445,0.8494318181818264,0.0,0.9945966374272108,0
107,92.125,0.8305555555555486,0.8388888888888886,0.9777777777777601,0.8494318181818264,0.028012931274341447,0.942995998660479,41.666666666666664,0.8333333333166667,0.8579545454545606,0.0,0.9920594989168925,0
108,92.96388888888889,0.8388888888888886,0.8611111111111143,0.9777777777777601,0.8579545454545606,0.022154583501386126,0.7457871291367641,38.888888888888886,0.7777777777622222,0.8806818181818373,0.0,0.9914906931392876,0
109,93.825,0.8611111111111143,0.87222222222222,0.9777777777777601,0.8806818181818373,0.026084793355346508,0.8780893195032292,44.44444444444444,0.8888888888711112,0.8920454545454685,0.0,0.9940090135068508,0
110,94.69722222222222,0.87222222222222,0.8305555555555486,0.9777777777777601,0.8920454545454685,0.024621786204278306,0.8288402824796515,47.22222222222222,0.9444444444255556,0.8494318181818264,0.0,0.9958157192827533,0
111,95.52777777777777,0.8305555555555486,0.8000000000000114,0.9777777777777601,0.8494318181818264,0.029731504003737877,1.0008481095787054,44.44444444444444,0.8888888888711112,0.8181818181818447,0.0,0.9944230825169865,0
112,96.32777777777778,0.8000000000000114,0.8388888888888886,0.9777777777777601,0.8181818181818447,0.029896635004272757,1.0064068949565792,47.22222222222222,0.9444444444255556,0.8579545454545606,0.0,0.9945201557286281,0
113,97.16666666666667,0.8388888888888886,0.8555555555555543,0.9777777777777601,0.8579545454545606,0.02550002917812429,0.8584044720347451,47.22222222222222,0.9444444444255556,0.8750000000000145,0.0,0.9976839657410883,0
114,98.02222222222223,0.8555555555555543,0.8611111111111143,0.9777777777777601,0.8750000000000145,0.027624791119041148,0.9299300824311807,44.44444444444444,0.8888888888711112,0.8806818181818373,0.0,0.9950647527994243,0
115,98.88333333333334,0.8611111111111143,0.87222222222222,0.9777777777777601,0.8806818181818373,0.02437043462197284,0.8203790638356698,38.888888888888886,0.7777777777622222,0.8920454545454685,0.0,0.9903784614004134,0
116,99.75555555555556,0.87222222222222,0.8472222222222143,0.9777777777777601,0.8920454545454685,0.02361548921527974,0.7949654257288009,41.666666666666664,0.8333333333166667,0.8664772727272804,0.0,0.9911409552595642,0
117,100.60277777777777,0.8472222222222143,0.8666666666666742,0.9777777777777601,0.8664772727272804,0.02300308305774956,0.7743500695402482,38.888888888888886,0.7777777777622222,0.8863636363636601,0.0,0.9884437173243139,0
118,101.46944444444445,0.8666666666666742,0.8555555555555543,0.9777777777777601,0.8863636363636601,0.03042225859492741,1.0241008998407768,50.0,0.9999999999800001,0.8750000000000145,0.0,0.9971936892322559,0
119,102.325,0.8555555555555543,0.8444444444444485,0.9777777777777601,0.8750000000000145,0.02500801584497847,0.8418418852814951,47.22222222222222,0.9444444444255556,0.8636363636363834,0.0,0.9958710559691708,0
120,103.16944444444445,0.8444444444444485,0.8555555555555543,0.9777777777777601,0.8636363636363834,0.031347599172744364,1.0552505304786395,47.22222222222222,0.9444444444255556,0.8750000000000145,0.0,0.9966908076718324,0
121,104.025,0.8555555555555543,0.8999999999999915,0.9777777777777601,0.8750000000000145,0.03326867246042751,1.119919393785995,50.0,0.9999999999800001,0.9204545454545534,0.0,0.9855220676601177,0
122,104.925,0.8999999999999915,0.9055555555555515,0.9777777777777601,0.9204545454545534,0.03497692953860173,1.1774242501548544,52.77777777777778,1.0555555555344445,0.9261363636363762,0.0,0.9956954899209642,0
123,105.83055555555555,0.9055555555555515,0.9194444444444514,0.9777777777777601,0.9261363636363762,0.03193057479241364,1.0748751699453516,52.77777777777778,1.0555555555344445,0.9403409090909332,0.0,0.9966903432712794,0
124,106.75,0.9194444444444514,0.88333333333334,0.9777777777777601,0.9403409090909332,0.03326504563192599,1.1197973042862828,52.77777777777778,1.0555555555344445,0.903409090909114,0.0,0.9955606482251956,0
125,107.63333333333334,0.88333333333334,0.86388888888888,0.9777777777777601,0.903409090909114,0.024440479305770743,0.8227369697578308,41.666666666666664,0.8333333333166667,0.8835227272727342,0.0,0.9907539509180499,0
126,108.49722222222222,0.86388888888888,0.87777777777778,0.9777777777777601,0.8835227272727342,0.030756397042157574,1.0353489629460213,47.22222222222222,0.9444444444255556,0.8977272727272912,0.0,0.9947526596682218,0
127,109.375,0.87777777777778,0.87777777777778,0.9777777777777601,0.8977272727272912,0.026429113654549134,0.889680133089491,50.0,0.9999999999800001,0.8977272727272912,0.0,0.9917937193657864,0
128,110.25277777777778,0.87777777777778,0.8944444444444457,0.9777777777777601,0.8977272727272912,0.03196822240917085,1.0761424972240812,50.0,0.9999999999800001,0.9147727272727451,0.0,0.9869243583678744,0
129,111.14722222222223,0.8944444444444457,0.9055555555555515,0.9777777777777601,0.9147727272727451,0.03040028599051817,1.023361238652337,52.77777777777778,1.0555555555344445,0.9261363636363762,0.0,0.9960881531842318,0
130,112.05277777777778,0.9055555555555515,0.9138888888888914,0.9777777777777601,0.9261363636363762,0.027962058410307352,0.9412834714438614,55.55555555555556,1.111111111088889,0.9346590909091104,0.0,0.9928851938593164,0
131,112.96666666666667,0.9138888888888914,0.8527777777777743,0.9777777777777601,0.9346590909091104,0.030503933236809933,1.026850303669065,44.44444444444444,0.8888888888711112,0.8721590909091032,0.0,0.9852414724126193,0
132,113.81944444444444,0.8527777777777743,0.8055555555555571,0.9777777777777601,0.8721590909091032,0.029230582869665424,0.9839856605743965,38.888888888888886,0.7777777777622222,0.8238636363636529,0.0,0.9829505438468872,0
133,114.625,0.8055555555555571,0.7694444444444457,0.9777777777777601,0.8238636363636529,0.024957661746617416,0.8401468212124905,41.666666666666664,0.8333333333166667,0.7869318181818337,0.0,0.9934086546179117,0
134,115.39444444444445,0.7694444444444457,0.7972222222222172,0.9777777777777601,0.7869318181818337,0.02923940230038804,0.9842825480297092,50.0,0.9999999999800001,0.8153409090909187,0.0,0.9890534760497389,0
135,116.19166666666666,0.7972222222222172,0.8222222222222229,0.9777777777777601,0.8153409090909187,0.03177119336609987,1.0695099318057661,50.0,0.9999999999800001,0.8409090909091068,0.0,0.9948735043085251,0
136,117.01388888888889,0.8222222222222229,0.8194444444444429,0.9777777777777601,0.8409090909091068,0.030126385672198164,1.0141409645696966,47.22222222222222,0.9444444444255556,0.8380681818181953,0.0,0.9962124137539878,0
137,117.83333333333333,0.8194444444444429,0.8166666666666771,0.9777777777777601,0.8380681818181953,0.02895000991739268,0.9745407664026859,44.44444444444444,0.8888888888711112,0.8352272727272985,0.0,0.99565780885239,0
138,118.65,0.8166666666666771,0.7666666666666657,0.9777777777777601,0.8352272727272985,0.02413872803252802,0.812579152267334,41.666666666666664,0.8333333333166667,0.7840909090909223,0.0,0.9915034886792478,0
139,119.41666666666667,0.7666666666666657,0.7722222222222115,0.9777777777777601,0.7840909090909223,0.02259160321805059,0.7604984722702047,41.666666666666664,0.8333333333166667,0.7897727272727306,0.0,0.9913590162896349,0
140,120.18888888888888,0.7722222222222115,0.7722222222222257,0.9777777777777601,0.7897727272727306,0.024391297925480157,0.8210813827587973,41.666666666666664,0.8333333333166667,0.7897727272727451,0.0,0.9904874505347259,0
141,120.96111111111111,0.7722222222222257,0.75,0.9777777777777601,0.7897727272727451,0.02339271635101776,0.7874662490967004,44.44444444444444,0.8888888888711112,0.7670454545454685,0.0,0.9930948443331333,0
142,121.71111111111111,0.75,0.7750000000000057,0.9777777777777601,0.7670454545454685,0.029387440632257723,0.9892659449200357,44.44444444444444,0.8888888888711112,0.7926136363636566,0.0,0.9965992280492177,0
143,122.48611111111111,0.7750000000000057,0.8111111111111029,0.9777777777777601,0.7926136363636566,0.026494200455465203,0.8918711423854615,44.44444444444444,0.8888888888711112,0.8295454545454611,0.0,0.9943804866715016,0
144,123.29722222222222,0.8111111111111029,0.8027777777777771,0.9777777777777601,0.8295454545454611,0.03284670498544404,1.105714752487398,52.77777777777778,1.0555555555344445,0.8210227272727415,0.0,0.9965484065059116,0
145,124.1,0.8027777777777771,0.8361111111111228,0.9777777777777601,0.8210227272727415,0.02524470301732281,0.8498094576240371,41.666666666666664,0.8333333333166667,0.8551136363636638,0.0,0.9926011094772462,0
146,124.93611111111112,0.8361111111111228,0.8111111111111029,0.9777777777777601,0.8551136363636638,0.03000463063355208,1.010042339076506,44.44444444444444,0.8888888888711112,0.8295454545454611,0.0,0.9963614028600996,0
147,125.74722222222222,0.8111111111111029,0.7888888888888914,0.9777777777777601,0.8295454545454611,0.029782931942013993,1.0025793221940076,44.44444444444444,0.8888888888711112,0.806818181818199,0.0,0.9953141760462687,0
148,126.53611111111111,0.7888888888888914,0.7944444444444372,0.9777777777777601,0.806818181818199,0.02269820515497041,0.7640870006887541,38.888888888888886,0.7777777777622222,0.8125000000000072,0.0,0.9785472574746366,0
149,127.33055555555555,0.7944444444444372,0.8277777777777828,0.9777777777777601,0.8125000000000072,0.02825960031663986,0.9512995895129606,44.44444444444444,0.8888888888711112,0.8465909090909296,0.0,0.9912401672859716,0
150,128.15833333333333,0.8277777777777828,0.8416666666666686,0.9777777777777601,0.8465909090909296,0.02901186292107222,0.9766229167640216,44.44444444444444,0.8888888888711112,0.860795454545472,0.0,0.9950144615739991,0
151,129.0,0.8416666666666686,0.8611111111111143,0.9777777777777601,0.860795454545472,0.029588019991098224,0.9960180241989981,44.44444444444444,0.8888888888711112,0.8806818181818373,0.0,0.9959262043281443,0
152,129.86111111111111,0.8611111111111143,0.8611111111111143,0.9777777777777601,0.8806818181818373,0.02982995658276337,1.004162307124461,44.44444444444444,0.8888888888711112,0.8806818181818373,0.0,0.9948701514958658,0
153,130.72222222222223,0.8611111111111143,0.8305555555555486,0.9777777777777601,0.8806818181818373,0.028108614924087793,0.9462169860667732,44.44444444444444,0.8888888888711112,0.8494318181818264,0.0,0.9937794714176069,0
154,131.55277777777778,0.8305555555555486,0.8222222222222229,0.9777777777777601,0.8494318181818264,0.029326604556555124,0.9872180272851432,44.44444444444444,0.8888888888711112,0.8409090909091068,0.0,0.9845938837691824,0
155,132.375,0.8222222222222229,0.8027777777777771,0.9777777777777601,0.8409090909091068,0.028952365692705297,0.9746200685889436,44.44444444444444,0.8888888888711112,0.8210227272727415,0.0,0.9906145351424942,0
156,133.17777777777778,0.8027777777777771,0.7861111111111256,0.9777777777777601,0.8210227272727415,0.024759680636942293,0.8334822064884682,41.666666666666664,0.8333333333166667,0.8039772727273021,0.0,0.9892995005324291,0
157,133.9638888888889,0.7861111111111256,0.8027777777777771,0.9777777777777601,0.8039772727273021,0.030252805349601147,1.0183966152467165,47.22222222222222,0.9444444444255556,0.8210227272727415,0.0,0.9908760595156048,0
158,134.76666666666668,0.8027777777777771,0.8444444444444343,0.9777777777777601,0.8210227272727415,0.03361395975270415,1.1315427591459573,58.333333333333336,1.1666666666433334,0.863636363636369,0.0,0.9947004352256007,0
159,135.61111111111111,0.8444444444444343,0.8472222222222285,0.9777777777777601,0.863636363636369,0.027364240117343105,0.9211591848181457,52.77777777777778,1.0555555555344445,0.8664772727272949,0.0,0.9922348394527352,0
160,136.45833333333334,0.8472222222222285,0.8249999999999886,0.9777777777777601,0.8664772727272949,0.026671597251145242,0.897842829777373,47.22222222222222,0.9444444444255556,0.8437500000000037,0.0,0.9935089652244817,0
161,137.28333333333333,0.8249999999999886,0.7694444444444457,0.9777777777777601,0.8437500000000037,0.03148482387989255,1.0598699095964763,52.77777777777778,1.0555555555344445,0.7869318181818337,0.0,0.9936860400618643,0
162,138.05277777777778,0.7694444444444457,0.7722222222222115,0.9777777777777601,0.7869318181818337,0.03099898868076749,1.04351529663946,50.0,0.9999999999800001,0.7897727272727306,0.0,0.9960489338175994,0
163,138.825,0.7722222222222115,0.7527777777777942,0.9777777777777601,0.7897727272727306,0.02957949653159052,0.9957310999877544,47.22222222222222,0.9444444444255556,0.7698863636363944,0.0,0.9912389845834826,0
164,139.57777777777778,0.7527777777777942,0.7750000000000057,0.9777777777777601,0.7698863636363944,0.02873128517569391,0.9671778612425641,41.666666666666664,0.8333333333166667,0.7926136363636566,0.0,0.9914960519635122,0
165,140.3527777777778,0.7750000000000057,0.799999999999983,0.9777777777777601,0.7926136363636566,0.030726972366583307,1.0343584435656439,52.77777777777778,1.0555555555344445,0.8181818181818156,0.0,0.9945745652631854,0
166,141.15277777777777,0.799999999999983,0.8305555555555486,0.9777777777777601,0.8181818181818156,0.03217882173178046,1.0832318773605818,47.22222222222222,0.9444444444255556,0.8494318181818264,0.0,0.9947237171002372,0
167,141.98333333333332,0.8305555555555486,0.7944444444444514,0.9777777777777601,0.8494318181818264,0.03064848601116297,1.0317163666481663,44.44444444444444,0.8888888888711112,0.8125000000000218,0.0,0.9921974365130253,0
168,142.77777777777777,0.7944444444444514,0.7972222222222172,0.9777777777777601,0.8125000000000218,0.02676781268119077,0.9010817184411036,47.22222222222222,0.9444444444255556,0.8153409090909187,0.0,0.9921455465801643,0
169,143.575,0.7972222222222172,0.7722222222222399,0.9777777777777601,0.8153409090909187,0.02532515091033968,0.8525175655500742,44.44444444444444,0.8888888888711112,0.7897727272727596,0.0,0.996297624222214,0
170,144.34722222222223,0.7722222222222399,0.7611111111110915,0.9777777777777601,0.7897727272727596,0.024055202376040828,0.8097674379529146,44.44444444444444,0.8888888888711112,0.7784090909090849,0.0,0.9943839057588892,0
171,145.10833333333332,0.7611111111110915,0.75555555555556,0.9777777777777601,0.7784090909090849,0.029420990633650192,0.9903953346564511,44.44444444444444,0.8888888888711112,0.7727272727272912,0.0,0.9805032364194632,0
172,145.86388888888888,0.75555555555556,0.7833333333333314,0.9777777777777601,0.7727272727272912,0.029805243024683403,1.0033303775361635,44.44444444444444,0.8888888888711112,0.8011363636363762,0.0,0.9816617041431919,0
173,146.6472222222222,0.7833333333333314,0.8166666666666913,0.9777777777777601,0.8011363636363762,0.0290772726238902,0.9788247958685986,44.44444444444444,0.8888888888711112,0.835227272727313,0.0,0.994219164245179,0
174,147.4638888888889,0.8166666666666913,0.8166666666666629,0.9777777777777601,0.835227272727313,0.026362320290712185,0.8874316759673687,50.0,0.9999999999800001,0.8352272727272839,0.0,0.9962319337711569,0
175,148.28055555555557,0.8166666666666629,0.794444444444423,0.9777777777777601,0.8352272727272839,0.03164684498172108,1.0653240068213108,55.55555555555556,1.111111111088889,0.8124999999999928,0.0,0.9978485905407126,0
176,149.075,0.794444444444423,0.7777777777777999,0.9777777777777601,0.8124999999999928,0.024410682744578298,0.8217339316357885,47.22222222222222,0.9444444444255556,0.7954545454545825,0.0,0.994227593720738,0
177,149.8527777777778,0.7777777777777999,0.7583333333333258,0.9777777777777601,0.7954545454545825,0.025257908374273455,0.8502539879962209,47.22222222222222,0.9444444444255556,0.7755681818181881,0.0,0.9951413641755806,0
178,150.61111111111111,0.7583333333333258,0.8249999999999886,0.9777777777777601,0.7755681818181881,0.030082192376378932,1.0126532908693964,47.22222222222222,0.9444444444255556,0.8437500000000037,0.0,0.9895793639832259,0
179,151.4361111111111,0.8249999999999886,0.825000000000017,0.9777777777777601,0.8437500000000037,0.02541168736581636,0.8554306320354624,52.77777777777778,1.0555555555344445,0.8437500000000328,0.0,0.9978742785095904,0
180,152.26111111111112,0.825000000000017,0.8138888888888687,0.9777777777777601,0.8437500000000328,0.025127634750413772,0.845868602374574,44.44444444444444,0.8888888888711112,0.832386363636358,0.0,0.994441403013044,0
181,153.075,0.8138888888888687,0.8277777777777828,0.9777777777777601,0.832386363636358,0.02481954917547449,0.8354975540338078,44.44444444444444,0.8888888888711112,0.8465909090909296,0.0,0.9981039689505298,0
182,153.90277777777777,0.8277777777777828,0.8444444444444628,0.9777777777777601,0.8465909090909296,0.029103231746955328,0.9796986547639571,38.888888888888886,0.7777777777622222,0.863636363636398,0.0,0.9549002885771746,0
183,154.74722222222223,0.8444444444444628,0.8388888888888744,0.9777777777777601,0.863636363636398,0.031636642698697634,1.0649805685722362,50.0,0.9999999999800001,0.8579545454545461,0.0,0.9966062995189038,0
184,155.5861111111111,0.8388888888888744,0.8222222222222229,0.9777777777777601,0.8579545454545461,0.030659630184672677,1.0320915116454934,47.22222222222222,0.9444444444255556,0.8409090909091068,0.0,0.9955174803075395,0
185,156.40833333333333,0.8222222222222229,0.8333333333333428,0.9777777777777601,0.8409090909091068,0.030498174847290952,1.026656459682445,47.22222222222222,0.9444444444255556,0.8522727272727524,0.0,0.9974105186832862,0
186,157.24166666666667,0.8333333333333428,0.86388888888888,0.9777777777777601,0.8522727272727524,0.02470891140177773,0.8317731677182525,47.22222222222222,0.9444444444255556,0.8835227272727342,0.0,0.9968828414769748,0
187,158.10555555555555,0.86388888888888,0.9277777777777771,0.9777777777777601,0.8835227272727342,0.02624081195867915,0.8833413553297704,50.0,0.9999999999800001,0.9488636363636529,0.0,0.9982290441484922,0
188,159.03333333333333,0.9277777777777771,0.9444444444444571,0.9777777777777601,0.9488636363636529,0.02744839132028832,0.9239919568291379,52.77777777777778,1.0555555555344445,0.9659090909091212,0.0,0.9980590631166345,0
189,159.9777777777778,0.9444444444444571,0.9333333333333087,0.9777777777777601,0.9659090909091212,0.034185215364005275,1.1507728693544783,55.55555555555556,1.111111111088889,0.9545454545454466,0.0,0.996115964631562,0
190,160.9111111111111,0.9333333333333087,0.88055555555556,0.9777777777777601,0.9545454545454466,0.03167668674887507,1.0663285667063003,52.77777777777778,1.0555555555344445,0.9005681818182026,0.0,0.9984151828425594,0
191,161.79166666666666,0.88055555555556,0.8222222222222229,0.9777777777777601,0.9005681818182026,0.025421571997809766,0.8557633772354105,44.44444444444444,0.8888888888711112,0.8409090909091068,0.0,0.9969657873281428,0
192,162.61388888888888,0.8222222222222229,0.8444444444444628,0.9777777777777601,0.8409090909091068,0.029772528772838716,1.0022291215381176,47.22222222222222,0.9444444444255556,0.863636363636398,0.0,0.9964593287503007,0
193,163.45833333333334,0.8444444444444628,0.8916666666666515,0.9777777777777601,0.863636363636398,0.02590600497272132,0.8720707872842551,50.0,0.9999999999800001,0.9119318181818191,0.0,0.998398824386161,0
194,164.35,0.8916666666666515,0.9000000000000057,0.9777777777777601,0.9119318181818191,0.03131906586575588,1.0542900171337422,50.0,0.9999999999800001,0.920454545454568,0.0,0.99854918731515,0
195,165.25,0.9000000000000057,0.9194444444444514,0.9777777777777601,0.920454545454568,0.026263949938071508,0.8841202463986986,47.22222222222222,0.9444444444255556,0.9403409090909332,0.0,0.997308648268133,0
196,166.16944444444445,0.9194444444444514,0.9305555555555429,0.9777777777777601,0.9403409090909332,0.031540780406928336,1.0617535675606116,52.77777777777778,1.0555555555344445,0.9517045454545497,0.0,0.9991251595453612,0
197,167.1,0.9305555555555429,0.8888888888888857,0.9777777777777601,0.9517045454545497,0.025639614687164622,0.863103322547993,50.0,0.9999999999800001,0.9090909090909223,0.0,0.9981434121848376,0
198,167.98888888888888,0.8888888888888857,0.8555555555555543,0.9777777777777601,0.9090909090909223,0.03070851855033355,1.0337372349276361,50.0,0.9999999999800001,0.8750000000000145,0.0,0.9953370117444029,0
199,168.84444444444443,0.8555555555555543,0.8472222222222285,0.9777777777777601,0.8750000000000145,0.02457171089140038,0.8271546031334558,44.44444444444444,0.8888888888711112,0.8664772727272949,0.0,0.9950127573871475,0
200,169.69166666666666,0.8472222222222285,0.8472222222222285,0.9777777777777601,0.8664772727272949,0.02354813097940521,0.7926979533859587,41.666666666666664,0.8333333333166667,0.8664772727272949,0.0,0.9941518365564874,0
201,170.5388888888889,0.8472222222222285,0.9222222222222172,0.9777777777777601,0.8664772727272949,0.030609324916671097,1.0303980913471156,50.0,0.9999999999800001,0.9431818181818301,0.0,0.9975888774805555,0
202,171.4611111111111,0.9222222222222172,0.9222222222222172,0.9777777777777601,0.9431818181818301,0.03415790868205442,1.149853647743424,58.333333333333336,1.1666666666433334,0.9431818181818301,0.0,0.9956847362027925,0
203,172.38333333333333,0.9222222222222172,0.8361111111111086,0.9777777777777601,0.9431818181818301,0.028103781403640282,0.9460542758385286,55.55555555555556,1.111111111088889,0.8551136363636492,0.0,0.9972978943149134,0
204,173.21944444444443,0.8361111111111086,0.8694444444444684,0.9777777777777601,0.8551136363636492,0.030859492771508457,1.038819462313073,50.0,0.9999999999800001,0.889204545454586,0.0,0.999076873260406,0
205,174.0888888888889,0.8694444444444684,0.8944444444444173,0.9777777777777601,0.889204545454586,0.03209995228057631,1.080576904334957,52.77777777777778,1.0555555555344445,0.9147727272727161,0.0,0.9982244618452278,0
206,174.98333333333332,0.8944444444444173,0.2750000000000057,0.9777777777777601,0.9147727272727161,0.028290025241502474,0.9523237801670558,47.22222222222222,0.9444444444255556,0.2812500000000109,0.0,0.9626045767772792,0
207,175.25833333333333,0.2750000000000057,0.9194444444444514,0.9777777777777601,0.2812500000000109,0.05676633335423379,1.9109183786382526,238.88888888888889,4.777777777682222,0.9403409090909332,1.0,0.7389019778549537,1
208,176.17777777777778,0.9194444444444514,0.5749999999999886,0.9777777777777601,0.9403409090909332,0.039213695310595556,1.320045996202235,216.66666666666666,4.333333333246666,0.5880681818181809,0.0,0.673537314937517,0
209,176.75277777777777,0.5749999999999886,0.9333333333333371,0.9777777777777601,0.5880681818181809,0.027190127047037622,0.9152980370858856,41.666666666666664,0.8333333333166667,0.9545454545454757,0.0,0.9498293616196116,0
210,177.6861111111111,0.9333333333333371,0.9027777777777999,0.9777777777777601,0.9545454545454757,0.032669341773230345,1.0997441956117495,55.55555555555556,1.111111111088889,0.9232954545454939,0.0,0.9916134670447427,0
211,178.5888888888889,0.9027777777777999,0.9305555555555429,0.9777777777777601,0.9232954545454939,0.03080580926906547,1.0370123209074829,50.0,0.9999999999800001,0.9517045454545497,0.0,0.9959059049916545,0
212,179.51944444444445,0.9305555555555429,0.8388888888888744,0.9777777777777601,0.9517045454545497,0.02484893816218282,0.8364868720241041,50.0,0.9999999999800001,0.8579545454545461,0.0,0.9981684286688883,0
213,180.35833333333332,0.8388888888888744,0.875,0.9777777777777601,0.8579545454545461,0.02385120410060484,0.8029002680881895,41.666666666666664,0.8333333333166667,0.8948863636363799,0.0,0.994926390044554,0
214,181.23333333333332,0.875,0.9194444444444514,0.9777777777777601,0.8948863636363799,0.030713659632071916,1.0339102985553084,50.0,0.9999999999800001,0.9403409090909332,0.0,0.9974242727961335,0
215,182.15277777777777,0.9194444444444514,0.9194444444444514,0.9777777777777601,0.9403409090909332,0.030587504375248334,1.029663549037039,50.0,0.9999999999800001,0.9403409090909332,0.0,0.9986637398101608,0
216,183.07222222222222,0.9194444444444514,0.8833333333333258,0.9777777777777601,0.9403409090909332,0.02444311402523121,0.8228256620080093,47.22222222222222,0.9444444444255556,0.9034090909090995,0.0,0.9977459229845242,0
217,183.95555555555555,0.8833333333333258,0.9444444444444571,0.9777777777777601,0.9034090909090995,0.028958675922596083,0.9748324891128567,44.44444444444444,0.8888888888711112,0.9659090909091212,0.0,0.9981568466371551,0
218,184.9,0.9444444444444571,0.9027777777777715,0.9777777777777601,0.9659090909091212,0.02895682177898928,0.974770073295496,47.22222222222222,0.9444444444255556,0.9232954545454648,0.0,0.998809955062409,0
219,185.80277777777778,0.9027777777777715,0.8583333333333201,0.9777777777777601,0.9232954545454648,0.029205360247282895,0.9831365944145749,44.44444444444444,0.8888888888711112,0.8778409090909114,0.0,0.9952574138823639,0
220,186.6611111111111,0.8583333333333201,0.8666666666666742,0.9777777777777601,0.8778409090909114,0.02779943548171435,0.935809114995698,44.44444444444444,0.8888888888711112,0.8863636363636601,0.0,0.9948829922698661,0
221,187.52777777777777,0.8666666666666742,0.8916666666666799,0.9777777777777601,0.8863636363636601,0.029462317314891663,0.9917865098486139,44.44444444444444,0.8888888888711112,0.9119318181818482,0.0,0.9941508590920425,0
222,188.41944444444445,0.8916666666666799,0.9222222222222172,0.9777777777777601,0.9119318181818482,0.02885783177270917,0.9714377843995097,44.44444444444444,0.8888888888711112,0.9431818181818301,0.0,0.9954320684995469,0
223,189.34166666666667,0.9222222222222172,0.9499999999999886,0.9777777777777601,0.9431818181818301,0.029497016471162027,0.9929545834500302,47.22222222222222,0.9444444444255556,0.9715909090909151,0.0,0.996080396567476,0
224,190.29166666666666,0.9499999999999886,0.9027777777777999,0.9777777777777601,0.9715909090909151,0.023965060304887834,0.8067329960526448,44.44444444444444,0.8888888888711112,0.9232954545454939,0.0,0.9964302992938477,0
225,191.19444444444446,0.9027777777777999,0.8499999999999943,0.9777777777777601,0.9232954545454939,0.028340639428526493,0.9540275995700191,44.44444444444444,0.8888888888711112,0.8693181818181918,0.0,0.9974781511225006,0
226,192.04444444444445,0.8499999999999943,0.8583333333333201,0.9777777777777601,0.8693181818181918,0.02273156626151908,0.7652100316803411,41.666666666666664,0.8333333333166667,0.8778409090909114,0.0,0.9936510794936655,0
227,192.90277777777777,0.8583333333333201,0.8666666666666742,0.9777777777777601,0.8778409090909114,0.02952012292526055,0.9937324132867135,47.22222222222222,0.9444444444255556,0.8863636363636601,0.0,0.9957233291416179,0
228,193.76944444444445,0.8666666666666742,0.9027777777777715,0.9777777777777601,0.8863636363636601,0.024178895849506207,0.8139313167486016,41.666666666666664,0.8333333333166667,0.9232954545454648,0.0,0.9976614946525852,0
229,194.67222222222222,0.9027777777777715,0.9305555555555713,0.9777777777777601,0.9232954545454648,0.02483540637723606,0.8360313531448208,44.44444444444444,0.8888888888711112,0.9517045454545788,0.0,0.9974330209514344,0
230,195.6027777777778,0.9305555555555713,0.9277777777777771,0.9777777777777601,0.9517045454545788,0.024608551690623315,0.8283947706087711,47.22222222222222,0.9444444444255556,0.9488636363636529,0.0,0.997697156390734,0
231,196.53055555555557,0.9277777777777771,0.9333333333333371,0.9777777777777601,0.9488636363636529,0.030016357533628097,1.010437100329446,47.22222222222222,0.9444444444255556,0.9545454545454757,0.0,0.9961135767640622,0
232,197.4638888888889,0.9333333333333371,0.86944444444444,0.9777777777777601,0.9545454545454757,0.030842408441685856,1.0382443545349997,50.0,0.9999999999800001,0.889204545454557,0.0,0.9984904283127454,0
233,198.33333333333334,0.86944444444444,0.8611111111111143,0.9777777777777601,0.889204545454557,0.02887671816171979,0.9720735546833025,44.44444444444444,0.8888888888711112,0.8806818181818373,0.0,0.9947599724120209,0
234,199.19444444444446,0.8611111111111143,0.86388888888888,0.9777777777777601,0.8806818181818373,0.028579395509537597,0.9620648173407832,44.44444444444444,0.8888888888711112,0.8835227272727342,0.0,0.9949785759390648,0
235,200.05833333333334,0.86388888888888,0.9111111111110972,0.9777777777777601,0.8835227272727342,0.029020096535129002,0.9769000839420658,44.44444444444444,0.8888888888711112,0.9318181818181844,0.0,0.9967250411955668,0
236,200.96944444444443,0.9111111111110972,0.9194444444444514,0.9777777777777601,0.9318181818181844,0.029625968772637356,0.9972954895522301,47.22222222222222,0.9444444444255556,0.9403409090909332,0.0,0.9969536525159395,0
237,201.88888888888889,0.9194444444444514,0.8944444444444457,0.9777777777777601,0.9403409090909332,0.030109103662254156,1.0135592023090318,47.22222222222222,0.9444444444255556,0.9147727272727451,0.0,0.9960337346617312,0
238,202.78333333333333,0.8944444444444457,0.8472222222222285,0.9777777777777601,0.9147727272727451,0.027133498455206198,0.9133917554838699,41.666666666666664,0.8333333333166667,0.8664772727272949,0.0,0.9881683410447459,0
239,203.63055555555556,0.8472222222222285,0.8138888888888971,0.9777777777777601,0.8664772727272949,0.023536324368361405,0.7923005088321199,44.44444444444444,0.8888888888711112,0.8323863636363871,0.0,0.9950703936140624,0
240,204.44444444444446,0.8138888888888971,0.8666666666666458,0.9777777777777601,0.8323863636363871,0.029940398179539644,1.0078800895595,47.22222222222222,0.9444444444255556,0.886363636363631,0.0,0.9979611442627279,0
241,205.3111111111111,0.8666666666666458,0.88055555555556,0.9777777777777601,0.886363636363631,0.030446802711060976,1.024927125524835,47.22222222222222,0.9444444444255556,0.9005681818182026,0.0,0.9988491334675449,0
242,206.19166666666666,0.88055555555556,0.9083333333333314,0.9777777777777601,0.9005681818182026,0.029743836027950412,1.00126324105402,47.22222222222222,0.9444444444255556,0.9289772727272876,0.0,0.9985236783325127,0
243,207.1,0.9083333333333314,0.9444444444444571,0.9777777777777601,0.9289772727272876,0.03071644450249276,1.0340040453195412,50.0,0.9999999999800001,0.9659090909091212,0.0,0.9995160618566119,0
244,208.04444444444445,0.9444444444444571,0.88055555555556,0.9777777777777601,0.9659090909091212,0.024717188106986178,0.8320517854686486,44.44444444444444,0.8888888888711112,0.9005681818182026,0.0,0.9966782835681385,0
245,208.925,0.88055555555556,0.8972222222222115,0.9777777777777601,0.9005681818182026,0.029875155513487607,1.0056838333938567,47.22222222222222,0.9444444444255556,0.917613636363642,0.0,0.9990504288709745,0
246,209.82222222222222,0.8972222222222115,0.88055555555556,0.9777777777777601,0.917613636363642,0.029700886540880024,0.9998174375408049,50.0,0.9999999999800001,0.9005681818182026,0.0,0.9968149164099891,0
247,210.70277777777778,0.88055555555556,0.8722222222222058,0.9777777777777601,0.9005681818182026,0.029242439956606758,0.9843848042924153,44.44444444444444,0.8888888888711112,0.8920454545454539,0.0,0.9950624431757882,0
248,211.575,0.8722222222222058,0.9055555555555657,0.9777777777777601,0.8920454545454539,0.029179917644410112,0.9822801230774779,47.22222222222222,0.9444444444255556,0.9261363636363907,0.0,0.9984641317900087,0
249,212.48055555555555,0.9055555555555657,0.9388888888888971,0.9777777777777601,0.9261363636363907,0.030483421492422086,1.026159819239076,50.0,0.9999999999800001,0.9602272727272985,0.0,0.9993786164474106,0
250,213.41944444444445,0.9388888888888971,0.9166666666666572,0.9777777777777601,0.9602272727272985,0.023519557742925218,0.7917360958993025,44.44444444444444,0.8888888888711112,0.9375000000000072,0.0,0.9949418910929755,0
251,214.3361111111111,0.9166666666666572,0.9361111111111029,0.9777777777777601,0.9375000000000072,0.030774000308684088,1.0359415396290999,47.22222222222222,0.9444444444255556,0.9573863636363725,0.0,0.9993624325944598,0
252,215.2722222222222,0.9361111111111029,0.9138888888888914,0.9777777777777601,0.9573863636363725,0.03112409729316037,1.0477268130898116,47.22222222222222,0.9444444444255556,0.9346590909091104,0.0,0.9983888739586213,0
253,216.1861111111111,0.9138888888888914,0.8888888888888857,0.9777777777777601,0.9346590909091104,0.02876067615706857,0.9681672463790776,44.44444444444444,0.8888888888711112,0.9090909090909223,0.0,0.9944615017684839,0
254,217.075,0.8888888888888857,0.9083333333333314,0.9777777777777601,0.9090909090909223,0.02889266344825256,0.9726103189815704,44.44444444444444,0.8888888888711112,0.9289772727272876,0.0,0.9968290212990816,0
255,217.98333333333332,0.9083333333333314,0.9444444444444571,0.9777777777777601,0.9289772727272876,0.030440822519016794,1.0247258150259921,47.22222222222222,0.9444444444255556,0.9659090909091212,0.0,0.9991706450721578,0
256,218.92777777777778,0.9444444444444571,0.9583333333333428,0.9777777777777601,0.9659090909091212,0.030734289282440794,1.0346047520404185,50.0,0.9999999999800001,0.9801136363636638,0.0,0.9991027483336129,0
257,219.88611111111112,0.9583333333333428,0.98888888888888,0.9777777777777601,0.9801136363636638,0.02423668541178639,0.8158766799617856,44.44444444444444,0.8888888888711112,1.0113636363636456,0.0,0.995515919399846,0
258,220.875,0.98888888888888,0.9388888888888971,0.9777777777777601,1.0113636363636456,0.031461237289908364,1.0590759170021524,50.0,0.9999999999800001,0.9602272727272985,0.0,0.997243467892514,0
259,221.8138888888889,0.9388888888888971,0.8555555555555543,0.9777777777777601,0.9602272727272985,0.03176327564362457,1.0692433984487393,52.77777777777778,1.0555555555344445,0.8750000000000145,0.0,0.9971795527011961,0
260,222.66944444444445,0.8555555555555543,0.8416666666666686,0.9777777777777601,0.8750000000000145,0.023599676472991025,0.7944331232517744,41.666666666666664,0.8333333333166667,0.860795454545472,0.0,0.992875129157917,0
261,223.51111111111112,0.8416666666666686,0.8583333333333201,0.9777777777777601,0.860795454545472,0.030549182031819222,1.0283735085140022,50.0,0.9999999999800001,0.8778409090909114,0.0,0.9994002593594462,0
262,224.36944444444444,0.8583333333333201,0.9277777777777771,0.9777777777777601,0.8778409090909114,0.030498075637065105,1.0266531199803237,50.0,0.9999999999800001,0.9488636363636529,0.0,0.9975246413259452,0
263,225.29722222222222,0.9277777777777771,0.9583333333333428,0.9777777777777601,0.9488636363636529,0.03231364172309294,1.0877703068131095,52.77777777777778,1.0555555555344445,0.9801136363636638,0.0,0.9994524661816041,0
264,226.25555555555556,0.9583333333333428,0.9388888888888971,0.9777777777777601,0.9801136363636638,0.03182192097385223,1.0712175692773187,52.77777777777778,1.0555555555344445,0.9602272727272985,0.0,0.9992504470953021,0
265,227.19444444444446,0.9388888888888971,0.8972222222222115,0.9777777777777601,0.9602272727272985,0.03037297823450677,1.0224419808853096,47.22222222222222,0.9444444444255556,0.917613636363642,0.0,0.9977747371846817,0
266,228.09166666666667,0.8972222222222115,0.9166666666666572,0.9777777777777601,0.917613636363642,0.024375992522811203,0.820566158795501,44.44444444444444,0.8888888888711112,0.9375000000000072,0.0,0.9956566828574346,0
267,229.00833333333333,0.9166666666666572,0.9166666666666856,0.9777777777777601,0.9375000000000072,0.023558354709609867,0.7930421136089628,44.44444444444444,0.8888888888711112,0.9375000000000363,0.0,0.9956924924698274,0
268,229.925,0.9166666666666856,0.9277777777777771,0.9777777777777601,0.9375000000000363,0.02348797479038681,0.7906729226962581,41.666666666666664,0.8333333333166667,0.9488636363636529,0.0,0.9958203889156588,0
269,230.8527777777778,0.9277777777777771,0.9055555555555372,0.9777777777777601,0.9488636363636529,0.02270431020933328,0.7642925144130914,41.666666666666664,0.8333333333166667,0.9261363636363616,0.0,0.995241616598741,0
270,231.75833333333333,0.9055555555555372,0.9527777777777828,0.9777777777777601,0.9261363636363616,0.02377895775092844,0.8004682477474594,44.44444444444444,0.8888888888711112,0.974431818181841,0.0,0.9970848061288304,0
271,232.7111111111111,0.9527777777777828,0.9499999999999886,0.9777777777777601,0.974431818181841,0.030711224447877446,1.0338283232372347,47.22222222222222,0.9444444444255556,0.9715909090909151,0.0,0.9961889609253157,0
272,233.6611111111111,0.9499999999999886,0.8583333333333485,0.9777777777777601,0.9715909090909151,0.023406020040848283,0.7879140896370116,44.44444444444444,0.8888888888711112,0.8778409090909405,0.0,0.9948885073326097,0
273,234.51944444444445,0.8583333333333485,0.8555555555555543,0.9777777777777601,0.8778409090909405,0.026899062342773398,0.9054999603054003,41.666666666666664,0.8333333333166667,0.8750000000000145,0.0,0.9895873114701221,0
274,235.375,0.8555555555555543,0.9361111111111029,0.9777777777777601,0.8750000000000145,0.02964520661178983,0.9979430906606609,44.44444444444444,0.8888888888711112,0.9573863636363725,0.0,0.9963641976098336,0
275,236.3111111111111,0.9361111111111029,0.9611111111111086,0.9777777777777601,0.9573863636363725,0.031088972956218028,1.0465444266816255,50.0,0.9999999999800001,0.9829545454545606,0.0,0.9995191533885348,0
276,237.2722222222222,0.9611111111111086,0.9277777777777771,0.9777777777777601,0.9829545454545606,0.03133483955864911,1.0548210050955782,50.0,0.9999999999800001,0.9488636363636529,0.0,0.9992258465959809,0
277,238.2,0.9277777777777771,0.8777777777777942,0.9777777777777601,0.9488636363636529,0.024887322803189577,0.8377790096631432,47.22222222222222,0.9444444444255556,0.8977272727273058,0.0,0.9980564262710953,0
278,239.07777777777778,0.8777777777777942,0.8444444444444343,0.9777777777777601,0.8977272727273058,0.02970463749165881,0.9999437053540846,47.22222222222222,0.9444444444255556,0.863636363636369,0.0,0.9979227030836098,0
279,239.92222222222222,0.8444444444444343,0.86388888888888,0.9777777777777601,0.863636363636369,0.030058434965577162,1.011853547954055,47.22222222222222,0.9444444444255556,0.8835227272727342,0.0,0.9977235835037483,0
280,240.7861111111111,0.86388888888888,0.8583333333333485,0.9777777777777601,0.8835227272727342,0.029773908883800382,1.002275580050503,47.22222222222222,0.9444444444255556,0.8778409090909405,0.0,0.9982303079453868,0
281,241.64444444444445,0.8583333333333485,0.86944444444444,0.9777777777777601,0.8778409090909405,0.028899783443200974,0.9728499985310286,47.22222222222222,0.9444444444255556,0.889204545454557,0.0,0.9977819147753179,0
282,242.51388888888889,0.86944444444444,0.9694444444444343,0.9777777777777601,0.889204545454557,0.02874332616022785,0.9675831954835344,47.22222222222222,0.9444444444255556,0.9914772727272804,0.0,0.9982726535558322,0
283,243.48333333333332,0.9694444444444343,0.961111111111137,0.9777777777777601,0.9914772727272804,0.03129892981262783,1.0536121795542828,52.77777777777778,1.0555555555344445,0.9829545454545897,0.0,0.9994413985727378,0
284,244.44444444444446,0.961111111111137,0.9388888888888687,0.9777777777777601,0.9829545454545897,0.027900061800503608,0.9391964868865189,44.44444444444444,0.8888888888711112,0.9602272727272694,0.0,0.9957497340941257,0
285,245.38333333333333,0.9388888888888687,0.9138888888888914,0.9777777777777601,0.9602272727272694,0.023837921960413087,0.8024531529708243,44.44444444444444,0.8888888888711112,0.9346590909091104,0.0,0.9969735319095672,0
286,246.29722222222222,0.9138888888888914,0.9194444444444514,0.9777777777777601,0.9346590909091104,0.02927714692075188,0.9855531407293979,47.22222222222222,0.9444444444255556,0.9403409090909332,0.0,0.9982745680708458,0
287,247.21666666666667,0.9194444444444514,0.9638888888888744,0.9777777777777601,0.9403409090909332,0.02941691598076938,0.9902581700975228,50.0,0.9999999999800001,0.9857954545454575,0.0,0.9968296159107461,0
288,248.18055555555554,0.9638888888888744,0.9805555555555543,0.9777777777777601,0.9857954545454575,0.02984121817263586,1.0045414046949477,50.0,0.9999999999800001,1.002840909090926,0.0,0.9992650544123414,0
289,249.1611111111111,0.9805555555555543,1.00555555555556,0.9777777777777601,1.002840909090926,0.03000163980636088,1.0099416592138253,50.0,0.9999999999800001,1.028409090909114,0.0,0.9971539995542005,0
290,250.16666666666666,1.00555555555556,0.9416666666666629,0.9777777777777601,1.028409090909114,0.02863979558273155,0.9640980578746957,44.44444444444444,0.8888888888711112,0.9630681818181953,0.0,0.9960568651545576,0
291,251.10833333333332,0.9416666666666629,0.9361111111111313,0.9777777777777601,0.9630681818181953,0.030056292254028887,1.0117814181081448,50.0,0.9999999999800001,0.9573863636364016,0.0,0.9964626204039543,0
292,252.04444444444445,0.9361111111111313,0.9222222222222172,0.9777777777777601,0.9573863636364016,0.02972731181512003,1.0007069884281359,44.44444444444444,0.8888888888711112,0.9431818181818301,0.0,0.9954628907929493,0
293,252.96666666666667,0.9222222222222172,0.9138888888888914,0.9777777777777601,0.9431818181818301,0.028665032953069925,0.9649476204932139,44.44444444444444,0.8888888888711112,0.9346590909091104,0.0,0.9949965630726949,0
294,253.88055555555556,0.9138888888888914,0.9611111111111086,0.9777777777777601,0.9346590909091104,0.028856818620783303,0.9714036787858281,47.22222222222222,0.9444444444255556,0.9829545454545606,0.0,0.9969650223423432,0
295,254.84166666666667,0.9611111111111086,0.9749999999999943,0.9777777777777601,0.9829545454545606,0.024278188835064107,0.8172738048002507,44.44444444444444,0.8888888888711112,0.9971590909091032,0.0,0.9961727457834264,0
296,255.81666666666666,0.9749999999999943,0.9805555555555543,0.9777777777777601,0.9971590909091032,0.022721586788351268,0.7648740938531347,41.666666666666664,0.8333333333166667,1.002840909090926,0.0,0.9905063557152181,0
297,256.7972222222222,0.9805555555555543,0.955555555555577,0.9777777777777601,1.002840909090926,0.02993771065362678,1.0077896196919482,47.22222222222222,0.9444444444255556,0.9772727272727669,0.0,0.9984812146883217,0
298,257.7527777777778,0.955555555555577,0.9416666666666629,0.9777777777777601,0.9772727272727669,0.028474484084792077,0.9585331964339983,47.22222222222222,0.9444444444255556,0.9630681818181953,0.0,0.9963158097042353,0
299,258.69444444444446,0.9416666666666629,0.9472222222221944,0.9777777777777601,0.9630681818181953,0.030430038063613506,1.0243627791768182,44.44444444444444,0.8888888888711112,0.9687499999999891,0.0,0.9956911170250755,0
300,259.64166666666665,0.9472222222221944,0.9611111111111086,0.9777777777777601,0.9687499999999891,0.02386076385017887,0.8032220768096052,44.44444444444444,0.8888888888711112,0.9829545454545606,0.0,0.9968674967874119,0
301,260.60277777777776,0.9611111111111086,0.9444444444444571,0.9777777777777601,0.9829545454545606,0.02378563556608622,0.8006930422508233,47.22222222222222,0.9444444444255556,0.9659090909091212,0.0,0.9972263809347466,0
302,261.5472222222222,0.9444444444444571,0.9972222222222058,0.9777777777777601,0.9659090909091212,0.028894296599478113,0.9726652955584885,47.22222222222222,0.9444444444255556,1.0198863636363653,0.0,0.9990833163439332,0
303,262.5444444444444,0.9972222222222058,0.9777777777778169,0.9777777777777601,1.0198863636363653,0.030000654180318963,1.0099084802007259,50.0,0.9999999999800001,1.0000000000000582,0.0,0.9972308840025763,0
304,263.52222222222224,0.9777777777778169,0.919444444444423,0.9777777777777601,1.0000000000000582,0.0296528776441234,0.9982013197165676,44.44444444444444,0.8888888888711112,0.9403409090909042,0.0,0.9950875745862626,0
305,264.44166666666666,0.919444444444423,0.9138888888888914,0.9777777777777601,0.9403409090909042,0.022607429212740338,0.7610312208612429,41.666666666666664,0.8333333333166667,0.9346590909091104,0.0,0.9887796138400191,0
306,265.35555555555555,0.9138888888888914,0.9305555555555429,0.9777777777777601,0.9346590909091104,0.024035634759562878,0.8091087355893055,41.666666666666664,0.8333333333166667,0.9517045454545497,0.0,0.994772506535827,0
307,266.2861111111111,0.9305555555555429,1.0083333333333258,0.9777777777777601,0.9517045454545497,0.030018447409796714,1.0105074515842076,50.0,0.9999999999800001,1.0312500000000109,0.0,0.9971052363535662,0
308,267.2944444444444,1.0083333333333258,1.0083333333333826,0.9777777777777601,1.0312500000000109,0.030144203275170128,1.0147407564352366,47.22222222222222,0.9444444444255556,1.031250000000069,0.0,0.9965180381529095,0
309,268.3027777777778,1.0083333333333826,0.9777777777777601,0.9777777777777601,1.031250000000069,0.02962327255643784,0.9972047271445846,47.22222222222222,0.9444444444255556,1.0,0.0,0.996638208926004,0
310,269.28055555555557,0.9777777777777601,0.9527777777777828,0.9777777777777601,1.0,0.023946262760280595,0.8061002165275151,44.44444444444444,0.8888888888711112,0.974431818181841,0.0,0.9966759867581073,0
311,270.23333333333335,0.9527777777777828,0.9111111111110972,0.9777777777777601,0.974431818181841,0.022978497919912924,0.7735224629474423,41.666666666666664,0.8333333333166667,0.9318181818181844,0.0,0.9916368284633008,0
312,271.14444444444445,0.9111111111110972,0.9361111111111313,0.9777777777777601,0.9318181818181844,0.028944730792966448,0.9743630558603077,47.22222222222222,0.9444444444255556,0.9573863636364016,0.0,0.9973127265477637,0
313,272.0805555555556,0.9361111111111313,0.9472222222221944,0.9777777777777601,0.9573863636364016,0.028657476215318778,0.9646932389223434,44.44444444444444,0.8888888888711112,0.9687499999999891,0.0,0.9950230108777743,0
314,273.02777777777777,0.9472222222221944,0.9916666666666742,0.9777777777777601,0.9687499999999891,0.02382055092167324,0.8018683937443146,44.44444444444444,0.8888888888711112,1.0142045454545716,0.0,0.997134519756814,0
315,274.01944444444445,0.9916666666666742,1.01111111111112,0.9777777777777601,1.0142045454545716,0.024740066803379115,0.8328219483245747,44.44444444444444,0.8888888888711112,1.034090909090937,0.0,0.9964085573225603,0
316,275.03055555555557,1.01111111111112,0.9638888888889028,0.9777777777777601,1.034090909090937,0.028755743918305154,0.9680012130078182,47.22222222222222,0.9444444444255556,0.9857954545454866,0.0,0.9945539496934089,0
317,275.99444444444447,0.9638888888889028,0.9277777777777487,0.9777777777777601,0.9857954545454866,0.02279235937753775,0.7672565031684648,38.888888888888886,0.7777777777622222,0.9488636363636238,0.0,0.9920895641175322,0
318,276.9222222222222,0.9277777777777487,0.8999999999999773,0.9777777777777601,0.9488636363636238,0.02810499760917831,0.9460952168219865,41.666666666666664,0.8333333333166667,0.9204545454545389,0.0,0.9901959413405661,0
319,277.8222222222222,0.8999999999999773,0.955555555555577,0.9777777777777601,0.9204545454545389,0.027937807581661103,0.9404671186618675,41.666666666666664,0.8333333333166667,0.9772727272727669,0.0,0.992302016598455,0
320,278.77777777777777,0.955555555555577,1.0055555555555884,0.9777777777777601,0.9772727272727669,0.030004894944645085,1.010051236549629,47.22222222222222,0.9444444444255556,1.028409090909143,0.0,0.9966571873110148,0
321,279.78333333333336,1.0055555555555884,1.011111111111063,0.9777777777777601,1.028409090909143,0.023916179100715574,0.8050875138468476,41.666666666666664,0.8333333333166667,1.0340909090908788,0.0,0.9968874093513991,0
322,280.7944444444444,1.011111111111063,0.9444444444444571,0.9777777777777601,1.0340909090908788,0.030053670716968114,1.0116931696155314,47.22222222222222,0.9444444444255556,0.9659090909091212,0.0,0.997754484806538,0
323,281.7388888888889,0.9444444444444571,0.9583333333333144,0.9777777777777601,0.9659090909091212,0.02824914089778244,0.9509474953306608,41.666666666666664,0.8333333333166667,0.9801136363636347,0.0,0.9929262350386429,0
324,282.6972222222222,0.9583333333333144,0.9500000000000455,0.9777777777777601,0.9801136363636347,0.023647656366769954,0.7960482647521974,41.666666666666664,0.8333333333166667,0.9715909090909731,0.0,0.9964516132201651,0
325,283.64722222222224,0.9500000000000455,0.9499999999999886,0.9777777777777601,0.9715909090909731,0.028668040256989675,0.9650488550100629,47.22222222222222,0.9444444444255556,0.9715909090909151,0.0,0.9970172052010478,0
326,284.59722222222223,0.9499999999999886,1.0277777777777715,0.9777777777777601,0.9715909090909151,0.030232353442499704,1.017708145112236,47.22222222222222,0.9444444444255556,1.0511363636363762,0.0,0.9963575224862555,0
327,285.625,1.0277777777777715,1.0333333333333599,0.9777777777777601,1.0511363636363762,0.0240988131447813,0.8112355021129278,47.22222222222222,0.9444444444255556,1.056818181818228,0.0,0.9976405266851216,0
328,286.65833333333336,1.0333333333333599,0.9944444444444116,0.9777777777777601,1.056818181818228,0.025372513502764503,0.8541119269078841,47.22222222222222,0.9444444444255556,1.0170454545454393,0.0,0.9983243807134121,0
329,287.65277777777777,0.9944444444444116,0.9055555555555657,0.9777777777777601,1.0170454545454393,0.023618463273381293,0.7950655410955965,41.666666666666664,0.8333333333166667,0.9261363636363907,0.0,0.9911354805086328,0
330,288.55833333333334,0.9055555555555657,0.9138888888888914,0.9777777777777601,0.9261363636363907,0.02305237012419014,0.7760092142396732,41.666666666666664,0.8333333333166667,0.9346590909091104,0.0,0.9934176000497174,0
331,289.47222222222223,0.9138888888888914,0.9388888888888687,0.9777777777777601,0.9346590909091104,0.024640084504678646,0.8294562560059783,44.44444444444444,0.8888888888711112,0.9602272727272694,0.0,0.9970986766790043,0
332,290.4111111111111,0.9388888888888687,0.9277777777778056,0.9777777777777601,0.9602272727272694,0.030430298342694683,1.0243715409208027,50.0,0.9999999999800001,0.948863636363682,0.0,0.9975778342623673,0
333,291.3388888888889,0.9277777777778056,0.8777777777777374,0.9777777777777601,0.948863636363682,0.03100332247095997,1.0436611845071209,47.22222222222222,0.9444444444255556,0.8977272727272476,0.0,0.996449576220983,0
334,292.21666666666664,0.8777777777777374,0.9250000000000114,0.9777777777777601,0.8977272727272476,0.030459051449273626,1.0253394533533668,41.666666666666664,0.8333333333166667,0.946022727272756,0.0,0.9885787978407481,0
335,293.14166666666665,0.9250000000000114,0.8916666666667084,0.9777777777777601,0.946022727272756,0.028924511110897937,0.9736824030896976,47.22222222222222,0.9444444444255556,0.9119318181818773,0.0,0.9956062247533093,0
336,294.03333333333336,0.8916666666667084,0.9166666666666288,0.9777777777777601,0.9119318181818773,0.02926871472514828,0.9852692887241848,44.44444444444444,0.8888888888711112,0.9374999999999782,0.0,0.9960475581130985,0
337,294.95,0.9166666666666288,0.8972222222222399,0.9777777777777601,0.9374999999999782,0.022958058936798927,0.7728344278716256,41.666666666666664,0.8333333333166667,0.917613636363671,0.0,0.9950902407204624,0
338,295.84722222222223,0.8972222222222399,0.9361111111111313,0.9777777777777601,0.917613636363671,0.028870610015491047,0.9718679368778494,44.44444444444444,0.8888888888711112,0.9573863636364016,0.0,0.9962462921509905,0
339,296.78333333333336,0.9361111111111313,1.0166666666666515,0.9777777777777601,0.9573863636364016,0.029314718153014896,0.9868178966859165,47.22222222222222,0.9444444444255556,1.0397727272727306,0.0,0.9980400722961673,0
340,297.8,1.0166666666666515,0.9972222222222058,0.9777777777777601,1.0397727272727306,0.030400873986180306,1.0233810322809007,50.0,0.9999999999800001,1.0198863636363653,0.0,0.9993664826074982,0
341,298.7972222222222,0.9972222222222058,0.9750000000000227,0.9777777777777601,1.0198863636363653,0.026082852279059158,0.8780239772813053,47.22222222222222,0.9444444444255556,0.9971590909091322,0.0,0.99855673219973,0
342,299.77222222222224,0.9750000000000227,0.9277777777777487,0.9777777777777601,0.9971590909091322,0.029430014780478242,0.990699113445855,44.44444444444444,0.8888888888711112,0.9488636363636238,0.0,0.9972264703011531,0
343,300.7,0.9277777777777487,0.8944444444444457,0.9777777777777601,0.9488636363636238,0.028364764736439264,0.9548397269623793,41.666666666666664,0.8333333333166667,0.9147727272727451,0.0,0.9922882288863315,0
344,301.59444444444443,0.8944444444444457,0.955555555555577,0.9777777777777601,0.9147727272727451,0.02342537555255385,0.7885656519427063,41.666666666666664,0.8333333333166667,0.9772727272727669,0.0,0.9932237709499203,0
345,302.55,0.955555555555577,0.98888888888888,0.9777777777777601,0.9772727272727669,0.030727429034818763,1.034373816334546,50.0,0.9999999999800001,1.0113636363636456,0.0,0.9995991683998755,0
346,303.5388888888889,0.98888888888888,1.0,0.9777777777777601,1.0113636363636456,0.031041402291347577,1.0449430610056405,50.0,0.9999999999800001,1.0227272727272911,0.0,0.9993942021082897,0
347,304.5388888888889,1.0,1.01111111111112,0.9777777777777601,1.0227272727272911,0.031851316339916884,1.072207102015134,52.77777777777778,1.0555555555344445,1.034090909090937,0.0,0.9996530342818961,0
348,305.55,1.01111111111112,0.9666666666666401,0.9777777777777601,1.034090909090937,0.02486616926845295,0.8370669207204042,47.22222222222222,0.9444444444255556,0.9886363636363544,0.0,0.9980676595733807,0
349,306.51666666666665,0.9666666666666401,0.9583333333333712,0.9777777777777601,0.9886363636363544,0.02483698969582706,0.8360846522116444,47.22222222222222,0.9444444444255556,0.9801136363636929,0.0,0.9981400425165787,0
350,307.475,0.9583333333333712,0.98888888888888,0.9777777777777601,0.9801136363636929,0.02469479902157289,0.8312981043293336,44.44444444444444,0.8888888888711112,1.0113636363636456,0.0,0.997776540822725,0
351,308.4638888888889,0.98888888888888,1.0055555555555316,0.9777777777777601,1.0113636363636456,0.024824494132302137,0.8356640155317622,44.44444444444444,0.8888888888711112,1.028409090909085,0.0,0.9971401770244819,0
352,309.46944444444443,1.0055555555555316,1.0611111111111313,0.9777777777777601,1.028409090909085,0.030397355561371103,1.023262591961886,50.0,0.9999999999800001,1.0852272727273131,0.0,0.997387452011123,0
353,310.53055555555557,1.0611111111111313,1.0388888888888914,0.9777777777777601,1.0852272727273131,0.025863083092535655,0.8706259130983416,50.0,0.9999999999800001,1.0625000000000218,0.0,0.9986332504215893,0
354,311.56944444444446,1.0388888888888914,0.9916666666666742,0.9777777777777601,1.0625000000000218,0.030234182873465788,1.0177697290308894,50.0,0.9999999999800001,1.0142045454545716,0.0,0.9966958075640104,0
355,312.56111111111113,0.9916666666666742,0.9944444444444116,0.9777777777777601,1.0142045454545716,0.03059680985424745,1.0299767982781072,47.22222222222222,0.9444444444255556,1.0170454545454393,0.0,0.9981563203400584,0
356,313.55555555555554,0.9944444444444116,1.0138888888889142,0.9777777777777601,1.0170454545454393,0.024817792219399434,0.8354384098288556,47.22222222222222,0.9444444444255556,1.0369318181818628,0.0,0.9976657568264808,0
357,314.56944444444446,1.0138888888889142,1.0277777777777715,0.9777777777777601,1.0369318181818628,0.025535737339019517,0.8596065116397388,50.0,0.9999999999800001,1.0511363636363762,0.0,0.9981766973526853,0
358,315.59722222222223,1.0277777777777715,1.0277777777777715,0.9777777777777601,1.0511363636363762,0.026436900067600504,0.8899422461928808,50.0,0.9999999999800001,1.0511363636363762,0.0,0.9979550860187189,0
359,316.625,1.0277777777777715,1.02222222222224,0.9777777777777601,1.0511363636363762,0.030919077384008304,1.0408252520899022,47.22222222222222,0.9444444444255556,1.0454545454545825,0.0,0.9975290136984486,0
360,317.64722222222224,1.02222222222224,0.9444444444444002,0.9777777777777601,1.0454545454545825,0.034027876228139145,1.1454763805971464,58.333333333333336,1.1666666666433334,0.9659090909090632,0.0,0.9952131460760099,0
361,318.59166666666664,0.9444444444444002,1.02222222222224,0.9777777777777601,0.9659090909090632,0.046033537696730395,1.5496215453883662,86.11111111111111,1.7222222221877779,1.0454545454545825,0.0,0.5253049754417056,0
362,319.6138888888889,1.02222222222224,0.3777777777777942,0.9777777777777601,1.0454545454545825,0.025078201217761834,0.8442045272003659,50.0,0.9999999999800001,0.38636363636366017,0.0,0.9908415415381259,0
363,319.9916666666667,0.3777777777777942,0.15833333333330302,0.9777777777777601,0.38636363636366017,0.014186329176503412,0.47755272442253976,172.22222222222223,3.4444444443755557,0.16193181818179012,1.0,0.42351375326060314,1
364,320.15,0.15833333333330302,1.3555555555555543,0.9777777777777601,0.16193181818179012,0.025320914536606672,0.8523749570011889,169.44444444444446,3.3888888888211115,1.3863636363636602,1.0,0.41876345807354226,1
365,321.50555555555553,1.3555555555555543,0.966666666666697,0.9777777777777601,1.3863636363636602,0.03241745290117367,1.091264890246298,55.55555555555556,1.111111111088889,0.9886363636364125,0.0,0.994447694130808,0
366,322.47222222222223,0.966666666666697,0.9611111111111086,0.9777777777777601,0.9886363636364125,0.02647478201467677,0.8912174617054789,47.22222222222222,0.9444444444255556,0.9829545454545606,0.0,0.9929952710714947,0
367,323.43333333333334,0.9611111111111086,0.9250000000000114,0.9777777777777601,0.9829545454545606,0.03376081532877193,1.1364863410673447,55.55555555555556,1.111111111088889,0.946022727272756,0.0,0.997462431352967,0
368,324.35833333333335,0.9250000000000114,0.9111111111110972,0.9777777777777601,0.946022727272756,0.03373107282018115,1.1354851225116513,52.77777777777778,1.0555555555344445,0.9318181818181844,0.0,0.9979222678274667,0
369,325.26944444444445,0.9111111111110972,0.9305555555555429,0.9777777777777601,0.9318181818181844,0.030051774433635544,1.0116293352535566,52.77777777777778,1.0555555555344445,0.9517045454545497,0.0,0.9849652696809397,0
370,326.2,0.9305555555555429,0.9638888888889028,0.9777777777777601,0.9517045454545497,0.02893974128738084,0.9741950947227729,55.55555555555556,1.111111111088889,0.9857954545454866,0.0,0.993154851351357,0
371,327.1638888888889,0.9638888888889028,1.0138888888889142,0.9777777777777601,0.9857954545454866,0.026563045892427656,0.8941886782029677,52.77777777777778,1.0555555555344445,1.0369318181818628,0.0,0.9983134775206901,0
372,328.1777777777778,1.0138888888889142,1.022222222222183,0.9777777777777601,1.0369318181818628,0.03329537119973579,1.1208181502956378,58.333333333333336,1.1666666666433334,1.0454545454545243,0.0,0.9961849437703282,0
373,329.2,1.022222222222183,0.9444444444444571,0.9777777777777601,1.0454545454545243,0.03278340393001349,1.1035838565309055,55.55555555555556,1.111111111088889,0.9659090909091212,0.0,0.9985476797507227,0
374,330.14444444444445,0.9444444444444571,0.9027777777777715,0.9777777777777601,0.9659090909091212,0.028381226684295595,0.9553938835697922,44.44444444444444,0.8888888888711112,0.9232954545454648,0.0,0.993663073109134,0
375,331.0472222222222,0.9027777777777715,0.9305555555555429,0.9777777777777601,0.9232954545454648,0.031139112099993895,1.0482322547598035,50.0,0.9999999999800001,0.9517045454545497,0.0,0.9930343348079098,0
376,331.97777777777776,0.9305555555555429,0.9250000000000114,0.9777777777777601,0.9517045454545497,0.026098911839600045,0.8785645883720188,50.0,0.9999999999800001,0.946022727272756,0.0,0.9977096845223654,0
377,332.90277777777777,0.9250000000000114,0.9055555555555657,0.9777777777777601,0.946022727272756,0.02916162160114625,0.9816642255328699,44.44444444444444,0.8888888888711112,0.9261363636363907,0.0,0.9930524031227896,0
378,333.80833333333334,0.9055555555555657,0.919444444444423,0.9777777777777601,0.9261363636363907,0.031456556202937226,1.0589183381240288,55.55555555555556,1.111111111088889,0.9403409090909042,0.0,0.9984093134115734,0
379,334.72777777777776,0.919444444444423,0.8916666666667084,0.9777777777777601,0.9403409090909042,0.026098677078679734,0.878556685642871,52.77777777777778,1.0555555555344445,0.9119318181818773,0.0,0.9980145036620687,0
380,335.61944444444447,0.8916666666667084,0.8999999999999773,0.9777777777777601,0.9119318181818773,0.03083553241664147,1.0380128877156212,52.77777777777778,1.0555555555344445,0.9204545454545389,0.0,0.9973826950650493,0
381,336.51944444444445,0.8999999999999773,0.86388888888888,0.9777777777777601,0.9204545454545389,0.029554744267746607,0.9948978674518942,47.22222222222222,0.9444444444255556,0.8835227272727342,0.0,0.9974346635497524,0
382,337.3833333333333,0.86388888888888,0.8388888888889028,0.9777777777777601,0.8835227272727342,0.02794335513576988,0.9406538653209621,44.44444444444444,0.8888888888711112,0.8579545454545752,0.0,0.9947078596446148,0
383,338.22222222222223,0.8388888888889028,0.919444444444423,0.9777777777777601,0.8579545454545752,0.027310889372690512,0.9193632449987725,41.666666666666664,0.8333333333166667,0.9403409090909042,0.0,0.9917653619593407,0
384,339.14166666666665,0.919444444444423,0.9833333333333485,0.9777777777777601,0.9403409090909042,0.029589859984361602,0.9960799636750184,47.22222222222222,0.9444444444255556,1.0056818181818519,0.0,0.9984875372814794,0
385,340.125,0.9833333333333485,0.9916666666666742,0.9777777777777601,1.0056818181818519,0.031025641427175458,1.0444125048955288,50.0,0.9999999999800001,1.0142045454545716,0.0,0.9994916069318596,0
386,341.1166666666667,0.9916666666666742,0.9499999999999886,0.9777777777777601,1.0142045454545716,0.03037899157121518,1.0226444071290715,47.22222222222222,0.9444444444255556,0.9715909090909151,0.0,0.9994299710494057,0
387,342.06666666666666,0.9499999999999886,0.919444444444423,0.9777777777777601,0.9715909090909151,0.0298335488112957,1.004283231889495,50.0,0.9999999999800001,0.9403409090909042,0.0,0.996876730167317,0
388,342.9861111111111,0.919444444444423,0.966666666666697,0.9777777777777601,0.9403409090909042,0.030217793543633464,1.0172180169554466,50.0,0.9999999999800001,0.9886363636364125,0.0,0.9994382249618927,0
389,343.9527777777778,0.966666666666697,0.98888888888888,0.9777777777777601,0.9886363636364125,0.025532617160050074,0.8595014774234165,47.22222222222222,0.9444444444255556,1.0113636363636456,0.0,0.998294706812045,0
390,344.94166666666666,0.98888888888888,0.9916666666666742,0.9777777777777601,1.0113636363636456,0.030562889255166988,1.0288349331554687,50.0,0.9999999999800001,1.0142045454545716,0.0,0.9978583468610143,0
391,345.93333333333334,0.9916666666666742,0.9916666666666742,0.9777777777777601,1.0142045454545716,0.03132935351602217,1.0546363290902354,52.77777777777778,1.0555555555344445,1.0142045454545716,0.0,0.9970695059989633,0
392,346.925,0.9916666666666742,0.9444444444444571,0.9777777777777601,1.0142045454545716,0.030500115431299504,1.0267217853328459,50.0,0.9999999999800001,0.9659090909091212,0.0,0.9991345307428335,0
393,347.86944444444447,0.9444444444444571,0.9166666666666288,0.9777777777777601,0.9659090909091212,0.022932487153448904,0.7719736079473726,44.44444444444444,0.8888888888711112,0.9374999999999782,0.0,0.99495283854669,0
394,348.7861111111111,0.9166666666666288,0.9055555555555657,0.9777777777777601,0.9374999999999782,0.029392554886941393,0.9894381054717324,44.44444444444444,0.8888888888711112,0.9261363636363907,0.0,0.9955469414115018,0
395,349.69166666666666,0.9055555555555657,0.9388888888888687,0.9777777777777601,0.9261363636363907,0.023029394512241688,0.7752357889268423,44.44444444444444,0.8888888888711112,0.9602272727272694,0.0,0.9950132514952483,0
396,350.63055555555553,0.9388888888888687,1.01111111111112,0.9777777777777601,0.9602272727272694,0.025398492878231278,0.8549864675574486,47.22222222222222,0.9444444444255556,1.034090909090937,0.0,0.9975286574344052,0
397,351.64166666666665,1.01111111111112,1.0027777777777942,0.9777777777777601,1.034090909090937,0.03164757063542387,1.0653484344162472,52.77777777777778,1.0555555555344445,1.0255681818182172,0.0,0.9990030955802377,0
398,352.64444444444445,1.0027777777777942,0.9611111111111086,0.9777777777777601,1.0255681818182172,0.031619624887076966,1.0644076999885421,52.77777777777778,1.0555555555344445,0.9829545454545606,0.0,0.9985298858250424,0
399,353.60555555555555,0.9611111111111086,0.9388888888888687,0.9777777777777601,0.9829545454545606,0.029962363781593313,1.008619515028471,50.0,0.9999999999800001,0.9602272727272694,0.0,0.9991487396266787,0
400,354.5444444444444,0.9388888888888687,0.9194444444444798,0.9777777777777601,0.9602272727272694,0.02988760308620316,1.0061028545647885,50.0,0.9999999999800001,0.9403409090909622,0.0,0.9995687871219285,0
401,355.4638888888889,0.9194444444444798,0.8972222222221831,0.9777777777777601,0.9403409090909622,0.030368325625540402,1.0222853606588986,52.77777777777778,1.0555555555344445,0.9176136363636129,0.0,0.9963397131449339,0
402,356.3611111111111,0.8972222222221831,0.9472222222222513,0.9777777777777601,0.9176136363636129,0.024745065155496997,0.8329902072618811,47.22222222222222,0.9444444444255556,0.9687500000000472,0.0,0.9980778017492371,0
403,357.30833333333334,0.9472222222222513,0.9805555555555543,0.9777777777777601,0.9687500000000472,0.025859056521259735,0.8704903671048028,47.22222222222222,0.9444444444255556,1.002840909090926,0.0,0.9983169499580345,0
404,358.2888888888889,0.9805555555555543,1.02222222222224,0.9777777777777601,1.002840909090926,0.030624393552661354,1.030905345061656,52.77777777777778,1.0555555555344445,1.0454545454545825,0.0,0.9986430463506644,0
405,359.31111111111113,1.02222222222224,0.9499999999999886,0.9777777777777601,1.0454545454545825,0.03211699206682563,1.0811505126479812,55.55555555555556,1.111111111088889,0.9715909090909151,0.0,0.9975895924309555,0
406,360.2611111111111,0.9499999999999886,0.8694444444444116,0.9777777777777601,0.9715909090909151,0.03011341217266438,1.0137042391863667,47.22222222222222,0.9444444444255556,0.889204545454528,0.0,0.9929895058044805,0
407,361.13055555555553,0.8694444444444116,0.9027777777778283,0.9777777777777601,0.889204545454528,0.0254958051909593,0.8582622804534369,50.0,0.9999999999800001,0.923295454545523,0.0,0.9975298971358887,0
408,362.03333333333336,0.9027777777778283,0.8805555555555316,0.9777777777777601,0.923295454545523,0.03166048750944859,1.0657832536217497,52.77777777777778,1.0555555555344445,0.9005681818181736,0.0,0.9987977102697871,0
409,362.9138888888889,0.8805555555555316,0.9416666666666629,0.9777777777777601,0.9005681818181736,0.02561295926886188,0.8622060243482459,47.22222222222222,0.9444444444255556,0.9630681818181953,0.0,0.9982296866990249,0
410,363.85555555555555,0.9416666666666629,0.919444444444423,0.9777777777777601,0.9630681818181953,0.03218933346233592,1.0835857325053975,55.55555555555556,1.111111111088889,0.9403409090909042,0.0,0.9982082068304686,0
411,364.775,0.919444444444423,0.9111111111111541,0.9777777777777601,0.9403409090909042,0.025569098617616536,0.860729548422969,50.0,0.9999999999800001,0.9318181818182426,0.0,0.9983502947567691,0
412,365.68611111111113,0.9111111111111541,0.8583333333332916,0.9777777777777601,0.9318181818182426,0.02475538752275256,0.8333376878922861,47.22222222222222,0.9444444444255556,0.8778409090908823,0.0,0.997999595166922,0
413,366.5444444444444,0.8583333333332916,0.8611111111111427,0.9777777777777601,0.8778409090908823,0.029819594523504935,1.003813490346849,47.22222222222222,0.9444444444255556,0.8806818181818664,0.0,0.996912337300059,0
414,367.40555555555557,0.8611111111111427,0.8583333333333485,0.9777777777777601,0.8806818181818664,0.028770960203714162,0.9685134370273129,47.22222222222222,0.9444444444255556,0.8778409090909405,0.0,0.9958635579885325,0
415,368.2638888888889,0.8583333333333485,0.9305555555555429,0.9777777777777601,0.8778409090909405,0.02854357032979625,0.9608588385441863,44.44444444444444,0.8888888888711112,0.9517045454545497,0.0,0.9932713962833281,0
416,369.19444444444446,0.9305555555555429,1.0083333333333258,0.9777777777777601,0.9517045454545497,0.03152773175737861,1.061314312411166,55.55555555555556,1.111111111088889,1.0312500000000109,0.0,0.9984693640917769,0
417,370.2027777777778,1.0083333333333258,1.0416666666666856,0.9777777777777601,1.0312500000000109,0.030798806488263754,1.0367765871240082,50.0,0.9999999999800001,1.0653409090909478,0.0,0.9986312997630731,0
418,371.24444444444447,1.0416666666666856,1.0249999999999773,0.9777777777777601,1.0653409090909478,0.030779116556686675,1.036113767281656,52.77777777777778,1.0555555555344445,1.0482954545454501,0.0,0.996794585848856,0
419,372.26944444444445,1.0249999999999773,0.9638888888889028,0.9777777777777601,1.0482954545454501,0.029564626757505343,0.9952305405380496,44.44444444444444,0.8888888888711112,0.9857954545454866,0.0,0.9953464612781191,0
420,373.23333333333335,0.9638888888889028,0.9916666666666742,0.9777777777777601,0.9857954545454866,0.0275954952242653,0.9289438981836182,41.666666666666664,0.8333333333166667,1.0142045454545716,0.0,0.9935039573394413,0
421,374.225,0.9916666666666742,1.0638888888888687,0.9777777777777601,1.0142045454545716,0.026053331574143992,0.8770302252765612,50.0,0.9999999999800001,1.0880681818181808,0.0,0.9984657137907176,0
422,375.2888888888889,1.0638888888888687,0.5416666666666856,0.9777777777777601,1.0880681818181808,0.03113592941984281,1.0481251165735816,52.77777777777778,1.0555555555344445,0.5539772727273021,0.0,0.9992762586752499,0
423,375.8305555555556,0.5416666666666856,1.180555555555543,0.9777777777777601,0.5539772727273021,0.03161029023345201,1.0640934686454881,52.77777777777778,1.0555555555344445,1.2073863636363726,0.0,0.9987936624949976,0
424,377.0111111111111,1.180555555555543,1.0083333333333258,0.9777777777777601,1.2073863636363726,0.028945860122053076,0.9744010723320375,44.44444444444444,0.8888888888711112,1.0312500000000109,0.0,0.9968965661234271,0
425,378.01944444444445,1.0083333333333258,0.9638888888889028,0.9777777777777601,1.0312500000000109,0.024853774477853495,0.836649676347616,47.22222222222222,0.9444444444255556,0.9857954545454866,0.0,0.9978273324720965,0
426,378.98333333333335,0.9638888888889028,0.9749999999999659,0.9777777777777601,0.9857954545454866,0.024724040406504423,0.8322824536184416,47.22222222222222,0.9444444444255556,0.9971590909090741,0.0,0.998165749338057,0
427,379.9583333333333,0.9749999999999659,0.9777777777778169,0.9777777777777601,0.9971590909090741,0.02997175889070089,1.0089357814772997,50.0,0.9999999999800001,1.0000000000000582,0.0,0.9992359137165778,0
428,380.93611111111113,0.9777777777778169,1.0277777777777715,0.9777777777777601,1.0000000000000582,0.0244743298652044,0.8238764771441071,44.44444444444444,0.8888888888711112,1.0511363636363762,0.0,0.9978799676980924,0
429,381.9638888888889,1.0277777777777715,1.0527777777777487,0.9777777777777601,1.0511363636363762,0.031296285142864685,1.0535231523482398,52.77777777777778,1.0555555555344445,1.0767045454545352,0.0,0.9992647317175666,0
430,383.01666666666665,1.0527777777777487,0.9611111111111086,0.9777777777777601,1.0767045454545352,0.02947066075781065,0.9920673741826818,47.22222222222222,0.9444444444255556,0.9829545454545606,0.0,0.9960439121239868,0
431,383.97777777777776,0.9611111111111086,0.9694444444444343,0.9777777777777601,0.9829545454545606,0.022820849883399143,0.7682155757040732,38.888888888888886,0.7777777777622222,0.9914772727272804,0.0,0.9943076881606421,0
432,384.9472222222222,0.9694444444444343,0.9805555555556111,0.9777777777777601,0.9914772727272804,0.024923443761300512,0.83899494521208,47.22222222222222,0.9444444444255556,1.002840909090984,0.0,0.9983051103566769,0
433,385.9277777777778,0.9805555555556111,1.044444444444423,0.9777777777777601,1.002840909090984,0.0253880814938866,0.8546359903552809,50.0,0.9999999999800001,1.0681818181818155,0.0,0.9983468851599722,0
434,386.97222222222223,1.044444444444423,1.0527777777777487,0.9777777777777601,1.0681818181818155,0.025305344381290788,0.8518508207007921,47.22222222222222,0.9444444444255556,1.0767045454545352,0.0,0.9985092146493342,0
435,388.025,1.0527777777777487,1.036111111111154,0.9777777777777601,1.0767045454545352,0.032170104322301336,1.0829384242343456,52.77777777777778,1.0555555555344445,1.059659090909154,0.0,0.9992145945587161,0
436,389.06111111111113,1.036111111111154,1.0305555555555088,0.9777777777777601,1.059659090909154,0.03132998790789861,1.0546576845490843,52.77777777777778,1.0555555555344445,1.053977272727244,0.0,0.9970131071460009,0
437,390.09166666666664,1.0305555555555088,0.9500000000000455,0.9777777777777601,1.053977272727244,0.03058722866677542,1.0296542678952616,50.0,0.9999999999800001,0.9715909090909731,0.0,0.998980366065175,0
438,391.0416666666667,0.9500000000000455,0.9749999999999659,0.9777777777777601,0.9715909090909731,0.024900163040590263,0.8382112490590178,44.44444444444444,0.8888888888711112,0.9971590909090741,0.0,0.9979064421829722,0
439,392.01666666666665,0.9749999999999659,1.02222222222224,0.9777777777777601,0.9971590909090741,0.03140647973170413,1.0572326197842596,52.77777777777778,1.0555555555344445,1.0454545454545825,0.0,0.9994329141239513,0
440,393.0388888888889,1.02222222222224,1.0527777777777487,0.9777777777777601,1.0454545454545825,0.026949848674036554,0.9072095745795647,50.0,0.9999999999800001,1.0767045454545352,0.0,0.9986215044053838,0
441,394.09166666666664,1.0527777777777487,1.0500000000000114,0.9777777777777601,1.0767045454545352,0.025000596695759065,0.8415921353371266,47.22222222222222,0.9444444444255556,1.0738636363636673,0.0,0.9984583807656733,0
442,395.14166666666665,1.0500000000000114,0.9944444444444684,0.9777777777777601,1.0738636363636673,0.030986162639095295,1.0430835351127181,50.0,0.9999999999800001,1.0170454545454974,0.0,0.9992632377460242,0
443,396.1361111111111,0.9944444444444684,0.9388888888888687,0.9777777777777601,1.0170454545454974,0.02948972031160378,0.9927089736921069,44.44444444444444,0.8888888888711112,0.9602272727272694,0.0,0.9927477243607383,0
444,397.075,0.9388888888888687,0.9972222222222058,0.9777777777777601,0.9602272727272694,0.028330672149199102,0.9536920722226234,41.666666666666664,0.8333333333166667,1.0198863636363653,0.0,0.9953381657421322,0
445,398.0722222222222,0.9972222222222058,1.0388888888888914,0.9777777777777601,1.0198863636363653,0.030346612881879512,1.021554447132155,50.0,0.9999999999800001,1.0625000000000218,0.0,0.9977577702313131,0
446,399.1111111111111,1.0388888888888914,1.0527777777778056,0.9777777777777601,1.0625000000000218,0.02570377484706475,0.8652631384368307,47.22222222222222,0.9444444444255556,1.0767045454545934,0.0,0.9979178532926198,0
447,400.1638888888889,1.0527777777778056,1.055555555555543,0.9777777777777601,1.0767045454545934,0.03130170544328884,1.053705615281571,50.0,0.9999999999800001,1.0795454545454612,0.0,0.9993835563784418,0
448,401.21944444444443,1.055555555555543,1.025000000000034,0.9777777777777601,1.0795454545454612,0.030918347041860788,1.0408006666684047,50.0,0.9999999999800001,1.0482954545455083,0.0,0.9988570942650044,0
449,402.24444444444447,1.025000000000034,0.9666666666666401,0.9777777777777601,1.0482954545455083,0.029211495237223165,0.9833431158567204,47.22222222222222,0.9444444444255556,0.9886363636363544,0.0,0.9964938755359831,0
450,403.2111111111111,0.9666666666666401,0.9750000000000227,0.9777777777777601,0.9886363636363544,0.02831355778463156,0.9531159533884765,41.666666666666664,0.8333333333166667,0.9971590909091322,0.0,0.9942664256847678,0
451,404.18611111111113,0.9750000000000227,1.0277777777777715,0.9777777777777601,0.9971590909091322,0.03054389408406939,1.028195500953123,52.77777777777778,1.0555555555344445,1.0511363636363762,0.0,0.9989775672627682,0
452,405.2138888888889,1.0277777777777715,1.033333333333303,0.9777777777777601,1.0511363636363762,0.03347032267160441,1.1267075210407473,58.333333333333336,1.1666666666433334,1.0568181818181699,0.0,0.9963464095009753,0
453,406.2472222222222,1.033333333333303,0.9861111111111427,0.9777777777777601,1.0568181818181699,0.029301991394103503,0.9863894773030312,47.22222222222222,0.9444444444255556,1.008522727272778,0.0,0.99910582957385,0
454,407.23333333333335,0.9861111111111427,0.98888888888888,0.9777777777777601,1.008522727272778,0.026355086471069267,0.887188164750656,50.0,0.9999999999800001,1.0113636363636456,0.0,0.9982519904776617,0
455,408.22222222222223,0.98888888888888,0.9833333333333485,0.9777777777777601,1.0113636363636456,0.03107879902916163,1.046201942976122,52.77777777777778,1.0555555555344445,1.0056818181818519,0.0,0.9969869120996513,0
456,409.2055555555556,0.9833333333333485,0.98888888888888,0.9777777777777601,1.0056818181818519,0.03058020696851148,1.0294178972954893,50.0,0.9999999999800001,1.0113636363636456,0.0,0.9972863153900228,0
457,410.19444444444446,0.98888888888888,1.0583333333333371,0.9777777777777601,1.0113636363636456,0.03151081991152319,1.060745010940519,52.77777777777778,1.0555555555344445,1.082386363636387,0.0,0.997952486801293,0
458,411.2527777777778,1.0583333333333371,1.0666666666666629,0.9777777777777601,1.082386363636387,0.026208560870233183,0.882255690746541,50.0,0.9999999999800001,1.0909090909091068,0.0,0.9984950612439619,0
459,412.31944444444446,1.0666666666666629,1.0416666666666288,0.9777777777777601,1.0909090909091068,0.03207905377781772,1.079873400503589,52.77777777777778,1.0555555555344445,1.0653409090908896,0.0,0.9972965570496446,0
460,413.3611111111111,1.0416666666666288,0.9888888888889369,0.9777777777777601,1.0653409090908896,0.02893054808950765,0.9738856251879924,47.22222222222222,0.9444444444255556,1.0113636363637037,0.0,0.9958739297125865,0
461,414.35,0.9888888888889369,0.9861111111110858,0.9777777777777601,1.0113636363637037,0.031136397821190893,1.048140884312869,50.0,0.9999999999800001,1.0085227272727197,0.0,0.9988366844913863,0
462,415.3361111111111,0.9861111111110858,1.0,0.9777777777777601,1.0085227272727197,0.03033243802242565,1.0210772805116517,50.0,0.9999999999800001,1.0227272727272911,0.0,0.9991497682908173,0
463,416.3361111111111,1.0,1.0500000000000114,0.9777777777777601,1.0227272727272911,0.02422648459203535,0.8155332909706772,41.666666666666664,0.8333333333166667,1.0738636363636673,0.0,0.9955735962185115,0
464,417.3861111111111,1.0500000000000114,1.0805555555555202,0.9777777777777601,1.0738636363636673,0.03125330384372479,1.0520762779490842,52.77777777777778,1.0555555555344445,1.1051136363636203,0.0,0.999048360260609,0
465,418.46666666666664,1.0805555555555202,1.01111111111112,0.9777777777777601,1.1051136363636203,0.029817999714355337,1.0037598044747076,47.22222222222222,0.9444444444255556,1.034090909090937,0.0,0.9956816478083548,0
466,419.47777777777776,1.01111111111112,0.9833333333333485,0.9777777777777601,1.034090909090937,0.028716814189961245,0.9666907261580941,47.22222222222222,0.9444444444255556,1.0056818181818519,0.0,0.995794588549761,0
467,420.4611111111111,0.9833333333333485,1.0055555555555316,0.9777777777777601,1.0056818181818519,0.030661784631304777,1.0321640365281448,50.0,0.9999999999800001,1.028409090909085,0.0,0.9965617165992902,0
468,421.46666666666664,1.0055555555555316,1.01111111111112,0.9777777777777601,1.028409090909085,0.029781982556428787,1.0025473631391244,47.22222222222222,0.9444444444255556,1.034090909090937,0.0,0.9959965175229253,0
469,422.47777777777776,1.01111111111112,1.0500000000000114,0.9777777777777601,1.034090909090937,0.023836311249918935,0.8023989318135983,41.666666666666664,0.8333333333166667,1.0738636363636673,0.0,0.9967220022222554,0
470,423.52777777777777,1.0500000000000114,1.0861111111111086,0.9777777777777601,1.0738636363636673,0.03139636665143448,1.0568921843569559,52.77777777777778,1.0555555555344445,1.1107954545454721,0.0,0.9989053919903347,0
471,424.6138888888889,1.0861111111111086,1.0611111111111313,0.9777777777777601,1.1107954545454721,0.026195606077311046,0.8818195950816707,50.0,0.9999999999800001,1.0852272727273131,0.0,0.9983889262100718,0
472,425.675,1.0611111111111313,0.9861111111110858,0.9777777777777601,1.0852272727273131,0.030238042944276906,1.0178996701389365,50.0,0.9999999999800001,1.0085227272727197,0.0,0.9995951370355203,0
473,426.6611111111111,0.9861111111110858,1.0055555555555884,0.9777777777777601,1.0085227272727197,0.024562532460586758,0.8268456307004582,47.22222222222222,0.9444444444255556,1.028409090909143,0.0,0.9982009685797609,0
474,427.6666666666667,1.0055555555555884,1.0666666666666629,0.9777777777777601,1.028409090909143,0.031020229917229452,1.0442303378750262,52.77777777777778,1.0555555555344445,1.0909090909091068,0.0,0.9995316414636813,0
475,428.73333333333335,1.0666666666666629,1.0500000000000114,0.9777777777777601,1.0909090909091068,0.024789104122808388,0.8344726858198398,47.22222222222222,0.9444444444255556,1.0738636363636673,0.0,0.9979036797092201,0
476,429.78333333333336,1.0500000000000114,1.0527777777777487,0.9777777777777601,1.0738636363636673,0.02471898666259591,0.8321123300338259,47.22222222222222,0.9444444444255556,1.0767045454545352,0.0,0.9980142575653821,0
477,430.8361111111111,1.0527777777777487,1.044444444444423,0.9777777777777601,1.0767045454545352,0.026431824234205908,0.8897713790125027,50.0,0.9999999999800001,1.0681818181818155,0.0,0.9986024944931916,0
478,431.88055555555553,1.044444444444423,1.0,0.9777777777777601,1.0681818181818155,0.03075720348570015,1.0353761101597974,50.0,0.9999999999800001,1.0227272727272911,0.0,0.9980905850715178,0
479,432.88055555555553,1.0,0.9722222222222285,0.9777777777777601,1.0227272727272911,0.029475530940819734,0.9922313185784086,47.22222222222222,0.9444444444255556,0.9943181818182063,0.0,0.9989678650232903,0
480,433.85277777777776,0.9722222222222285,1.02222222222224,0.9777777777777601,0.9943181818182063,0.030349356974747582,1.0216468212064422,47.22222222222222,0.9444444444255556,1.0454545454545825,0.0,0.9978347168112955,0
481,434.875,1.02222222222224,1.080555555555577,0.9777777777777601,1.0454545454545825,0.030645965416274113,1.03163151615997,50.0,0.9999999999800001,1.1051136363636782,0.0,0.9995934771486269,0
482,435.9555555555556,1.080555555555577,1.0527777777777487,0.9777777777777601,1.1051136363636782,0.031462726249509826,1.05912603967345,52.77777777777778,1.0555555555344445,1.0767045454545352,0.0,0.9995025020606216,0
483,437.0083333333333,1.0527777777777487,0.9694444444444343,0.9777777777777601,1.0767045454545352,0.023702354498129394,0.7978895614912288,44.44444444444444,0.8888888888711112,0.9914772727272804,0.0,0.9970814556776199,0
484,437.97777777777776,0.9694444444444343,0.9861111111111427,0.9777777777777601,0.9914772727272804,0.029827582000093857,1.0040823718283682,47.22222222222222,0.9444444444255556,1.008522727272778,0.0,0.9993303086324239,0
485,438.9638888888889,0.9861111111111427,0.9944444444444116,0.9777777777777601,1.008522727272778,0.030754296871819936,1.035278265159863,52.77777777777778,1.0555555555344445,1.0170454545454393,0.0,0.9993881373409165,0
486,439.9583333333333,0.9944444444444116,1.025000000000034,0.9777777777777601,1.0170454545454393,0.025318509035459392,0.852293980900029,47.22222222222222,0.9444444444255556,1.0482954545455083,0.0,0.9985665484599374,0
487,440.98333333333335,1.025000000000034,1.01111111111112,0.9777777777777601,1.0482954545455083,0.0315551415578483,1.0622370052887469,52.77777777777778,1.0555555555344445,1.034090909090937,0.0,0.998689993497779,0
488,441.99444444444447,1.01111111111112,1.0277777777777715,0.9777777777777601,1.034090909090937,0.025598455509987374,0.861717786025371,47.22222222222222,0.9444444444255556,1.0511363636363762,0.0,0.9977067564575344,0
489,443.02222222222224,1.0277777777777715,1.0499999999999545,0.9777777777777601,1.0511363636363762,0.031846351728840074,1.0720399788985102,52.77777777777778,1.0555555555344445,1.0738636363636094,0.0,0.999107431155158,0
490,444.0722222222222,1.0499999999999545,0.9722222222222285,0.9777777777777601,1.0738636363636094,0.03026254343328869,1.0187244272083438,50.0,0.9999999999800001,0.9943181818182063,0.0,0.9992357270264771,0
491,445.0444444444444,0.9722222222222285,0.9916666666666742,0.9777777777777601,0.9943181818182063,0.02408738883082696,0.8108509267808828,44.44444444444444,0.8888888888711112,1.0142045454545716,0.0,0.9954687218671262,0
492,446.0361111111111,0.9916666666666742,1.0472222222222172,0.9777777777777601,1.0142045454545716,0.030844079784338802,1.0383006167454298,52.77777777777778,1.0555555555344445,1.0710227272727415,0.0,0.9995957558695789,0
493,447.0833333333333,1.0472222222222172,1.0666666666666629,0.9777777777777601,1.0710227272727415,0.03020797805192661,1.0168875992168027,50.0,0.9999999999800001,1.0909090909091068,0.0,0.9961727820363169,0
494,448.15,1.0666666666666629,1.0611111111111313,0.9777777777777601,1.0909090909091068,0.030665627163391305,1.0322933872321762,50.0,0.9999999999800001,1.0852272727273131,0.0,0.9974143990148401,0
495,449.2111111111111,1.0611111111111313,1.0277777777777715,0.9777777777777601,1.0852272727273131,0.030960305349645875,1.042213104230344,52.77777777777778,1.0555555555344445,1.0511363636363762,0.0,0.9970891963900883,0
496,450.2388888888889,1.0277777777777715,1.025000000000034,0.9777777777777601,1.0511363636363762,0.02979523165643928,1.0029933660287682,47.22222222222222,0.9444444444255556,1.0482954545455083,0.0,0.996199982225715,0
497,451.2638888888889,1.025000000000034,1.011111111111063,0.9777777777777601,1.0482954545455083,0.023864619922370704,0.8033518833126033,44.44444444444444,0.8888888888711112,1.0340909090908788,0.0,0.9971742078983614,0
498,452.275,1.011111111111063,1.0666666666666629,0.9777777777777601,1.0340909090908788,0.03019634193879454,1.01649589411404,47.22222222222222,0.9444444444255556,1.0909090909091068,0.0,0.9977623553507402,0
499,453.34166666666664,1.0666666666666629,1.0861111111111654,0.9777777777777601,1.0909090909091068,0.031820911523037565,1.0711835882537069,52.77777777777778,1.0555555555344445,1.11079545454553,0.0,0.9979828647853584,0
500,454.4277777777778,1.0861111111111654,1.0472222222222172,0.9777777777777601,1.11079545454553,0.03146688599558945,1.059266068714685,52.77777777777778,1.0555555555344445,1.0710227272727415,0.0,0.9982976529077872,0
501,455.475,1.0472222222222172,1.0055555555555316,0.9777777777777601,1.0710227272727415,0.03030637569674814,1.0201999475189352,50.0,0.9999999999800001,1.028409090909085,0.0,0.996878034768371,0
502,456.48055555555555,1.0055555555555316,0.9972222222222058,0.9777777777777601,1.028409090909085,0.02591873552689599,0.8724993344266401,50.0,0.9999999999800001,1.0198863636363653,0.0,0.9987920808218854,0
503,457.47777777777776,0.9972222222222058,1.0027777777777942,0.9777777777777601,1.0198863636363653,0.025999765620146807,0.8752270408904257,50.0,0.9999999999800001,1.0255681818182172,0.0,0.998776315768264,0
504,458.48055555555555,1.0027777777777942,1.0777777777777828,0.9777777777777601,1.0255681818182172,0.025410119175235946,0.8553778422210734,47.22222222222222,0.9444444444255556,1.1022727272727524,0.0,0.9985549782670411,0
505,459.55833333333334,1.0777777777777828,1.0861111111111086,0.9777777777777601,1.1022727272727524,0.03142788278471866,1.0579531082313332,52.77777777777778,1.0555555555344445,1.1107954545454721,0.0,0.9971376147387612,0
506,460.64444444444445,1.0861111111111086,1.0305555555555657,0.9777777777777601,1.1107954545454721,0.03155236257272594,1.0621434566406223,52.77777777777778,1.0555555555344445,1.053977272727302,0.0,0.9992635455371073,0
507,461.675,1.0305555555555657,0.9861111111110858,0.9777777777777601,1.053977272727302,0.029947031775842466,1.0081033955287693,47.22222222222222,0.9444444444255556,1.0085227272727197,0.0,0.9983557151199889,0
508,462.6611111111111,0.9861111111110858,1.0055555555555884,0.9777777777777601,1.0085227272727197,0.0240360129262933,0.8091214657713105,44.44444444444444,0.8888888888711112,1.028409090909143,0.0,0.9976987600019436,0
509,463.6666666666667,1.0055555555555884,1.0361111111110972,0.9777777777777601,1.028409090909143,0.031702207894224815,1.0671876820095276,52.77777777777778,1.0555555555344445,1.059659090909096,0.0,0.9985700621521971,0
510,464.7027777777778,1.0361111111110972,1.0027777777777942,0.9777777777777601,1.059659090909096,0.025786417146650774,0.8680451164121632,47.22222222222222,0.9444444444255556,1.0255681818182172,0.0,0.9986186323671012,0
511,465.7055555555556,1.0027777777777942,1.044444444444423,0.9777777777777601,1.0255681818182172,0.030495291190866615,1.026559387496638,50.0,0.9999999999800001,1.0681818181818155,0.0,0.9993949551851442,0
512,466.75,1.044444444444423,0.9944444444444684,0.9777777777777601,1.0681818181818155,0.025410957603752404,0.8554060661412494,47.22222222222222,0.9444444444255556,1.0170454545454974,0.0,0.9980358789185607,0
513,467.74444444444447,0.9944444444444684,0.9416666666666629,0.9777777777777601,1.0170454545454974,0.031593054218760186,1.063513254717568,52.77777777777778,1.0555555555344445,0.9630681818181953,0.0,0.9979413079667311,0
514,468.68611111111113,0.9416666666666629,0.9055555555555088,0.9777777777777601,0.9630681818181953,0.029745733632864795,1.0013271199042473,50.0,0.9999999999800001,0.9261363636363326,0.0,0.9961809136485903,0
515,469.59166666666664,0.9055555555555088,0.9388888888889255,0.9777777777777601,0.9261363636363326,0.023743152219092935,0.7992629303559975,41.666666666666664,0.8333333333166667,0.9602272727273276,0.0,0.9973833718606342,0
516,470.53055555555557,0.9388888888889255,1.0361111111110972,0.9777777777777601,0.9602272727273276,0.02734039912034244,0.9203566281504578,52.77777777777778,1.0555555555344445,1.059659090909096,0.0,0.9985451770815283,0
517,471.56666666666666,1.0361111111110972,1.01111111111112,0.9777777777777601,1.059659090909096,0.026804305755918856,0.9023101805077965,50.0,0.9999999999800001,1.034090909090937,0.0,0.9986656839266342,0
518,472.5777777777778,1.01111111111112,0.9805555555555543,0.9777777777777601,1.034090909090937,0.03111880522961985,1.0475486669795564,50.0,0.9999999999800001,1.002840909090926,0.0,0.999581431379611,0
519,473.55833333333334,0.9805555555555543,1.0055555555555316,0.9777777777777601,1.002840909090926,0.025501766560897372,0.8584629573459435,50.0,0.9999999999800001,1.028409090909085,0.0,0.9987590168070299,0
520,474.56388888888887,1.0055555555555316,0.9694444444444912,0.9777777777777601,1.028409090909085,0.03225230936683373,1.085705682944424,52.77777777777778,1.0555555555344445,0.9914772727273384,0.0,0.9985613180163727,0
521,475.53333333333336,0.9694444444444912,0.9611111111111086,0.9777777777777601,0.9914772727273384,0.03016212057418551,1.0153439043569175,50.0,0.9999999999800001,0.9829545454545606,0.0,0.996986887160655,0
522,476.49444444444447,0.9611111111111086,1.011111111111063,0.9777777777777601,0.9829545454545606,0.03073623381540361,1.0346702106240004,52.77777777777778,1.0555555555344445,1.0340909090908788,0.0,0.9979487769816684,0
523,477.50555555555553,1.011111111111063,1.0277777777778283,0.9777777777777601,1.0340909090908788,0.02733192708874122,0.9200714351507595,50.0,0.9999999999800001,1.0511363636364344,0.0,0.9986008970477549,0
524,478.53333333333336,1.0277777777778283,1.0361111111110972,0.9777777777777601,1.0511363636364344,0.03271353375364557,1.1012318250317599,55.55555555555556,1.111111111088889,1.059659090909096,0.0,0.9982657489870084,0
525,479.56944444444446,1.0361111111110972,0.9611111111111086,0.9777777777777601,1.059659090909096,0.026033901562386726,0.8763761550844206,50.0,0.9999999999800001,0.9829545454545606,0.0,0.9987505595874311,0
526,480.53055555555557,0.9611111111111086,0.9388888888888687,0.9777777777777601,0.9829545454545606,0.024428816461515866,0.8223443648084365,47.22222222222222,0.9444444444255556,0.9602272727272694,0.0,0.9977602936187933,0
527,481.46944444444443,0.9388888888888687,1.0305555555555657,0.9777777777777601,0.9602272727272694,0.024940876179762848,0.8395817706569421,47.22222222222222,0.9444444444255556,1.053977272727302,0.0,0.9983201382182552,0
528,482.5,1.0305555555555657,1.0749999999999886,0.9777777777777601,1.053977272727302,0.0264416996971686,0.8901038155564522,50.0,0.9999999999800001,1.0994318181818263,0.0,0.9986106921800908,0
529,483.575,1.0749999999999886,1.02222222222224,0.9777777777777601,1.0994318181818263,0.03180659599336165,1.0707016862681242,52.77777777777778,1.0555555555344445,1.0454545454545825,0.0,0.9984593074606989,0
530,484.59722222222223,1.02222222222224,1.0500000000000114,0.9777777777777601,1.0454545454545825,0.025712171510493594,0.8655457943266394,47.22222222222222,0.9444444444255556,1.0738636363636673,0.0,0.9985484434897489,0
531,485.64722222222224,1.0500000000000114,0.9972222222222058,0.9777777777777601,1.0738636363636673,0.025115763084394647,0.8454689678827804,47.22222222222222,0.9444444444255556,1.0198863636363653,0.0,0.9964023609977413,0
532,486.64444444444445,0.9972222222222058,0.9805555555555543,0.9777777777777601,1.0198863636363653,0.030312421643641195,1.0204034715154935,50.0,0.9999999999800001,1.002840909090926,0.0,0.9978200716166863,0
533,487.625,0.9805555555555543,1.0249999999999773,0.9777777777777601,1.002840909090926,0.025713476906115855,0.8655897377053742,50.0,0.9999999999800001,1.0482954545454501,0.0,0.998571339972368,0
534,488.65,1.0249999999999773,1.0333333333333599,0.9777777777777601,1.0482954545454501,0.026060927190085036,0.8772859155993489,47.22222222222222,0.9444444444255556,1.056818181818228,0.0,0.998326115089105,0
535,489.68333333333334,1.0333333333333599,1.0500000000000114,0.9777777777777601,1.056818181818228,0.03268911882650083,1.1004099482213825,52.77777777777778,1.0555555555344445,1.0738636363636673,0.0,0.9970277136013668,0
536,490.73333333333335,1.0500000000000114,1.022222222222183,0.9777777777777601,1.0738636363636673,0.031201992867840377,1.0503490026249669,50.0,0.9999999999800001,1.0454545454545243,0.0,0.9989184404822996,0
537,491.75555555555553,1.022222222222183,0.9611111111111086,0.9777777777777601,1.0454545454545243,0.02535117826072902,0.8533937211737936,50.0,0.9999999999800001,0.9829545454545606,0.0,0.9983590608775185,0
538,492.71666666666664,0.9611111111111086,0.8833333333333826,0.9777777777777601,0.9829545454545606,0.024986273641053675,0.8411099800373651,47.22222222222222,0.9444444444255556,0.9034090909091577,0.0,0.9980560968446761,0
539,493.6,0.8833333333333826,0.9277777777777487,0.9777777777777601,0.9034090909091577,0.02911707906378529,0.9801647953557773,47.22222222222222,0.9444444444255556,0.9488636363636238,0.0,0.9963128030964983,0
540,494.52777777777777,0.9277777777777487,0.9944444444444684,0.9777777777777601,0.9488636363636238,0.031243368582938906,1.0517418284380715,52.77777777777778,1.0555555555344445,1.0170454545454974,0.0,0.9983522832299079,0
541,495.52222222222224,0.9944444444444684,1.01111111111112,0.9777777777777601,1.0170454545454974,0.03142617182255273,1.0578955123139144,52.77777777777778,1.0555555555344445,1.034090909090937,0.0,0.9992900120721827,0
542,496.53333333333336,1.01111111111112,1.0472222222222172,0.9777777777777601,1.034090909090937,0.026039274034257525,0.876557007970806,50.0,0.9999999999800001,1.0710227272727415,0.0,0.998878865744902,0
543,497.5805555555556,1.0472222222222172,1.0027777777777374,0.9777777777777601,1.0710227272727415,0.031808653416140344,1.0707709450482519,52.77777777777778,1.0555555555344445,1.025568181818159,0.0,0.9977857283201341,0
544,498.5833333333333,1.0027777777777374,0.9611111111111086,0.9777777777777601,1.025568181818159,0.023268221189177866,0.7832753831598985,41.666666666666664,0.8333333333166667,0.9829545454545606,0.0,0.9943273034138813,0
545,499.5444444444444,0.9611111111111086,1.0472222222222172,0.9777777777777601,0.9829545454545606,0.031094455868129284,1.0467289972980556,50.0,0.9999999999800001,1.0710227272727415,0.0,0.999149838711334,0
546,500.59166666666664,1.0472222222222172,1.0666666666667197,0.9777777777777601,1.0710227272727415,0.032192509078099125,1.0836926328839642,55.55555555555556,1.111111111088889,1.090909090909165,0.0,0.9982969542822665,0
547,501.65833333333336,1.0666666666667197,1.0472222222222172,0.9777777777777601,1.090909090909165,0.02623294795331996,0.8830766302456822,50.0,0.9999999999800001,1.0710227272727415,0.0,0.9986122822107446,0
548,502.7055555555556,1.0472222222222172,1.022222222222183,0.9777777777777601,1.0710227272727415,0.03202641510297711,1.0781014310062393,55.55555555555556,1.111111111088889,1.0454545454545243,0.0,0.9985793123443032,0
549,503.72777777777776,1.022222222222183,0.966666666666697,0.9777777777777601,1.0454545454545243,0.024413407004002664,0.8218256380592017,44.44444444444444,0.8888888888711112,0.9886363636364125,0.0,0.9976644792642346,0
550,504.69444444444446,0.966666666666697,0.9777777777777601,0.9777777777777601,0.9886363636364125,0.03058084746303858,1.0294394581871469,50.0,0.9999999999800001,1.0,0.0,0.9978874758851254,0
551,505.6722222222222,0.9777777777777601,0.955555555555577,0.9777777777777601,1.0,0.02593693741334508,0.8731120623815073,50.0,0.9999999999800001,0.9772727272727669,0.0,0.9983667802256369,0
552,506.6277777777778,0.955555555555577,0.9638888888888459,0.9777777777777601,0.9772727272727669,0.02979071116411347,1.0028411932292327,50.0,0.9999999999800001,0.9857954545454285,0.0,0.9985302465223249,0
553,507.59166666666664,0.9638888888888459,0.9444444444444571,0.9777777777777601,0.9857954545454285,0.02430857455286125,0.8182966756315292,44.44444444444444,0.8888888888711112,0.9659090909091212,0.0,0.9974221587332834,0
554,508.5361111111111,0.9444444444444571,0.9777777777778169,0.9777777777777601,0.9659090909091212,0.03062018230604162,1.0307635823638188,50.0,0.9999999999800001,1.0000000000000582,0.0,0.9992675802222565,0
555,509.5138888888889,0.9777777777778169,0.9499999999999886,0.9777777777777601,1.0000000000000582,0.025742510194670207,0.8665670818707021,47.22222222222222,0.9444444444255556,0.9715909090909151,0.0,0.9983434962841935,0
556,510.4638888888889,0.9499999999999886,0.9361111111110745,0.9777777777777601,0.9715909090909151,0.03035203880308318,1.021737099277123,50.0,0.9999999999800001,0.9573863636363434,0.0,0.9991155589935412,0
557,511.4,0.9361111111110745,0.9555555555556339,0.9777777777777601,0.9573863636363434,0.030314414049402053,1.0204705416354247,50.0,0.9999999999800001,0.977272727272825,0.0,0.9967298104364205,0
558,512.3555555555556,0.9555555555556339,0.9944444444444116,0.9777777777777601,0.977272727272825,0.030570015877012798,1.0290748357853916,47.22222222222222,0.9444444444255556,1.0170454545454393,0.0,0.9973989894181485,0
559,513.35,0.9944444444444116,0.9722222222221717,0.9777777777777601,1.0170454545454393,0.029484080661436752,0.992519126814275,47.22222222222222,0.9444444444255556,0.9943181818181481,0.0,0.9985483754951772,0
560,514.3222222222222,0.9722222222221717,0.9361111111111313,0.9777777777777601,0.9943181818181481,0.0313411751852472,1.0550342805458512,52.77777777777778,1.0555555555344445,0.9573863636364016,0.0,0.9989320816686484,0
