beat_index,peak_time_s,rr_prev_s,rr_next_s,rr_baseline_s,prematurity_index,aa_ratio,morph_index,qrs_width_ms,width_index,pause_index,pvc_score,morphology_score,is_pvc_candidate
0,0.7361111111111112,,0.8638888888888889,0.8694444444444436,,0.027328200992537154,1.094877519401889,41.666666666666664,1.0714285714010205,0.9936102236421736,0.0,0.9996282474367799,0
1,1.6,0.8638888888888889,0.833333333333333,0.8694444444444436,0.9936102236421736,0.021393297773075963,0.8571014536964136,38.888888888888886,0.9999999999742858,0.958466453674122,0.0,0.9953850453711699,0
2,2.433333333333333,0.833333333333333,0.8472222222222223,0.8694444444444436,0.958466453674122,0.026853812809348128,1.0758716229879461,41.666666666666664,1.0714285714010205,0.9744408945686912,0.0,0.9983980931813056,0
3,3.2805555555555554,0.8472222222222223,0.8361111111111108,0.8694444444444436,0.9744408945686912,0.02126682844311836,0.8520345842635441,36.111111111111114,0.9285714285475513,0.9616613418530358,0.0,0.9929492788579333,0
4,4.116666666666666,0.8361111111111108,0.8694444444444445,0.8694444444444436,0.9616613418530358,0.026706994556983377,1.0699894939741872,41.666666666666664,1.0714285714010205,1.000000000000001,0.0,0.997235431586769,0
5,4.986111111111111,0.8694444444444445,0.9250000000000007,0.8694444444444436,1.000000000000001,0.028192185626935515,1.1294922148064548,44.44444444444444,1.1428571428277552,1.0638977635782767,0.0,0.9983990369713216,0
6,5.911111111111111,0.9250000000000007,0.8777777777777773,0.8694444444444436,1.0638977635782767,0.02281951387707089,0.9142414004678611,38.888888888888886,0.9999999999742858,1.0095846645367417,0.0,0.996552343373027,0
7,6.788888888888889,0.8777777777777773,0.8361111111111112,0.8694444444444436,1.0095846645367417,0.026498631368502848,1.0616416275705214,38.888888888888886,0.9999999999742858,0.9616613418530363,0.0,0.9980808915999082,0
8,7.625,0.8361111111111112,0.8305555555555557,0.8694444444444436,0.9616613418530363,0.021812251376356027,0.8738864181376887,38.888888888888886,0.9999999999742858,0.9552715654952088,0.0,0.9957252730887096,0
9,8.455555555555556,0.8305555555555557,0.8416666666666668,0.8694444444444436,0.9552715654952088,0.026692878516659337,1.0694239486893737,38.888888888888886,0.9999999999742858,0.9680511182108638,0.0,0.9998215076079395,0
10,9.297222222222222,0.8416666666666668,0.8333333333333339,0.8694444444444436,0.9680511182108638,0.027483789585875468,1.1011110235088004,41.666666666666664,1.0714285714010205,0.9584664536741231,0.0,0.9997077567794567,0
11,10.130555555555556,0.8333333333333339,0.8555555555555543,0.8694444444444436,0.9584664536741231,0.027542187923992982,1.1034506955418317,41.666666666666664,1.0714285714010205,0.9840255591054309,0.0,0.9995065157897871,0
12,10.98611111111111,0.8555555555555543,0.9083333333333332,0.8694444444444436,0.9840255591054309,0.023632881975826924,0.9468281941089729,41.666666666666664,1.0714285714010205,1.0447284345047931,0.0,0.9958612831889729,0
13,11.894444444444444,0.9083333333333332,0.9111111111111114,0.8694444444444436,1.0447284345047931,0.028021989267069416,1.1226734648875591,44.44444444444444,1.1428571428277552,1.0479233226837075,0.0,0.9981950022119117,0
14,12.805555555555555,0.9111111111111114,0.9138888888888896,0.8694444444444436,1.0479233226837075,0.027637702360038555,1.1072773875671575,41.666666666666664,1.0714285714010205,1.0511182108626218,0.0,0.9994291757517617,0
15,13.719444444444445,0.9138888888888896,0.8777777777777764,0.8694444444444436,1.0511182108626218,0.026469784888866036,1.0604859217091345,38.888888888888886,0.9999999999742858,1.0095846645367408,0.0,0.997908819938979,0
16,14.597222222222221,0.8777777777777764,0.9027777777777786,0.8694444444444436,1.0095846645367408,0.026117612498000757,1.0463764809223917,38.888888888888886,0.9999999999742858,1.038338658146967,0.0,0.9977060291350655,0
17,15.5,0.9027777777777786,0.8666666666666671,0.8694444444444436,1.038338658146967,0.027567527073493626,1.104465883667702,41.666666666666664,1.0714285714010205,0.9968051118210878,0.0,0.9982954370212165,0
18,16.366666666666667,0.8666666666666671,0.9027777777777786,0.8694444444444436,0.9968051118210878,0.027149041251203005,1.0876996604121156,41.666666666666664,1.0714285714010205,1.038338658146967,0.0,0.9986627526142804,0
19,17.269444444444446,0.9027777777777786,0.93611111111111,0.8694444444444436,1.038338658146967,0.021863130695171578,0.8759248480507607,38.888888888888886,0.9999999999742858,1.0766773162939296,0.0,0.9966464611963917,0
20,18.205555555555556,0.93611111111111,0.8861111111111093,0.8694444444444436,1.0766773162939296,0.024224210753651967,0.9705192005382961,41.666666666666664,1.0714285714010205,1.0191693290734813,0.0,0.9946558132773891,0
21,19.091666666666665,0.8861111111111093,0.8500000000000014,0.8694444444444436,1.0191693290734813,0.02743316471236107,1.0990827876966949,38.888888888888886,0.9999999999742858,0.9776357827476064,0.0,0.9994861316558719,0
22,19.941666666666666,0.8500000000000014,0.8416666666666686,0.8694444444444436,0.9776357827476064,0.02162348888520396,0.8663238344123592,38.888888888888886,0.9999999999742858,0.9680511182108658,0.0,0.9950862710529715,0
23,20.783333333333335,0.8416666666666686,0.8305555555555522,0.8694444444444436,0.9680511182108658,0.027019013739880922,1.082490235939235,38.888888888888886,0.9999999999742858,0.9552715654952048,0.0,0.9987932175095728,0
24,21.613888888888887,0.8305555555555522,0.8805555555555564,0.8694444444444436,0.9552715654952048,0.02733607551219014,1.0951930042940887,38.888888888888886,0.9999999999742858,1.012779552715657,0.0,0.999590711768188,0
25,22.494444444444444,0.8805555555555564,0.8888888888888893,0.8694444444444436,1.012779552715657,0.022835406723523105,0.9148781317442662,38.888888888888886,0.9999999999742858,1.0223642172523977,0.0,0.9968534904051265,0
26,23.383333333333333,0.8888888888888893,0.8916666666666657,0.8694444444444436,1.0223642172523977,0.021721713758319158,0.8702591174355374,38.888888888888886,0.9999999999742858,1.0255591054313098,0.0,0.9965479240053028,0
27,24.275,0.8916666666666657,0.8944444444444457,0.8694444444444436,1.0255591054313098,0.028250919561927167,1.1318453321984825,44.44444444444444,1.1428571428277552,1.0287539936102261,0.0,0.9985500009738586,0
28,25.169444444444444,0.8944444444444457,0.8333333333333321,0.8694444444444436,1.0287539936102261,0.026749287445942217,1.0716839170122876,38.888888888888886,0.9999999999742858,0.958466453674121,0.0,0.9987528572764482,0
29,26.002777777777776,0.8333333333333321,0.8388888888888886,0.8694444444444436,0.958466453674121,0.02555403204766565,1.0237971839677622,36.111111111111114,0.9285714285475513,0.9648562300319495,0.0,0.9968277136672408,0
30,26.841666666666665,0.8388888888888886,0.8361111111111121,0.8694444444444436,0.9648562300319495,0.027495239941865788,1.1015697707701504,41.666666666666664,1.0714285714010205,0.9616613418530373,0.0,0.9981741331805977,0
31,27.677777777777777,0.8361111111111121,0.875,0.8694444444444436,0.9616613418530373,0.022517243119640814,0.9021312195901242,38.888888888888886,0.9999999999742858,1.0063897763578284,0.0,0.9946760288091885,0
32,28.552777777777777,0.875,0.8833333333333329,0.8694444444444436,1.0063897763578284,0.02760138145481882,1.105822226189346,41.666666666666664,1.0714285714010205,1.0159744408945692,0.0,0.9978438461078625,0
33,29.43611111111111,0.8833333333333329,0.8722222222222236,0.8694444444444436,1.0159744408945692,0.027842273150459035,1.1154733152690515,38.888888888888886,0.9999999999742858,1.0031948881789163,0.0,0.9988750718276576,0
34,30.308333333333334,0.8722222222222236,0.8694444444444436,0.8694444444444436,1.0031948881789163,0.023251511451941913,0.9315489588136,41.666666666666664,1.0714285714010205,1.0,0.0,0.9949058945532518,0
35,31.177777777777777,0.8694444444444436,0.8250000000000028,0.8694444444444436,1.0,0.023319103770953826,0.934256978656933,41.666666666666664,1.0714285714010205,0.9488817891373844,0.0,0.994923384115647,0
36,32.00277777777778,0.8250000000000028,0.7861111111111114,0.8694444444444436,0.9488817891373844,0.021313276173259888,0.8538954669309795,38.888888888888886,0.9999999999742858,0.9041533546325892,0.0,0.995284145689634,0
37,32.78888888888889,0.7861111111111114,0.8138888888888829,0.8694444444444436,0.9041533546325892,0.02098657109757594,0.8408063491021649,38.888888888888886,0.9999999999742858,0.9361022364217193,0.0,0.9955767840420684,0
38,33.602777777777774,0.8138888888888829,0.8277777777777828,0.8694444444444436,0.9361022364217193,0.026640955102714112,1.067343688130885,38.888888888888886,0.9999999999742858,0.9520766773163007,0.0,0.9988894338345908,0
39,34.43055555555556,0.8277777777777828,0.8444444444444414,0.8694444444444436,0.9520766773163007,0.0269154188363611,1.0783398079246196,38.888888888888886,0.9999999999742858,0.9712460063897739,0.0,0.9995753602749862,0
40,35.275,0.8444444444444414,0.8388888888888886,0.8694444444444436,0.9712460063897739,0.02144545785610058,0.8591911961690112,38.888888888888886,0.9999999999742858,0.9648562300319495,0.0,0.9966293787252697,0
41,36.11388888888889,0.8388888888888886,0.8333333333333357,0.8694444444444436,0.9648562300319495,0.027092046657782594,1.0854162280310196,38.888888888888886,0.9999999999742858,0.9584664536741251,0.0,0.9996435686408152,0
42,36.94722222222222,0.8333333333333357,0.8277777777777757,0.8694444444444436,0.9584664536741251,0.023320206969336153,0.934301177216091,41.666666666666664,1.0714285714010205,0.9520766773162925,0.0,0.9949618215385705,0
43,37.775,0.8277777777777757,0.7972222222222243,0.8694444444444436,0.9520766773162925,0.026727141096399936,1.0707966452794253,38.888888888888886,0.9999999999742858,0.9169329073482461,0.0,0.9986270820484761,0
44,38.57222222222222,0.7972222222222243,0.7888888888888914,0.8694444444444436,0.9169329073482461,0.026473494236225626,1.0606345330662004,38.888888888888886,0.9999999999742858,0.9073482428115054,0.0,0.9986863719616812,0
45,39.361111111111114,0.7888888888888914,0.80833333333333,0.8694444444444436,0.9073482428115054,0.021421988078688056,0.8582509025989603,36.111111111111114,0.9285714285475513,0.9297124600638949,0.0,0.9937768575906125,0
46,40.169444444444444,0.80833333333333,0.8555555555555543,0.8694444444444436,0.9297124600638949,0.026978045873771467,1.080848898639595,38.888888888888886,0.9999999999742858,0.9840255591054309,0.0,0.9996790298284286,0
47,41.025,0.8555555555555543,0.8694444444444471,0.8694444444444436,0.9840255591054309,0.02749402455907508,1.1015210776529059,41.666666666666664,1.0714285714010205,1.000000000000004,0.0,0.9994541667500413,0
48,41.894444444444446,0.8694444444444471,0.8361111111111086,0.8694444444444436,1.000000000000004,0.02734956094883376,1.0957332850620927,38.888888888888886,0.9999999999742858,0.9616613418530332,0.0,0.9994277782435251,0
49,42.730555555555554,0.8361111111111086,0.8333333333333357,0.8694444444444436,0.9616613418530332,0.026950571719121772,1.0797481736303367,38.888888888888886,0.9999999999742858,0.9584664536741251,0.0,0.9995103629610389,0
50,43.56388888888889,0.8333333333333357,0.8166666666666629,0.8694444444444436,0.9584664536741251,0.02718701285853024,1.0892209555478436,41.666666666666664,1.0714285714010205,0.9392971246006355,0.0,0.9991080659132656,0
51,44.38055555555555,0.8166666666666629,0.8111111111111171,0.8694444444444436,0.9392971246006355,0.02578735375633489,1.0331449889579314,38.888888888888886,0.9999999999742858,0.9329073482428193,0.0,0.9962932359762224,0
52,45.19166666666667,0.8111111111111171,0.8499999999999943,0.8694444444444436,0.9329073482428193,0.026123587217740617,1.0466158521978624,38.888888888888886,0.9999999999742858,0.9776357827475983,0.0,0.9978735933705211,0
53,46.041666666666664,0.8499999999999943,0.8638888888888943,0.8694444444444436,0.9776357827475983,0.027458414222353657,1.100094384503757,41.666666666666664,1.0714285714010205,0.9936102236421797,0.0,0.9991548891141264,0
54,46.90555555555556,0.8638888888888943,0.9249999999999972,0.8694444444444436,0.9936102236421797,0.028236550916001153,1.1312696665184425,41.666666666666664,1.0714285714010205,1.0638977635782725,0.0,0.9976997811503875,0
55,47.830555555555556,0.9249999999999972,0.8805555555555529,0.8694444444444436,1.0638977635782725,0.02802517000732063,1.1228008981202502,41.666666666666664,1.0714285714010205,1.012779552715653,0.0,0.9976959525879869,0
56,48.71111111111111,0.8805555555555529,0.8388888888888886,0.8694444444444436,1.012779552715653,0.027235265397562835,1.09115414611005,41.666666666666664,1.0714285714010205,0.9648562300319495,0.0,0.9996856826749858,0
57,49.55,0.8388888888888886,0.8555555555555614,0.8694444444444436,0.9648562300319495,0.022065012536377014,0.8840130456445816,38.888888888888886,0.9999999999742858,0.984025559105439,0.0,0.995756972856507,0
58,50.40555555555556,0.8555555555555614,0.8305555555555557,0.8694444444444436,0.984025559105439,0.026550497085061815,1.0637195765399243,38.888888888888886,0.9999999999742858,0.9552715654952088,0.0,0.9997673227449576,0
59,51.236111111111114,0.8305555555555557,0.8194444444444429,0.8694444444444436,0.9552715654952088,0.02656298112905327,1.0642197374953126,38.888888888888886,0.9999999999742858,0.9424920127795519,0.0,0.9983103643176321,0
60,52.05555555555556,0.8194444444444429,0.8555555555555543,0.8694444444444436,0.9424920127795519,0.02128784051738809,0.8528764123721785,36.111111111111114,0.9285714285475513,0.9840255591054309,0.0,0.9927046517047693,0
61,52.91111111111111,0.8555555555555543,0.8861111111111128,0.8694444444444436,0.9840255591054309,0.02672823454680261,1.070840453295357,41.666666666666664,1.0714285714010205,1.0191693290734853,0.0,0.998901539335926,0
62,53.797222222222224,0.8861111111111128,0.8916666666666657,0.8694444444444436,1.0191693290734853,0.02194752104664157,0.8793058645583658,38.888888888888886,0.9999999999742858,1.0255591054313098,0.0,0.9955456724814561,0
63,54.68888888888889,0.8916666666666657,0.8416666666666686,0.8694444444444436,1.0255591054313098,0.02701413272223306,1.0822946827633817,41.666666666666664,1.0714285714010205,0.9680511182108658,0.0,0.9988421843603198,0
64,55.53055555555556,0.8416666666666686,0.8222222222222157,0.8694444444444436,0.9680511182108658,0.02073227506802385,0.830618228555709,36.111111111111114,0.9285714285475513,0.94568690095846,0.0,0.9927301324473541,0
65,56.352777777777774,0.8222222222222157,0.8527777777777814,0.8694444444444436,0.94568690095846,0.021783596673014854,0.8727383956051428,38.888888888888886,0.9999999999742858,0.9808306709265228,0.0,0.9966719487892168,0
66,57.205555555555556,0.8527777777777814,0.8333333333333357,0.8694444444444436,0.9808306709265228,0.02054805587295371,0.8232376675235471,38.888888888888886,0.9999999999742858,0.9584664536741251,0.0,0.9930854254902342,0
67,58.03888888888889,0.8333333333333357,0.8499999999999943,0.8694444444444436,0.9584664536741251,0.0214734013403944,0.8603107244092864,38.888888888888886,0.9999999999742858,0.9776357827475983,0.0,0.9958224639105717,0
68,58.888888888888886,0.8499999999999943,0.88333333333334,0.8694444444444436,0.9776357827475983,0.02786687258831552,1.1164588675747573,41.666666666666664,1.0714285714010205,1.0159744408945772,0.0,0.9980360619834328,0
69,59.772222222222226,0.88333333333334,0.8861111111111057,0.8694444444444436,1.0159744408945772,0.02292333118886919,0.9184007390516096,38.888888888888886,0.9999999999742858,1.0191693290734773,0.0,0.9945975923390185,0
70,60.65833333333333,0.8861111111111057,0.8305555555555557,0.8694444444444436,1.0191693290734773,0.027558000328498467,1.1040842039906853,38.888888888888886,0.9999999999742858,0.9552715654952088,0.0,0.9996260240492034,0
71,61.48888888888889,0.8305555555555557,0.7972222222222243,0.8694444444444436,0.9552715654952088,0.027379239049985973,1.0969223090223221,41.666666666666664,1.0714285714010205,0.9169329073482461,0.0,0.999518208806305,0
72,62.28611111111111,0.7972222222222243,0.8472222222222214,0.8694444444444436,0.9169329073482461,0.02601143732400805,1.0421226769067178,38.888888888888886,0.9999999999742858,0.9744408945686902,0.0,0.9974641872441572,0
73,63.13333333333333,0.8472222222222214,0.8305555555555557,0.8694444444444436,0.9744408945686902,0.021669485418336062,0.8681666403149694,38.888888888888886,0.9999999999742858,0.9552715654952088,0.0,0.995843109854749,0
74,63.96388888888889,0.8305555555555557,0.8333333333333286,0.8694444444444436,0.9552715654952088,0.02339873889005757,0.937447481452393,38.888888888888886,0.9999999999742858,0.9584664536741169,0.0,0.9964321183815719,0
75,64.79722222222222,0.8333333333333286,0.8694444444444542,0.8694444444444436,0.9584664536741169,0.026772151931245356,1.0725999601487508,38.888888888888886,0.9999999999742858,1.0000000000000122,0.0,0.9996932596309656,0
76,65.66666666666667,0.8694444444444542,0.875,0.8694444444444436,1.0000000000000122,0.021171343367345666,0.8482090685287008,36.111111111111114,0.9285714285475513,1.0063897763578284,0.0,0.9930729810351367,0
77,66.54166666666667,0.875,0.86944444444444,0.8694444444444436,1.0063897763578284,0.027390577236409044,1.097376562320181,38.888888888888886,0.9999999999742858,0.9999999999999959,0.0,0.9997173824338725,0
78,67.41111111111111,0.86944444444444,0.8138888888888829,0.8694444444444436,0.9999999999999959,0.026314788861571813,1.0542761581785096,38.888888888888886,0.9999999999742858,0.9361022364217193,0.0,0.9982938937419662,0
79,68.225,0.8138888888888829,0.8305555555555628,0.8694444444444436,0.9361022364217193,0.025888710172385088,1.037205734171669,38.888888888888886,0.9999999999742858,0.955271565495217,0.0,0.996398640392455,0
80,69.05555555555556,0.8305555555555628,0.8499999999999943,0.8694444444444436,0.955271565495217,0.02691694263702274,1.0784008575008042,38.888888888888886,0.9999999999742858,0.9776357827475983,0.0,0.9995286347896549,0
81,69.90555555555555,0.8499999999999943,0.8305555555555628,0.8694444444444436,0.9776357827475983,0.0213591212793842,0.8557322060593184,38.888888888888886,0.9999999999742858,0.955271565495217,0.0,0.9958740195387509,0
82,70.73611111111111,0.8305555555555628,0.8555555555555543,0.8694444444444436,0.955271565495217,0.026439516588033236,1.0592732519786472,38.888888888888886,0.9999999999742858,0.9840255591054309,0.0,0.9994633152828489,0
83,71.59166666666667,0.8555555555555543,0.8583333333333343,0.8694444444444436,0.9840255591054309,0.027074079175107273,1.0846963784929244,41.666666666666664,1.0714285714010205,0.9872204472843471,0.0,0.9975820150348351,0
84,72.45,0.8583333333333343,0.8527777777777743,0.8694444444444436,0.9872204472843471,0.027041340459173054,1.0833847340088893,41.666666666666664,1.0714285714010205,0.9808306709265145,0.0,0.9976841314952316,0
85,73.30277777777778,0.8527777777777743,0.8222222222222229,0.8694444444444436,0.9808306709265145,0.027190103078603235,1.0893447621785417,38.888888888888886,0.9999999999742858,0.9456869009584681,0.0,0.9996626475683644,0
86,74.125,0.8222222222222229,0.8027777777777771,0.8694444444444436,0.9456869009584681,0.02144087368385158,0.8590075358123755,36.111111111111114,0.9285714285475513,0.9233226837060705,0.0,0.9930340448195145,0
87,74.92777777777778,0.8027777777777771,0.8305555555555628,0.8694444444444436,0.9233226837060705,0.025937453817825744,1.039158600429541,38.888888888888886,0.9999999999742858,0.955271565495217,0.0,0.9978256778612048,0
88,75.75833333333334,0.8305555555555628,0.8388888888888886,0.8694444444444436,0.955271565495217,0.023214419464074883,0.9300629047672092,38.888888888888886,0.9999999999742858,0.9648562300319495,0.0,0.996401094580436,0
89,76.59722222222223,0.8388888888888886,0.8333333333333286,0.8694444444444436,0.9648562300319495,0.027853986103061043,1.115942583205615,38.888888888888886,0.9999999999742858,0.9584664536741169,0.0,0.9992906633194591,0
90,77.43055555555556,0.8333333333333286,0.86666666666666,0.8694444444444436,0.9584664536741169,0.02278879017285342,0.9130104854482574,38.888888888888886,0.9999999999742858,0.9968051118210797,0.0,0.996473568095733,0
91,78.29722222222222,0.86666666666666,0.8472222222222285,0.8694444444444436,0.9968051118210797,0.0222323525570928,0.8907173591421291,38.888888888888886,0.9999999999742858,0.9744408945686983,0.0,0.9942043059715834,0
92,79.14444444444445,0.8472222222222285,0.8111111111111029,0.8694444444444436,0.9744408945686983,0.02242855484635441,0.8985780110681885,38.888888888888886,0.9999999999742858,0.932907348242803,0.0,0.9964051908960909,0
93,79.95555555555555,0.8111111111111029,0.7777777777777857,0.8694444444444436,0.932907348242803,0.02598696660093526,1.0411422814323423,38.888888888888886,0.9999999999742858,0.8945686900958566,0.0,0.9973775349603976,0
94,80.73333333333333,0.7777777777777857,0.7777777777777715,0.8694444444444436,0.8945686900958566,0.026161560494155085,1.0481372142039302,38.888888888888886,0.9999999999742858,0.8945686900958403,0.0,0.9983583701718377,0
95,81.5111111111111,0.7777777777777715,0.8500000000000085,0.8694444444444436,0.8945686900958403,0.02615797434756625,1.0479935387646846,38.888888888888886,0.9999999999742858,0.9776357827476146,0.0,0.9979704193409905,0
96,82.36111111111111,0.8500000000000085,0.8472222222222143,0.8694444444444436,0.9776357827476146,0.027808158527589895,1.114106546425669,41.666666666666664,1.0714285714010205,0.974440894568682,0.0,0.9993452718339407,0
97,83.20833333333333,0.8472222222222143,0.8472222222222285,0.8694444444444436,0.974440894568682,0.027809179188349995,1.114147438196096,38.888888888888886,0.9999999999742858,0.9744408945686983,0.0,0.999583915047311,0
98,84.05555555555556,0.8472222222222285,0.87222222222222,0.8694444444444436,0.9744408945686983,0.02215260900693389,0.887522512162991,38.888888888888886,0.9999999999742858,1.0031948881789121,0.0,0.9951092041053797,0
99,84.92777777777778,0.87222222222222,0.8499999999999943,0.8694444444444436,1.0031948881789121,0.025900669426253117,1.0376848699264338,38.888888888888886,0.9999999999742858,0.9776357827475983,0.0,0.9981558001089283,0
100,85.77777777777777,0.8499999999999943,0.8361111111111228,0.8694444444444436,0.9776357827475983,0.026564076839361156,1.064263636052126,41.666666666666664,1.0714285714010205,0.9616613418530495,0.0,0.9983001180469409,0
101,86.6138888888889,0.8361111111111228,0.8249999999999886,0.8694444444444436,0.9616613418530495,0.02569141308890828,1.0293012203911496,38.888888888888886,0.9999999999742858,0.9488817891373681,0.0,0.99546798541705,0
102,87.43888888888888,0.8249999999999886,0.8722222222222342,0.8694444444444436,0.9488817891373681,0.026189666626126703,1.0492632587635948,38.888888888888886,0.9999999999742858,1.0031948881789285,0.0,0.9958631711187289,0
103,88.31111111111112,0.8722222222222342,0.9027777777777715,0.8694444444444436,1.0031948881789285,0.027482611241167212,1.1010638142859348,38.888888888888886,0.9999999999742858,1.0383386581469587,0.0,0.999662703029067,0
104,89.21388888888889,0.9027777777777715,0.8861111111111057,0.8694444444444436,1.0383386581469587,0.02345993999235103,0.9398994434780683,41.666666666666664,1.0714285714010205,1.0191693290734773,0.0,0.9943482544251345,0
105,90.1,0.8861111111111057,0.8944444444444457,0.8694444444444436,1.0191693290734773,0.026516892415701973,1.062373238482799,41.666666666666664,1.0714285714010205,1.0287539936102261,0.0,0.9980141593743473,0
106,90.99444444444444,0.8944444444444457,0.8555555555555543,0.8694444444444436,1.0287539936102261,0.02732871362617961,1.0948980575650475,41.666666666666664,1.0714285714010205,0.9840255591054309,0.0,0.9996363996391486,0
107,91.85,0.8555555555555543,0.8583333333333343,0.8694444444444436,0.9840255591054309,0.022898855122151576,0.917420129489355,38.888888888888886,0.9999999999742858,0.9872204472843471,0.0,0.9967280696382008,0
108,92.70833333333333,0.8583333333333343,0.8444444444444485,0.8694444444444436,0.9872204472843471,0.022507688504219095,0.9017484233118538,38.888888888888886,0.9999999999742858,0.9712460063897821,0.0,0.9939091095478689,0
109,93.55277777777778,0.8444444444444485,0.8388888888888886,0.8694444444444436,0.9712460063897821,0.021768457263719017,0.8721318500480618,38.888888888888886,0.9999999999742858,0.9648562300319495,0.0,0.9940076183180921,0
110,94.39166666666667,0.8388888888888886,0.9111111111111114,0.8694444444444436,0.9648562300319495,0.02302084302344782,0.9223074548864694,38.888888888888886,0.9999999999742858,1.0479233226837075,0.0,0.9958323682238177,0
111,95.30277777777778,0.9111111111111114,0.8916666666666657,0.8694444444444436,1.0479233226837075,0.02303376316862049,0.9228250878071593,38.888888888888886,0.9999999999742858,1.0255591054313098,0.0,0.9966055499240332,0
112,96.19444444444444,0.8916666666666657,0.8555555555555543,0.8694444444444436,1.0255591054313098,0.021694805987001974,0.869181084017954,36.111111111111114,0.9285714285475513,0.9840255591054309,0.0,0.9935635620806637,0
113,97.05,0.8555555555555543,0.8361111111111086,0.8694444444444436,0.9840255591054309,0.02763523521091267,1.1071785436617108,38.888888888888886,0.9999999999742858,0.9616613418530332,0.0,0.9990412221528806,0
114,97.8861111111111,0.8361111111111086,0.8388888888888886,0.8694444444444436,0.9616613418530332,0.027015193108463065,1.082337166095725,38.888888888888886,0.9999999999742858,0.9648562300319495,0.0,0.9987077412097158,0
115,98.725,0.8388888888888886,0.8500000000000085,0.8694444444444436,0.9648562300319495,0.021489319037509128,0.8609484513030663,38.888888888888886,0.9999999999742858,0.9776357827476146,0.0,0.9957735043078463,0
116,99.575,0.8500000000000085,0.8555555555555543,0.8694444444444436,0.9776357827476146,0.021560492544721123,0.8637999479326718,36.111111111111114,0.9285714285475513,0.9840255591054309,0.0,0.9936375231002823,0
117,100.43055555555556,0.8555555555555543,0.8944444444444457,0.8694444444444436,0.9840255591054309,0.021683423702515515,0.8687250639745174,38.888888888888886,0.9999999999742858,1.0287539936102261,0.0,0.9956963347138492,0
118,101.325,0.8944444444444457,0.9083333333333314,0.8694444444444436,1.0287539936102261,0.023829855676448568,0.9547197518731642,41.666666666666664,1.0714285714010205,1.0447284345047911,0.0,0.9962749753301423,0
119,102.23333333333333,0.9083333333333314,0.86666666666666,0.8694444444444436,1.0447284345047911,0.028049866899688875,1.1237903548452086,41.666666666666664,1.0714285714010205,0.9968051118210797,0.0,0.9992762766143634,0
120,103.1,0.86666666666666,0.8388888888888886,0.8694444444444436,0.9968051118210797,0.02243785099926831,0.8989504523000548,38.888888888888886,0.9999999999742858,0.9648562300319495,0.0,0.9950666100122671,0
121,103.93888888888888,0.8388888888888886,0.8361111111111228,0.8694444444444436,0.9648562300319495,0.02668478365562593,1.0690996360362803,38.888888888888886,0.9999999999742858,0.9616613418530495,0.0,0.9997727551256559,0
122,104.775,0.8361111111111228,0.8555555555555543,0.8694444444444436,0.9616613418530495,0.022034700048837126,0.8827986056170937,38.888888888888886,0.9999999999742858,0.9840255591054309,0.0,0.9937061701858094,0
123,105.63055555555556,0.8555555555555543,0.8499999999999943,0.8694444444444436,0.9840255591054309,0.021188645974165657,0.8489022804689756,38.888888888888886,0.9999999999742858,0.9776357827475983,0.0,0.993987718767941,0
124,106.48055555555555,0.8499999999999943,0.875,0.8694444444444436,0.9776357827475983,0.021972145973897232,0.8802924380718031,36.111111111111114,0.9285714285475513,1.0063897763578284,0.0,0.9939909891860905,0
125,107.35555555555555,0.875,0.9083333333333314,0.8694444444444436,1.0063897763578284,0.02337924042481202,0.9366662946020028,41.666666666666664,1.0714285714010205,1.0447284345047911,0.0,0.9945703062589217,0
126,108.26388888888889,0.9083333333333314,0.8583333333333343,0.8694444444444436,1.0447284345047911,0.021915763963984796,0.8780335482470145,38.888888888888886,0.9999999999742858,0.9872204472843471,0.0,0.9940382795120409,0
127,109.12222222222222,0.8583333333333343,0.8166666666666629,0.8694444444444436,0.9872204472843471,0.025890758835012958,1.0372878118267883,38.888888888888886,0.9999999999742858,0.9392971246006355,0.0,0.9975994034125615,0
128,109.93888888888888,0.8166666666666629,0.8194444444444571,0.8694444444444436,0.9392971246006355,0.025470826311721192,1.020463627917155,38.888888888888886,0.9999999999742858,0.9424920127795682,0.0,0.9975230486477599,0
129,110.75833333333334,0.8194444444444571,0.8472222222222143,0.8694444444444436,0.9424920127795682,0.02672980833512031,1.0709035055778626,41.666666666666664,1.0714285714010205,0.974440894568682,0.0,0.9982062535246508,0
130,111.60555555555555,0.8472222222222143,0.8416666666666686,0.8694444444444436,0.974440894568682,0.026909713232370673,1.0781112185072104,38.888888888888886,0.9999999999742858,0.9680511182108658,0.0,0.9996331142698063,0
131,112.44722222222222,0.8416666666666686,0.8527777777777743,0.8694444444444436,0.9680511182108658,0.026518882401568352,1.0624529653111263,38.888888888888886,0.9999999999742858,0.9808306709265145,0.0,0.9988216748233445,0
132,113.3,0.8527777777777743,0.88333333333334,0.8694444444444436,0.9808306709265145,0.027738513648321604,1.1113162927725606,41.666666666666664,1.0714285714010205,1.0159744408945772,0.0,0.9969749011590738,0
133,114.18333333333334,0.88333333333334,0.8555555555555543,0.8694444444444436,1.0159744408945772,0.023149584329897027,0.9274653488249749,38.888888888888886,0.9999999999742858,0.9840255591054309,0.0,0.9949970670117041,0
134,115.03888888888889,0.8555555555555543,0.8138888888888829,0.8694444444444436,0.9840255591054309,0.021594260003431245,0.8651528079851554,38.888888888888886,0.9999999999742858,0.9361022364217193,0.0,0.9951244139206541,0
135,115.85277777777777,0.8138888888888829,0.8055555555555571,0.8694444444444436,0.9361022364217193,0.021668039117322093,0.8681086956860157,38.888888888888886,0.9999999999742858,0.9265175718849867,0.0,0.9938961836559419,0
136,116.65833333333333,0.8055555555555571,0.8027777777777771,0.8694444444444436,0.9265175718849867,0.022011465868265388,0.8818677510029657,36.111111111111114,0.9285714285475513,0.9233226837060705,0.0,0.9939284439995364,0
137,117.46111111111111,0.8027777777777771,0.8500000000000085,0.8694444444444436,0.9233226837060705,0.027236825776792976,1.0912166611706384,38.888888888888886,0.9999999999742858,0.9776357827476146,0.0,0.9996585897803647,0
138,118.31111111111112,0.8500000000000085,0.8611111111111001,0.8694444444444436,0.9776357827476146,0.02187383414933696,0.8763536714244188,38.888888888888886,0.9999999999742858,0.9904153354632471,0.0,0.9952147850676463,0
139,119.17222222222222,0.8611111111111001,0.8361111111111228,0.8694444444444436,0.9904153354632471,0.023059584568172174,0.9238595968074536,38.888888888888886,0.9999999999742858,0.9616613418530495,0.0,0.996006946205577,0
140,120.00833333333334,0.8361111111111228,0.8861111111111057,0.8694444444444436,0.9616613418530495,0.027688205598167974,1.1093007501770857,41.666666666666664,1.0714285714010205,1.0191693290734773,0.0,0.9995198830144092,0
141,120.89444444444445,0.8861111111111057,0.8472222222222143,0.8694444444444436,1.0191693290734773,0.022278528972020064,0.8925673718321062,38.888888888888886,0.9999999999742858,0.974440894568682,0.0,0.9964323464677636,0
142,121.74166666666666,0.8472222222222143,0.7944444444444514,0.8694444444444436,0.974440894568682,0.025917076385144497,1.0383421986125347,36.111111111111114,0.9285714285475513,0.913738019169338,0.0,0.9974839756661396,0
143,122.53611111111111,0.7944444444444514,0.8083333333333371,0.8694444444444436,0.913738019169338,0.026062000361236928,1.0441484353088057,38.888888888888886,0.9999999999742858,0.9297124600639031,0.0,0.9984160701099439,0
144,123.34444444444445,0.8083333333333371,0.8361111111111086,0.8694444444444436,0.9297124600639031,0.026203794550406438,1.0498292801674158,38.888888888888886,0.9999999999742858,0.9616613418530332,0.0,0.9981153174693291,0
145,124.18055555555556,0.8361111111111086,0.8611111111111143,0.8694444444444436,0.9616613418530332,0.02175717957320559,0.8716800204593781,38.888888888888886,0.9999999999742858,0.9904153354632634,0.0,0.9959226625348843,0
146,125.04166666666667,0.8611111111111143,0.8555555555555543,0.8694444444444436,0.9904153354632634,0.022824327640879463,0.9144342591847284,38.888888888888886,0.9999999999742858,0.9840255591054309,0.0,0.9958449081747638,0
147,125.89722222222223,0.8555555555555543,0.8499999999999943,0.8694444444444436,0.9840255591054309,0.026772085649339143,1.0725973046293087,41.666666666666664,1.0714285714010205,0.9776357827475983,0.0,0.9981387358254281,0
148,126.74722222222222,0.8499999999999943,0.8361111111111086,0.8694444444444436,0.9776357827475983,0.02734597908291989,1.0955897811238833,41.666666666666664,1.0714285714010205,0.9616613418530332,0.0,0.9996032772942356,0
149,127.58333333333333,0.8361111111111086,0.7944444444444372,0.8694444444444436,0.9616613418530332,0.025695704309205744,1.0294731439157085,38.888888888888886,0.9999999999742858,0.9137380191693216,0.0,0.9959172490151293,0
150,128.37777777777777,0.7944444444444372,0.7861111111111256,0.8694444444444436,0.9137380191693216,0.025141596942018774,1.007273376728924,36.111111111111114,0.9285714285475513,0.9041533546326055,0.0,0.9954845321334965,0
151,129.1638888888889,0.7861111111111256,0.7944444444444514,0.8694444444444436,0.9041533546326055,0.02214546803937996,0.8872364163148336,36.111111111111114,0.9285714285475513,0.913738019169338,0.0,0.9944545721847113,0
152,129.95833333333334,0.7944444444444514,0.8499999999999943,0.8694444444444436,0.913738019169338,0.022101389092316452,0.8854704366137944,38.888888888888886,0.9999999999742858,0.9776357827475983,0.0,0.996406905676435,0
153,130.80833333333334,0.8499999999999943,0.8333333333333428,0.8694444444444436,0.9776357827475983,0.02757844742797067,1.104903396939215,41.666666666666664,1.0714285714010205,0.9584664536741333,0.0,0.9984913514811217,0
154,131.64166666666668,0.8333333333333428,0.8111111111111029,0.8694444444444436,0.9584664536741333,0.021851356060294005,0.8754531088744373,38.888888888888886,0.9999999999742858,0.932907348242803,0.0,0.9968354849147611,0
155,132.45277777777778,0.8111111111111029,0.8222222222222229,0.8694444444444436,0.932907348242803,0.02713462981224108,1.0871222802711413,41.666666666666664,1.0714285714010205,0.9456869009584681,0.0,0.9982035787787779,0
156,133.275,0.8222222222222229,0.7861111111110972,0.8694444444444436,0.9456869009584681,0.02120881817383526,0.8497104598270375,36.111111111111114,0.9285714285475513,0.9041533546325727,0.0,0.9934070475293282,0
157,134.0611111111111,0.7861111111110972,0.7750000000000057,0.8694444444444436,0.9041533546325727,0.025737858728414557,1.031162019299338,36.111111111111114,0.9285714285475513,0.8913738019169404,0.0,0.9969773903563846,0
158,134.8361111111111,0.7750000000000057,0.7916666666666572,0.8694444444444436,0.8913738019169404,0.025721551145281213,1.0305086720053338,38.888888888888886,0.9999999999742858,0.9105431309904054,0.0,0.9964904445910814,0
159,135.62777777777777,0.7916666666666572,0.8000000000000114,0.8694444444444436,0.9105431309904054,0.027009571601239058,1.082111945932627,41.666666666666664,1.0714285714010205,0.9201277955271705,0.0,0.9994979014352301,0
160,136.42777777777778,0.8000000000000114,0.8555555555555543,0.8694444444444436,0.9201277955271705,0.02703988552126985,1.0833264433514553,41.666666666666664,1.0714285714010205,0.9840255591054309,0.0,0.9992965998411749,0
161,137.28333333333333,0.8555555555555543,0.8499999999999943,0.8694444444444436,0.9840255591054309,0.027187901778235442,1.0892565692423581,41.666666666666664,1.0714285714010205,0.9776357827475983,0.0,0.9976185833682241,0
162,138.13333333333333,0.8499999999999943,0.825000000000017,0.8694444444444436,0.9776357827475983,0.026460183465610198,1.0601012501209846,38.888888888888886,0.9999999999742858,0.9488817891374007,0.0,0.9996589092945467,0
163,138.95833333333334,0.825000000000017,0.8333333333333144,0.8694444444444436,0.9488817891374007,0.02151273382205083,0.8618865416377849,38.888888888888886,0.9999999999742858,0.9584664536741005,0.0,0.9939523390683154,0
164,139.79166666666666,0.8333333333333144,0.8138888888888971,0.8694444444444436,0.9584664536741005,0.02709212548866893,1.0854193863130195,38.888888888888886,0.9999999999742858,0.9361022364217356,0.0,0.9997875111966882,0
165,140.60555555555555,0.8138888888888971,0.8027777777777771,0.8694444444444436,0.9361022364217356,0.02602989471488565,1.0428621541355414,38.888888888888886,0.9999999999742858,0.9233226837060705,0.0,0.998163271510399,0
166,141.40833333333333,0.8027777777777771,0.8416666666666686,0.8694444444444436,0.9233226837060705,0.026614037551470904,1.0662652628901756,38.888888888888886,0.9999999999742858,0.9680511182108658,0.0,0.9997115627973812,0
167,142.25,0.8416666666666686,0.8611111111111143,0.8694444444444436,0.9680511182108658,0.027317444679568512,1.0944465782922186,41.666666666666664,1.0714285714010205,0.9904153354632634,0.0,0.9995269849024028,0
168,143.11111111111111,0.8611111111111143,0.8916666666666515,0.8694444444444436,0.9904153354632634,0.02215350778151574,0.8875585206834548,36.111111111111114,0.9285714285475513,1.0255591054312936,0.0,0.9942821848072028,0
169,144.00277777777777,0.8916666666666515,0.8527777777777885,0.8694444444444436,1.0255591054312936,0.02291896818055633,0.9182259394107545,38.888888888888886,0.9999999999742858,0.9808306709265309,0.0,0.9960850006606967,0
170,144.85555555555555,0.8527777777777885,0.8305555555555486,0.8694444444444436,0.9808306709265309,0.02597748244401301,1.0407623080046189,38.888888888888886,0.9999999999742858,0.9552715654952006,0.0,0.9984190910636491,0
171,145.6861111111111,0.8305555555555486,0.8416666666666686,0.8694444444444436,0.9552715654952006,0.027239191302045128,1.0913114336154424,41.666666666666664,1.0714285714010205,0.9680511182108658,0.0,0.997789978545842,0
172,146.52777777777777,0.8416666666666686,0.8194444444444571,0.8694444444444436,0.9680511182108658,0.02607413816368429,1.0446347244369554,38.888888888888886,0.9999999999742858,0.9424920127795682,0.0,0.9978168993020311,0
173,147.34722222222223,0.8194444444444571,0.8083333333333371,0.8694444444444436,0.9424920127795682,0.02527507938837623,1.0126212197790925,36.111111111111114,0.9285714285475513,0.9297124600639031,0.0,0.9966358193800431,0
174,148.15555555555557,0.8083333333333371,0.8472222222222001,0.8694444444444436,0.9297124600639031,0.02556910706009612,1.0244011495277099,38.888888888888886,0.9999999999742858,0.9744408945686657,0.0,0.9976144813776537,0
175,149.00277777777777,0.8472222222222001,0.8666666666666742,0.8694444444444436,0.9744408945686657,0.027457861385887936,1.1000722356539885,41.666666666666664,1.0714285714010205,0.996805111821096,0.0,0.9996015965101192,0
176,149.86944444444444,0.8666666666666742,0.8416666666666686,0.8694444444444436,0.996805111821096,0.022622072143376536,0.9063310914185125,38.888888888888886,0.9999999999742858,0.9680511182108658,0.0,0.9959570833141772,0
177,150.7111111111111,0.8416666666666686,0.8194444444444571,0.8694444444444436,0.9680511182108658,0.026055404782146463,1.043884189913525,38.888888888888886,0.9999999999742858,0.9424920127795682,0.0,0.9985012208862802,0
178,151.53055555555557,0.8194444444444571,0.8055555555555429,0.8694444444444436,0.9424920127795682,0.02077268808436222,0.8322373363444796,38.888888888888886,0.9999999999742858,0.9265175718849704,0.0,0.9938335480114735,0
179,152.3361111111111,0.8055555555555429,0.7916666666666572,0.8694444444444436,0.9265175718849704,0.022279444791861284,0.8926040632541374,38.888888888888886,0.9999999999742858,0.9105431309904054,0.0,0.9967830666797953,0
180,153.12777777777777,0.7916666666666572,0.7916666666666856,0.8694444444444436,0.9105431309904054,0.025193288077169508,1.0093443312657542,36.111111111111114,0.9285714285475513,0.910543130990438,0.0,0.9962828349366042,0
181,153.91944444444445,0.7916666666666856,0.8194444444444287,0.8694444444444436,0.910543130990438,0.02060557195184861,0.8255419927077541,36.111111111111114,0.9285714285475513,0.9424920127795355,0.0,0.9925013088035011,0
182,154.73888888888888,0.8194444444444287,0.830555555555577,0.8694444444444436,0.9424920127795355,0.02759591033035002,1.1056030309635654,41.666666666666664,1.0714285714010205,0.9552715654952333,0.0,0.9985604445201379,0
183,155.56944444444446,0.830555555555577,0.8333333333333144,0.8694444444444436,0.9552715654952333,0.02871622174318802,1.1504872068733027,41.666666666666664,1.0714285714010205,0.9584664536741005,0.0,0.9969741719950573,0
184,156.40277777777777,0.8333333333333144,0.7916666666666856,0.8694444444444436,0.9584664536741005,0.0277018408567926,1.1098470334155401,38.888888888888886,0.9999999999742858,0.910543130990438,0.0,0.9986348054074117,0
185,157.19444444444446,0.7916666666666856,0.7611111111110915,0.8694444444444436,0.910543130990438,0.02631236638792228,1.0541791041521236,38.888888888888886,0.9999999999742858,0.8753993610223426,0.0,0.998970507278168,0
186,157.95555555555555,0.7611111111110915,0.7861111111111256,0.8694444444444436,0.8753993610223426,0.025007490424477762,1.0019005308800142,36.111111111111114,0.9285714285475513,0.9041533546326055,0.0,0.996488869654971,0
187,158.74166666666667,0.7861111111111256,0.8111111111111029,0.8694444444444436,0.9041533546326055,0.025971883419372895,1.0405379885841524,36.111111111111114,0.9285714285475513,0.932907348242803,0.0,0.9980695962703012,0
188,159.55277777777778,0.8111111111111029,0.8277777777777828,0.8694444444444436,0.932907348242803,0.026491431428622644,1.0613531690540594,38.888888888888886,0.9999999999742858,0.9520766773163007,0.0,0.9974697404383148,0
189,160.38055555555556,0.8277777777777828,0.88055555555556,0.8694444444444436,0.9520766773163007,0.02695592340302491,1.0799625835872193,41.666666666666664,1.0714285714010205,1.0127795527156611,0.0,0.9969382518567138,0
190,161.26111111111112,0.88055555555556,0.8916666666666515,0.8694444444444436,1.0127795527156611,0.022568270205650248,0.9041755696506193,38.888888888888886,0.9999999999742858,1.0255591054312936,0.0,0.9942107676872407,0
191,162.15277777777777,0.8916666666666515,0.9111111111111256,0.8694444444444436,1.0255591054312936,0.02750523132157532,1.1019700655804368,41.666666666666664,1.0714285714010205,1.047923322683724,0.0,0.9984302078209293,0
192,163.0638888888889,0.9111111111111256,0.8944444444444457,0.8694444444444436,1.047923322683724,0.02259427818167672,0.9052175536540414,38.888888888888886,0.9999999999742858,1.0287539936102261,0.0,0.9950446247445133,0
193,163.95833333333334,0.8944444444444457,0.8833333333333258,0.8694444444444436,1.0287539936102261,0.020835680560696998,0.834761068010872,38.888888888888886,0.9999999999742858,1.015974440894561,0.0,0.9940580543826982,0
194,164.84166666666667,0.8833333333333258,0.88055555555556,0.8694444444444436,1.015974440894561,0.02706571405965815,1.0843612383622239,41.666666666666664,1.0714285714010205,1.0127795527156611,0.0,0.9977159098729432,0
195,165.72222222222223,0.88055555555556,0.8833333333333258,0.8694444444444436,1.0127795527156611,0.026444895754764837,1.059488763008047,38.888888888888886,0.9999999999742858,1.015974440894561,0.0,0.9998257275828609,0
196,166.60555555555555,0.8833333333333258,0.8833333333333258,0.8694444444444436,1.015974440894561,0.021228647980108616,0.850504921530123,36.111111111111114,0.9285714285475513,1.015974440894561,0.0,0.9930994337443915,0
197,167.48888888888888,0.8833333333333258,0.9111111111111256,0.8694444444444436,1.015974440894561,0.024192619930972572,0.9692535452695674,41.666666666666664,1.0714285714010205,1.047923322683724,0.0,0.9947812789726561,0
198,168.4,0.9111111111111256,0.8833333333333258,0.8694444444444436,1.047923322683724,0.023214754676714446,0.9300763347322251,41.666666666666664,1.0714285714010205,1.015974440894561,0.0,0.9959533402180445,0
199,169.28333333333333,0.8833333333333258,0.8444444444444343,0.8694444444444436,1.015974440894561,0.026889863514503128,1.0773159590656693,41.666666666666664,1.0714285714010205,0.9712460063897657,0.0,0.9997140750834681,0
200,170.12777777777777,0.8444444444444343,0.8111111111111313,0.8694444444444436,0.9712460063897657,0.023202446399156133,0.9295832156862683,41.666666666666664,1.0714285714010205,0.9329073482428357,0.0,0.9944807779240168,0
201,170.9388888888889,0.8111111111111313,0.8583333333333201,0.8694444444444436,0.9329073482428357,0.02655449476767934,1.063879739765774,41.666666666666664,1.0714285714010205,0.9872204472843308,0.0,0.9979878915641452,0
202,171.79722222222222,0.8583333333333201,0.86944444444444,0.8694444444444436,0.9872204472843308,0.026704010883542004,1.0698699560295897,41.666666666666664,1.0714285714010205,0.9999999999999959,0.0,0.9987800450749609,0
203,172.66666666666666,0.86944444444444,0.8722222222222342,0.8694444444444436,0.9999999999999959,0.028007194565251147,1.122080729696849,41.666666666666664,1.0714285714010205,1.0031948881789285,0.0,0.998104860952012,0
204,173.5388888888889,0.8722222222222342,0.88611111111112,0.8694444444444436,1.0031948881789285,0.022944229034181123,0.9192379906892941,41.666666666666664,1.0714285714010205,1.0191693290734936,0.0,0.9944854457165868,0
205,174.425,0.88611111111112,0.86944444444444,0.8694444444444436,1.0191693290734936,0.021400957521331424,0.857408333983611,36.111111111111114,0.9285714285475513,0.9999999999999959,0.0,0.9932348207073268,0
206,175.29444444444445,0.86944444444444,0.8555555555555543,0.8694444444444436,0.9999999999999959,0.026479360634565796,1.0608695645512316,41.666666666666664,1.0714285714010205,0.9840255591054309,0.0,0.9979579993427647,0
207,176.15,0.8555555555555543,0.8222222222222229,0.8694444444444436,0.9840255591054309,0.021144443125495172,0.8471313367718017,36.111111111111114,0.9285714285475513,0.9456869009584681,0.0,0.9933603182316231,0
208,176.97222222222223,0.8222222222222229,0.8722222222222058,0.8694444444444436,0.9456869009584681,0.026283641528061837,1.0530282708675702,38.888888888888886,0.9999999999742858,1.003194888178896,0.0,0.997902794470447,0
209,177.84444444444443,0.8722222222222058,0.9250000000000114,0.8694444444444436,1.003194888178896,0.02209882710285576,0.8853677930235258,38.888888888888886,0.9999999999742858,1.063897763578289,0.0,0.996816622736914,0
210,178.76944444444445,0.9250000000000114,0.9083333333333314,0.8694444444444436,1.063897763578289,0.02838301874023181,1.1371377559733484,44.44444444444444,1.1428571428277552,1.0447284345047911,0.0,0.9983370952354433,0
211,179.67777777777778,0.9083333333333314,0.9166666666666572,0.8694444444444436,1.0447284345047911,0.0232500106420311,0.9314888303392561,38.888888888888886,0.9999999999742858,1.0543130990415237,0.0,0.9958245492656325,0
212,180.59444444444443,0.9166666666666572,0.8722222222222342,0.8694444444444436,1.0543130990415237,0.022764794391036736,0.9120491180286188,38.888888888888886,0.9999999999742858,1.0031948881789285,0.0,0.9971117306882796,0
213,181.46666666666667,0.8722222222222342,0.86388888888888,0.8694444444444436,1.0031948881789285,0.02274629305906886,0.9113078803431909,38.888888888888886,0.9999999999742858,0.9936102236421633,0.0,0.9963977302952894,0
214,182.33055555555555,0.86388888888888,0.8361111111111086,0.8694444444444436,0.9936102236421633,0.026551222805305412,1.0637486518083734,41.666666666666664,1.0714285714010205,0.9616613418530332,0.0,0.9991359047714993,0
215,183.16666666666666,0.8361111111111086,0.8333333333333428,0.8694444444444436,0.9616613418530332,0.02076531195739254,0.8319418190654035,36.111111111111114,0.9285714285475513,0.9584664536741333,0.0,0.9936633231720584,0
216,184.0,0.8333333333333428,0.9250000000000114,0.8694444444444436,0.9584664536741333,0.022514922606551625,0.9020382505133993,38.888888888888886,0.9999999999742858,1.063897763578289,0.0,0.9962107197099943,0
217,184.925,0.9250000000000114,0.8972222222222115,0.8694444444444436,1.063897763578289,0.027832569053844052,1.115084530173657,41.666666666666664,1.0714285714010205,1.031948881789126,0.0,0.9988450828053912,0
218,185.82222222222222,0.8972222222222115,0.875,0.8694444444444436,1.031948881789126,0.02689513103999638,1.0775269972985562,41.666666666666664,1.0714285714010205,1.0063897763578284,0.0,0.9982161169364047,0
219,186.69722222222222,0.875,0.86944444444444,0.8694444444444436,1.0063897763578284,0.022523365614326274,0.9023765113235829,38.888888888888886,0.9999999999742858,0.9999999999999959,0.0,0.996310119489289,0
220,187.56666666666666,0.86944444444444,0.8527777777777885,0.8694444444444436,0.9999999999999959,0.027006978861409226,1.0820080703590347,41.666666666666664,1.0714285714010205,0.9808306709265309,0.0,0.9990233648025104,0
221,188.41944444444445,0.8527777777777885,0.8472222222222285,0.8694444444444436,0.9808306709265309,0.02672817648313828,1.0708381270317004,41.666666666666664,1.0714285714010205,0.9744408945686983,0.0,0.9992863159539855,0
222,189.26666666666668,0.8472222222222285,0.8499999999999943,0.8694444444444436,0.9744408945686983,0.026185168304091407,1.0490830379114129,41.666666666666664,1.0714285714010205,0.9776357827475983,0.0,0.9971008523732223,0
223,190.11666666666667,0.8499999999999943,0.919444444444423,0.8694444444444436,0.9776357827475983,0.027972544262004403,1.1206924993455105,41.666666666666664,1.0714285714010205,1.0575079872204236,0.0,0.9995624661673783,0
224,191.0361111111111,0.919444444444423,0.9194444444444514,0.8694444444444436,1.0575079872204236,0.024232953223657913,0.9708694590085177,41.666666666666664,1.0714285714010205,1.0575079872204562,0.0,0.9952303811874226,0
225,191.95555555555555,0.9194444444444514,0.9000000000000057,0.8694444444444436,1.0575079872204562,0.023197181080737105,0.9293722658776417,41.666666666666664,1.0714285714010205,1.0351437699680588,0.0,0.9949895243802226,0
226,192.85555555555555,0.9000000000000057,0.8666666666666742,0.8694444444444436,1.0351437699680588,0.021935845836141523,0.878838108722031,38.888888888888886,0.9999999999742858,0.996805111821096,0.0,0.9967758197226575,0
227,193.72222222222223,0.8666666666666742,0.8666666666666742,0.8694444444444436,0.996805111821096,0.025980485667307675,1.0408826291948783,38.888888888888886,0.9999999999742858,0.996805111821096,0.0,0.9979555033736442,0
228,194.5888888888889,0.8666666666666742,0.8666666666666458,0.8694444444444436,0.996805111821096,0.02675302648589026,1.0718337179737332,38.888888888888886,0.9999999999742858,0.9968051118210632,0.0,0.9994072433562946,0
229,195.45555555555555,0.8666666666666458,0.875,0.8694444444444436,0.9968051118210632,0.021000318173861415,0.8413571122053264,38.888888888888886,0.9999999999742858,1.0063897763578284,0.0,0.994630478172239,0
230,196.33055555555555,0.875,0.9194444444444514,0.8694444444444436,1.0063897763578284,0.02152658067557383,0.8624413022179243,38.888888888888886,0.9999999999742858,1.0575079872204562,0.0,0.9955027196051873,0
231,197.25,0.9194444444444514,0.9333333333333371,0.8694444444444436,1.0575079872204562,0.02809487573270797,1.1255935895133296,41.666666666666664,1.0714285714010205,1.0734824281150215,0.0,0.9976833552744667,0
232,198.18333333333334,0.9333333333333371,0.9027777777777715,0.8694444444444436,1.0734824281150215,0.028392242827181287,1.1375073099531638,44.44444444444444,1.1428571428277552,1.0383386581469587,0.0,0.9986847570094239,0
233,199.0861111111111,0.9027777777777715,0.8611111111111143,0.8694444444444436,1.0383386581469587,0.022831037722452617,0.9147030920094653,38.888888888888886,0.9999999999742858,0.9904153354632634,0.0,0.9965795673401052,0
234,199.94722222222222,0.8611111111111143,0.8499999999999943,0.8694444444444436,0.9904153354632634,0.021395286827842638,0.857181143221146,38.888888888888886,0.9999999999742858,0.9776357827475983,0.0,0.995409379726978,0
235,200.79722222222222,0.8499999999999943,0.86388888888888,0.8694444444444436,0.9776357827475983,0.026487276348707713,1.0611866998601516,38.888888888888886,0.9999999999742858,0.9936102236421633,0.0,0.9977699653626197,0
236,201.6611111111111,0.86388888888888,0.8583333333333485,0.8694444444444436,0.9936102236421633,0.02625852596282967,1.0520220404257172,41.666666666666664,1.0714285714010205,0.9872204472843634,0.0,0.9979252667566239,0
237,202.51944444444445,0.8583333333333485,0.8916666666666515,0.8694444444444436,0.9872204472843634,0.02289218125483828,0.9171527475533544,38.888888888888886,0.9999999999742858,1.0255591054312936,0.0,0.9946536820995608,0
238,203.4111111111111,0.8916666666666515,0.9194444444444514,0.8694444444444436,1.0255591054312936,0.02811590297162125,1.1264360251785066,41.666666666666664,1.0714285714010205,1.0575079872204562,0.0,0.9967754248102154,0
239,204.33055555555555,0.9194444444444514,0.8555555555555543,0.8694444444444436,1.0575079872204562,0.028390120992058777,1.1374223007139481,44.44444444444444,1.1428571428277552,0.9840255591054309,0.0,0.9983029777428284,0
240,205.1861111111111,0.8555555555555543,0.830555555555577,0.8694444444444436,0.9840255591054309,0.026505645494932225,1.0619226416536607,38.888888888888886,0.9999999999742858,0.9552715654952333,0.0,0.9965828548678516,0
241,206.01666666666668,0.830555555555577,0.8166666666666629,0.8694444444444436,0.9552715654952333,0.02706044571210357,1.084150167194258,38.888888888888886,0.9999999999742858,0.9392971246006355,0.0,0.9994566634972508,0
242,206.83333333333334,0.8166666666666629,0.8527777777777601,0.8694444444444436,0.9392971246006355,0.028281263092082707,1.1330610159178633,44.44444444444444,1.1428571428277552,0.9808306709264982,0.0,0.9992862852006289,0
243,207.6861111111111,0.8527777777777601,0.8472222222222285,0.8694444444444436,0.9808306709264982,0.02329449617163783,0.9332710993703714,41.666666666666664,1.0714285714010205,0.9744408945686983,0.0,0.9950700144862192,0
244,208.53333333333333,0.8472222222222285,0.8527777777777885,0.8694444444444436,0.9744408945686983,0.022863753510752368,0.9160138179203546,38.888888888888886,0.9999999999742858,0.9808306709265309,0.0,0.9971731428006233,0
245,209.38611111111112,0.8527777777777885,0.8999999999999773,0.8694444444444436,0.9808306709265309,0.02279856637315859,0.9134021593071485,38.888888888888886,0.9999999999742858,1.035143769968026,0.0,0.9965113927649771,0
246,210.2861111111111,0.8999999999999773,0.8555555555555827,0.8694444444444436,1.035143769968026,0.029014860141992328,1.1624518608719432,44.44444444444444,1.1428571428277552,0.9840255591054635,0.0,0.9973966262675378,0
247,211.14166666666668,0.8555555555555827,0.8027777777777771,0.8694444444444436,0.9840255591054635,0.027780314063135088,1.1129909853179445,38.888888888888886,0.9999999999742858,0.9233226837060705,0.0,0.9988740020017262,0
248,211.94444444444446,0.8027777777777771,0.8166666666666629,0.8694444444444436,0.9233226837060705,0.020873617235064958,0.8362809635919127,38.888888888888886,0.9999999999742858,0.9392971246006355,0.0,0.9941835442200919,0
249,212.76111111111112,0.8166666666666629,0.8249999999999886,0.8694444444444436,0.9392971246006355,0.026198009676246414,1.0495975148685543,38.888888888888886,0.9999999999742858,0.9488817891373681,0.0,0.998180235612319,0
250,213.5861111111111,0.8249999999999886,0.8388888888889028,0.8694444444444436,0.9488817891373681,0.026639411783922286,1.0672818565799937,38.888888888888886,0.9999999999742858,0.9648562300319659,0.0,0.9991749573805517,0
251,214.425,0.8388888888889028,0.8555555555555543,0.8694444444444436,0.9648562300319659,0.026724471188753506,1.0706896780530881,41.666666666666664,1.0714285714010205,0.9840255591054309,0.0,0.9987925561203592,0
252,215.28055555555557,0.8555555555555543,0.8666666666666458,0.8694444444444436,0.9840255591054309,0.02687032325816939,1.0765330978963958,41.666666666666664,1.0714285714010205,0.9968051118210632,0.0,0.9988730485618645,0
253,216.1472222222222,0.8666666666666458,0.8694444444444684,0.8694444444444436,0.9968051118210632,0.027580839476391457,1.104999232008708,41.666666666666664,1.0714285714010205,1.0000000000000286,0.0,0.9991217160800111,0
254,217.01666666666668,0.8694444444444684,0.8055555555555429,0.8694444444444436,1.0000000000000286,0.022280029481926117,0.8926274882870542,36.111111111111114,0.9285714285475513,0.9265175718849704,0.0,0.9944109048082272,0
255,217.82222222222222,0.8055555555555429,0.7833333333333314,0.8694444444444436,0.9265175718849704,0.0201312703432997,0.8065395648216972,36.111111111111114,0.9285714285475513,0.9009584664536728,0.0,0.9919404078670313,0
256,218.60555555555555,0.7833333333333314,0.8000000000000114,0.8694444444444436,0.9009584664536728,0.025927735610856702,1.0387692500166763,38.888888888888886,0.9999999999742858,0.9201277955271705,0.0,0.9971739822098642,0
257,219.40555555555557,0.8000000000000114,0.8416666666666686,0.8694444444444436,0.9201277955271705,0.02205064685741495,0.8834374988330369,38.888888888888886,0.9999999999742858,0.9680511182108658,0.0,0.9949974983016046,0
258,220.24722222222223,0.8416666666666686,0.8472222222222001,0.8694444444444436,0.9680511182108658,0.027885114818299736,1.11718972459381,41.666666666666664,1.0714285714010205,0.9744408945686657,0.0,0.999444065869121,0
259,221.09444444444443,0.8472222222222001,0.8388888888889028,0.8694444444444436,0.9744408945686657,0.02641855052970459,1.058433267453476,41.666666666666664,1.0714285714010205,0.9648562300319659,0.0,0.9983024692305853,0
260,221.93333333333334,0.8388888888889028,0.8611111111111143,0.8694444444444436,0.9648562300319659,0.027258719551427536,1.0920938137380094,41.666666666666664,1.0714285714010205,0.9904153354632634,0.0,0.9995141910861358,0
261,222.79444444444445,0.8611111111111143,0.8333333333333144,0.8694444444444436,0.9904153354632634,0.027472850019903537,1.1006727405476222,41.666666666666664,1.0714285714010205,0.9584664536741005,0.0,0.9996234520374496,0
262,223.62777777777777,0.8333333333333144,0.8000000000000114,0.8694444444444436,0.9584664536741005,0.022055947647550922,0.8836498697811475,38.888888888888886,0.9999999999742858,0.9201277955271705,0.0,0.9969433895427124,0
263,224.42777777777778,0.8000000000000114,0.8111111111111029,0.8694444444444436,0.9201277955271705,0.02102894563056334,0.8425040431280442,38.888888888888886,0.9999999999742858,0.932907348242803,0.0,0.9954073335723361,0
264,225.23888888888888,0.8111111111111029,0.8000000000000114,0.8694444444444436,0.932907348242803,0.02746158102661943,1.1002212594048852,38.888888888888886,0.9999999999742858,0.9201277955271705,0.0,0.9994224748424978,0
265,226.0388888888889,0.8000000000000114,0.8722222222222058,0.8694444444444436,0.9201277955271705,0.026743230324930364,1.0714412444108241,41.666666666666664,1.0714285714010205,1.003194888178896,0.0,0.9990837291267376,0
266,226.9111111111111,0.8722222222222058,0.8555555555555827,0.8694444444444436,1.003194888178896,0.028340970732792542,1.135453143872703,44.44444444444444,1.1428571428277552,0.9840255591054635,0.0,0.9975248247143588,0
267,227.76666666666668,0.8555555555555827,0.8222222222222229,0.8694444444444436,0.9840255591054635,0.02213618440171967,0.8868644764943054,36.111111111111114,0.9285714285475513,0.9456869009584681,0.0,0.9943290884315578,0
268,228.5888888888889,0.8222222222222229,0.8722222222222058,0.8694444444444436,0.9456869009584681,0.02703285818894884,1.083044900187244,38.888888888888886,0.9999999999742858,1.003194888178896,0.0,0.9998165597491506,0
269,229.4611111111111,0.8722222222222058,0.8249999999999886,0.8694444444444436,1.003194888178896,0.023134998115594163,0.9268809664817045,38.888888888888886,0.9999999999742858,0.9488817891373681,0.0,0.9967378339008468,0
270,230.2861111111111,0.8249999999999886,0.7916666666666856,0.8694444444444436,0.9488817891373681,0.026882411083476044,1.077017384739512,38.888888888888886,0.9999999999742858,0.910543130990438,0.0,0.9990545684576426,0
271,231.07777777777778,0.7916666666666856,0.8222222222222229,0.8694444444444436,0.910543130990438,0.026261846118015852,1.0521550591807853,38.888888888888886,0.9999999999742858,0.9456869009584681,0.0,0.9987683757608827,0
272,231.9,0.8222222222222229,0.8444444444444343,0.8694444444444436,0.9456869009584681,0.025400129511086864,1.0176312300681603,38.888888888888886,0.9999999999742858,0.9712460063897657,0.0,0.9971925554516423,0
273,232.74444444444444,0.8444444444444343,0.875,0.8694444444444436,0.9712460063897657,0.02729338867768147,1.093482798214635,38.888888888888886,0.9999999999742858,1.0063897763578284,0.0,0.9997396328441481,0
274,233.61944444444444,0.875,0.8388888888889028,0.8694444444444436,1.0063897763578284,0.026736515954048433,1.071172239739146,38.888888888888886,0.9999999999742858,0.9648562300319659,0.0,0.9988643653289635,0
275,234.45833333333334,0.8388888888889028,0.8166666666666629,0.8694444444444436,0.9648562300319659,0.02114345059571776,0.8470915720415539,36.111111111111114,0.9285714285475513,0.9392971246006355,0.0,0.9935649041257907,0
276,235.275,0.8166666666666629,0.8138888888888971,0.8694444444444436,0.9392971246006355,0.02725064006225968,1.0917701169436045,38.888888888888886,0.9999999999742858,0.9361022364217356,0.0,0.9997819908089376,0
277,236.0888888888889,0.8138888888888971,0.7833333333333314,0.8694444444444436,0.9361022364217356,0.025991433822121435,1.0413212562595648,36.111111111111114,0.9285714285475513,0.9009584664536728,0.0,0.9979678965636207,0
278,236.87222222222223,0.7833333333333314,0.7611111111110915,0.8694444444444436,0.9009584664536728,0.025956244223342476,1.039911419562653,36.111111111111114,0.9285714285475513,0.8753993610223426,0.0,0.9973554265270872,0
279,237.63333333333333,0.7611111111110915,0.8000000000000114,0.8694444444444436,0.8753993610223426,0.02163744295757416,0.8668828906102557,36.111111111111114,0.9285714285475513,0.9201277955271705,0.0,0.9935994616961894,0
280,238.43333333333334,0.8000000000000114,0.8388888888888744,0.8694444444444436,0.9201277955271705,0.02073427563804533,0.8306983794278102,36.111111111111114,0.9285714285475513,0.9648562300319331,0.0,0.9932407121014137,0
281,239.2722222222222,0.8388888888888744,0.8388888888889028,0.8694444444444436,0.9648562300319331,0.023199666830975272,0.9294718550183744,41.666666666666664,1.0714285714010205,0.9648562300319659,0.0,0.9947577730960875,0
282,240.11111111111111,0.8388888888889028,0.8194444444444287,0.8694444444444436,0.9648562300319659,0.02720006468394765,1.0897438641081467,38.888888888888886,0.9999999999742858,0.9424920127795355,0.0,0.9994506333463022,0
283,240.93055555555554,0.8194444444444287,0.8027777777777771,0.8694444444444436,0.9424920127795355,0.026849813278171337,1.075711385701386,38.888888888888886,0.9999999999742858,0.9233226837060705,0.0,0.9987373369696799,0
284,241.73333333333332,0.8027777777777771,0.7972222222222456,0.8694444444444436,0.9233226837060705,0.027004018447952822,1.0818894643028791,41.666666666666664,1.0714285714010205,0.9169329073482706,0.0,0.9987796341657083,0
285,242.53055555555557,0.7972222222222456,0.7777777777777715,0.8694444444444436,0.9169329073482706,0.026673565894543394,1.0686502074613573,41.666666666666664,1.0714285714010205,0.8945686900958403,0.0,0.9975436382830069,0
286,243.30833333333334,0.7777777777777715,0.7805555555555657,0.8694444444444436,0.8945686900958403,0.02550540288960229,1.0218489045341634,38.888888888888886,0.9999999999742858,0.8977635782747729,0.0,0.9936818913838149,0
287,244.0888888888889,0.7805555555555657,0.8166666666666629,0.8694444444444436,0.8977635782747729,0.02645237966485843,1.059788598512072,41.666666666666664,1.0714285714010205,0.9392971246006355,0.0,0.997850615742151,0
288,244.90555555555557,0.8166666666666629,0.8444444444444343,0.8694444444444436,0.9392971246006355,0.02740470750358064,1.0979426775896621,38.888888888888886,0.9999999999742858,0.9712460063897657,0.0,0.9995043023296828,0
289,245.75,0.8444444444444343,0.8333333333333428,0.8694444444444436,0.9712460063897657,0.027610581369613384,1.106190811735527,38.888888888888886,0.9999999999742858,0.9584664536741333,0.0,0.9996530674739924,0
290,246.58333333333334,0.8333333333333428,0.794444444444423,0.8694444444444436,0.9584664536741333,0.021299893189374006,0.8533592908320415,38.888888888888886,0.9999999999742858,0.9137380191693053,0.0,0.9953534925646961,0
291,247.37777777777777,0.794444444444423,0.7888888888888914,0.8694444444444436,0.9137380191693053,0.025643607769116623,1.0273859472283828,38.888888888888886,0.9999999999742858,0.9073482428115054,0.0,0.9966782674597596,0
292,248.16666666666666,0.7888888888888914,0.8027777777777771,0.8694444444444436,0.9073482428115054,0.026993538400731987,1.0814695915089292,38.888888888888886,0.9999999999742858,0.9233226837060705,0.0,0.9996304290111309,0
293,248.96944444444443,0.8027777777777771,0.7750000000000057,0.8694444444444436,0.9233226837060705,0.02668674302822541,1.0691781363741508,38.888888888888886,0.9999999999742858,0.8913738019169404,0.0,0.998830160344814,0
294,249.74444444444444,0.7750000000000057,0.7944444444444514,0.8694444444444436,0.8913738019169404,0.02046459951494951,0.8198940705463841,33.333333333333336,0.8571428571208165,0.913738019169338,0.0,0.9925911901431339,0
295,250.5388888888889,0.7944444444444514,0.8388888888888744,0.8694444444444436,0.913738019169338,0.02640330867547186,1.0578226175406633,38.888888888888886,0.9999999999742858,0.9648562300319331,0.0,0.9984018154944367,0
296,251.37777777777777,0.8388888888888744,0.8500000000000227,0.8694444444444436,0.9648562300319331,0.02721149494816124,1.0902018064122048,41.666666666666664,1.0714285714010205,0.977635782747631,0.0,0.9986438755794877,0
297,252.2277777777778,0.8500000000000227,0.8388888888888744,0.8694444444444436,0.977635782747631,0.028071065027622504,1.1246396370110663,41.666666666666664,1.0714285714010205,0.9648562300319331,0.0,0.9980007585275958,0
298,253.06666666666666,0.8388888888888744,0.7888888888888914,0.8694444444444436,0.9648562300319331,0.021297269041425624,0.8532541569230421,36.111111111111114,0.9285714285475513,0.9073482428115054,0.0,0.993084358818,0
299,253.85555555555555,0.7888888888888914,0.7944444444444514,0.8694444444444436,0.9073482428115054,0.025912531601543345,1.038160116323371,38.888888888888886,0.9999999999742858,0.913738019169338,0.0,0.9979887105478794,0
300,254.65,0.7944444444444514,0.8111111111111029,0.8694444444444436,0.913738019169338,0.02708951613918818,1.0853148452900843,41.666666666666664,1.0714285714010205,0.932907348242803,0.0,0.9992269864632846,0
301,255.4611111111111,0.8111111111111029,0.7972222222222172,0.8694444444444436,0.932907348242803,0.025975185070528557,1.04067026599342,38.888888888888886,0.9999999999742858,0.916932907348238,0.0,0.9983229344540379,0
302,256.2583333333333,0.7972222222222172,0.8249999999999886,0.8694444444444436,0.916932907348238,0.02013483277645107,0.8066822902053721,36.111111111111114,0.9285714285475513,0.9488817891373681,0.0,0.9905150893279361,0
303,257.0833333333333,0.8249999999999886,0.8388888888889028,0.8694444444444436,0.9488817891373681,0.027229544785414356,1.0909249554055358,41.666666666666664,1.0714285714010205,0.9648562300319659,0.0,0.9980906581567308,0
304,257.9222222222222,0.8388888888889028,0.8361111111111086,0.8694444444444436,0.9648562300319659,0.027262908542872624,1.0922616415640505,41.666666666666664,1.0714285714010205,0.9616613418530332,0.0,0.999313722789227,0
305,258.7583333333333,0.8361111111111086,0.7972222222222172,0.8694444444444436,0.9616613418530332,0.026879560723017434,1.0769031878485722,41.666666666666664,1.0714285714010205,0.916932907348238,0.0,0.9993900705094675,0
306,259.55555555555554,0.7972222222222172,0.7777777777777715,0.8694444444444436,0.916932907348238,0.025897407629327268,1.0375541892377218,36.111111111111114,0.9285714285475513,0.8945686900958403,0.0,0.997693445498472,0
307,260.3333333333333,0.7777777777777715,0.7916666666666856,0.8694444444444436,0.8945686900958403,0.020834657978257818,0.834720099250261,38.888888888888886,0.9999999999742858,0.910543130990438,0.0,0.9946516715817642,0
308,261.125,0.7916666666666856,0.7861111111110972,0.8694444444444436,0.910543130990438,0.021494194575813575,0.8611437849544098,36.111111111111114,0.9285714285475513,0.9041533546325727,0.0,0.9950745903517979,0
309,261.9111111111111,0.7861111111110972,0.8000000000000114,0.8694444444444436,0.9041533546325727,0.02641102652963971,1.0581318257841443,38.888888888888886,0.9999999999742858,0.9201277955271705,0.0,0.9985665687667316,0
310,262.7111111111111,0.8000000000000114,0.830555555555577,0.8694444444444436,0.9201277955271705,0.025768472997937494,1.0323885499254384,38.888888888888886,0.9999999999742858,0.9552715654952333,0.0,0.9987964886438232,0
311,263.5416666666667,0.830555555555577,0.8055555555555429,0.8694444444444436,0.9552715654952333,0.027662481608408746,1.108270143804409,41.666666666666664,1.0714285714010205,0.9265175718849704,0.0,0.9981549058478157,0
312,264.34722222222223,0.8055555555555429,0.8083333333333371,0.8694444444444436,0.9265175718849704,0.028400943619135057,1.137855898633179,44.44444444444444,1.1428571428277552,0.9297124600639031,0.0,0.9976507165120967,0
313,265.15555555555557,0.8083333333333371,0.73888888888888,0.8694444444444436,0.9297124600639031,0.02249574012632419,0.9012697232922652,38.888888888888886,0.9999999999742858,0.849840255591045,0.0,0.9962248954722545,0
314,265.89444444444445,0.73888888888888,0.7111111111111086,0.8694444444444436,0.849840255591045,0.025553121276558857,1.0237606948183147,38.888888888888886,0.9999999999742858,0.8178913738019148,0.0,0.9975406423145197,0
315,266.60555555555555,0.7111111111111086,0.7222222222222285,0.8694444444444436,0.8178913738019148,0.024887351290803467,0.9970872745410284,36.111111111111114,0.9285714285475513,0.83067092651758,0.0,0.9947896235811178,0
316,267.3277777777778,0.7222222222222285,0.7555555555555316,0.8694444444444436,0.83067092651758,0.02290035746469602,0.9174803193671593,38.888888888888886,0.9999999999742858,0.8690095846645101,0.0,0.9952408800518737,0
317,268.0833333333333,0.7555555555555316,0.7777777777777715,0.8694444444444436,0.8690095846645101,0.026096017297219904,1.0455112904230837,38.888888888888886,0.9999999999742858,0.8945686900958403,0.0,0.9981812165893044,0
318,268.8611111111111,0.7777777777777715,0.8000000000000114,0.8694444444444436,0.8945686900958403,0.02650195172636864,1.061774654445749,41.666666666666664,1.0714285714010205,0.9201277955271705,0.0,0.9976005940395627,0
319,269.6611111111111,0.8000000000000114,0.8277777777777828,0.8694444444444436,0.9201277955271705,0.02632711067697997,1.0547698196051178,38.888888888888886,0.9999999999742858,0.9520766773163007,0.0,0.99726633431836,0
320,270.4888888888889,0.8277777777777828,0.8249999999999886,0.8694444444444436,0.9520766773163007,0.026454126708756128,1.059858592109145,41.666666666666664,1.0714285714010205,0.9488817891373681,0.0,0.9978129547295955,0
321,271.31388888888887,0.8249999999999886,0.8250000000000455,0.8694444444444436,0.9488817891373681,0.02698505631518796,1.081129765086314,41.666666666666664,1.0714285714010205,0.9488817891374335,0.0,0.9981898312888091,0
322,272.1388888888889,0.8250000000000455,0.794444444444423,0.8694444444444436,0.9488817891374335,0.02674391064529578,1.0714685007777651,41.666666666666664,1.0714285714010205,0.9137380191693053,0.0,0.9975079625233594,0
323,272.93333333333334,0.794444444444423,0.8333333333333144,0.8694444444444436,0.9137380191693053,0.026504225864407257,1.061865765551642,38.888888888888886,0.9999999999742858,0.9584664536741005,0.0,0.9985667576508754,0
324,273.76666666666665,0.8333333333333144,0.9083333333333599,0.8694444444444436,0.9584664536741005,0.027359682251886182,1.096138785123446,41.666666666666664,1.0714285714010205,1.0447284345048238,0.0,0.9988559202199041,0
325,274.675,0.9083333333333599,0.8499999999999659,0.8694444444444436,1.0447284345048238,0.02777449699410861,1.112757930163394,41.666666666666664,1.0714285714010205,0.9776357827475656,0.0,0.9990916766775223,0
326,275.525,0.8499999999999659,0.8500000000000227,0.8694444444444436,0.9776357827475656,0.026541012478713207,1.0633395851063754,38.888888888888886,0.9999999999742858,0.977635782747631,0.0,0.9987932320864603,0
327,276.375,0.8500000000000227,0.8611111111110858,0.8694444444444436,0.977635782747631,0.02857501124031169,1.1448297468324844,41.666666666666664,1.0714285714010205,0.9904153354632307,0.0,0.9982041175472212,0
328,277.2361111111111,0.8611111111110858,0.8444444444444912,0.8694444444444436,0.9904153354632307,0.02795066080128642,1.1198157599950727,41.666666666666664,1.0714285714010205,0.971246006389831,0.0,0.9985196701117056,0
329,278.0805555555556,0.8444444444444912,0.8138888888888687,0.8694444444444436,0.971246006389831,0.023580972927690732,0.944748509102507,41.666666666666664,1.0714285714010205,0.936102236421703,0.0,0.9960768936283935,0
330,278.89444444444445,0.8138888888888687,0.8000000000000114,0.8694444444444436,0.936102236421703,0.027521672018103342,1.1026287459317983,41.666666666666664,1.0714285714010205,0.9201277955271705,0.0,0.9994308957831121,0
331,279.69444444444446,0.8000000000000114,0.8694444444444116,0.8694444444444436,0.9201277955271705,0.02691497549710816,1.078322045973087,41.666666666666664,1.0714285714010205,0.9999999999999633,0.0,0.9996952861895639,0
332,280.56388888888887,0.8694444444444116,0.9000000000000341,0.8694444444444436,0.9999999999999633,0.028348055004678806,1.1357369682646459,44.44444444444444,1.1428571428277552,1.0351437699680914,0.0,0.9968562454566661,0
333,281.4638888888889,0.9000000000000341,0.8777777777777374,0.8694444444444436,1.0351437699680914,0.023718741760557875,0.950268082016277,38.888888888888886,0.9999999999742858,1.0095846645366957,0.0,0.9959911373886907,0
334,282.34166666666664,0.8777777777777374,0.8833333333333826,0.8694444444444436,1.0095846645366957,0.023320367780006554,0.934307619937584,38.888888888888886,0.9999999999742858,1.0159744408946263,0.0,0.9956479674611287,0
335,283.225,0.8833333333333826,0.8666666666666174,0.8694444444444436,1.0159744408946263,0.021648151334812408,0.8673119112219906,38.888888888888886,0.9999999999742858,0.9968051118210306,0.0,0.9954980390662653,0
336,284.09166666666664,0.8666666666666174,0.8527777777778169,0.8694444444444436,0.9968051118210306,0.021298305527073545,0.8532956827020497,38.888888888888886,0.9999999999742858,0.9808306709265636,0.0,0.9961532708451732,0
337,284.94444444444446,0.8527777777778169,0.8472222222222285,0.8694444444444436,0.9808306709265636,0.026524333328837593,1.062671351355953,38.888888888888886,0.9999999999742858,0.9744408945686983,0.0,0.9983581568112538,0
338,285.7916666666667,0.8472222222222285,0.8805555555555316,0.8694444444444436,0.9744408945686983,0.026689164642459216,1.0692751559688902,38.888888888888886,0.9999999999742858,1.0127795527156283,0.0,0.9994842520543539,0
339,286.6722222222222,0.8805555555555316,0.9055555555555657,0.8694444444444436,1.0127795527156283,0.023906206971636607,0.9577786914902078,41.666666666666664,1.0714285714010205,1.0415335463258912,0.0,0.9952169699591744,0
340,287.5777777777778,0.9055555555555657,0.88611111111112,0.8694444444444436,1.0415335463258912,0.02359882903488843,0.9454638964915316,41.666666666666664,1.0714285714010205,1.0191693290734936,0.0,0.994916547030854,0
341,288.4638888888889,0.88611111111112,0.88611111111112,0.8694444444444436,1.0191693290734936,0.027408377611030946,1.0980897168383206,41.666666666666664,1.0714285714010205,1.0191693290734936,0.0,0.9996011882455982,0
342,289.35,0.88611111111112,0.8583333333332916,0.8694444444444436,1.0191693290734936,0.022492653933394138,0.9011460780050918,38.888888888888886,0.9999999999742858,0.9872204472842981,0.0,0.9968748779489811,0
343,290.2083333333333,0.8583333333332916,0.875,0.8694444444444436,0.9872204472842981,0.02777348749723533,1.1127174856631226,41.666666666666664,1.0714285714010205,1.0063897763578284,0.0,0.9994964919452338,0
344,291.0833333333333,0.875,0.8500000000000227,0.8694444444444436,1.0063897763578284,0.028037107233915982,1.1232791513739797,41.666666666666664,1.0714285714010205,0.977635782747631,0.0,0.9995244792887751,0
345,291.93333333333334,0.8500000000000227,0.88611111111112,0.8694444444444436,0.977635782747631,0.026502648256630512,1.0618025602462628,38.888888888888886,0.9999999999742858,1.0191693290734936,0.0,0.9983593458696833,0
346,292.81944444444446,0.88611111111112,0.9527777777777828,0.8694444444444436,1.0191693290734936,0.027174556300970314,1.0887218958093257,41.666666666666664,1.0714285714010205,1.095846645367419,0.0,0.9983613870844805,0
347,293.77222222222224,0.9527777777777828,0.9027777777777715,0.8694444444444436,1.095846645367419,0.026914741460783032,1.0783126695376903,41.666666666666664,1.0714285714010205,1.0383386581469587,0.0,0.999667934883157,0
348,294.675,0.9027777777777715,0.8777777777777942,0.8694444444444436,1.0383386581469587,0.027026058383779514,1.0827724726747912,38.888888888888886,0.9999999999742858,1.0095846645367612,0.0,0.9995835819957418,0
349,295.5527777777778,0.8777777777777942,0.8527777777777601,0.8694444444444436,1.0095846645367612,0.022324263579270257,0.8943996839316324,38.888888888888886,0.9999999999742858,0.9808306709264982,0.0,0.9949929937951678,0
350,296.40555555555557,0.8527777777777601,0.8722222222222058,0.8694444444444436,0.9808306709264982,0.021555825162683288,0.8636129538576106,38.888888888888886,0.9999999999742858,1.003194888178896,0.0,0.9955320540145411,0
351,297.27777777777777,0.8722222222222058,0.875,0.8694444444444436,1.003194888178896,0.02241680941752029,0.8981074420032974,38.888888888888886,0.9999999999742858,1.0063897763578284,0.0,0.9963907193826183,0
352,298.15277777777777,0.875,0.8833333333333258,0.8694444444444436,1.0063897763578284,0.0276029701733038,1.1058858766343327,38.888888888888886,0.9999999999742858,1.015974440894561,0.0,0.9989808695277231,0
353,299.0361111111111,0.8833333333333258,0.9472222222222513,0.8694444444444436,1.015974440894561,0.027791888773581803,1.1134547147183962,41.666666666666664,1.0714285714010205,1.0894568690096191,0.0,0.9995276060131233,0
354,299.98333333333335,0.9472222222222513,0.9055555555555657,0.8694444444444436,1.0894568690096191,0.0233326645902958,0.9348002795586738,41.666666666666664,1.0714285714010205,1.0415335463258912,0.0,0.995419355700089,0
355,300.8888888888889,0.9055555555555657,0.8305555555555202,0.8694444444444436,1.0415335463258912,0.027366738708230007,1.0964214951130136,41.666666666666664,1.0714285714010205,0.9552715654951679,0.0,0.9993968689630199,0
356,301.71944444444443,0.8305555555555202,0.841666666666697,0.8694444444444436,0.9552715654951679,0.026486817955661317,1.0611683347931762,38.888888888888886,0.9999999999742858,0.9680511182108985,0.0,0.9986459134527397,0
357,302.56111111111113,0.841666666666697,0.8527777777777601,0.8694444444444436,0.9680511182108985,0.025971285371042,1.040514028365432,38.888888888888886,0.9999999999742858,0.9808306709264982,0.0,0.997933948763035,0
358,303.4138888888889,0.8527777777777601,0.8583333333333485,0.8694444444444436,0.9808306709264982,0.0267535711380269,1.071855538926399,41.666666666666664,1.0714285714010205,0.9872204472843634,0.0,0.9995734623737531,0
359,304.27222222222224,0.8583333333333485,0.86388888888888,0.8694444444444436,0.9872204472843634,0.0276878249336765,1.1092854992282852,38.888888888888886,0.9999999999742858,0.9936102236421633,0.0,0.999618993104445,0
360,305.1361111111111,0.86388888888888,0.8972222222222399,0.8694444444444436,0.9936102236421633,0.02203321735984835,0.8827392031396851,38.888888888888886,0.9999999999742858,1.0319488817891587,0.0,0.9947856362752132,0
361,306.03333333333336,0.8972222222222399,0.8805555555555316,0.8694444444444436,1.0319488817891587,0.027615481578042774,1.106387133771185,41.666666666666664,1.0714285714010205,1.0127795527156283,0.0,0.999076429146096,0
362,306.9138888888889,0.8805555555555316,0.8416666666666401,0.8694444444444436,1.0127795527156283,0.02663003501849841,1.0669061856871271,41.666666666666664,1.0714285714010205,0.9680511182108331,0.0,0.9984509477501182,0
363,307.75555555555553,0.8416666666666401,0.8277777777777828,0.8694444444444436,0.9680511182108331,0.027049523404406466,1.0837125756689021,41.666666666666664,1.0714285714010205,0.9520766773163007,0.0,0.9996948238184316,0
364,308.5833333333333,0.8277777777777828,0.830555555555577,0.8694444444444436,0.9520766773163007,0.02712431444152742,1.086709005079636,38.888888888888886,0.9999999999742858,0.9552715654952333,0.0,0.9992930227766976,0
365,309.4138888888889,0.830555555555577,0.8777777777777942,0.8694444444444436,0.9552715654952333,0.026698092670783914,1.0696328486508186,41.666666666666664,1.0714285714010205,1.0095846645367612,0.0,0.9996657152783686,0
366,310.2916666666667,0.8777777777777942,0.8805555555555316,0.8694444444444436,1.0095846645367612,0.02665559102587659,1.0679300620107708,41.666666666666664,1.0714285714010205,1.0127795527156283,0.0,0.9974504815505796,0
367,311.1722222222222,0.8805555555555316,0.8833333333333258,0.8694444444444436,1.0127795527156283,0.02204124421066922,0.8830607910304417,38.888888888888886,0.9999999999742858,1.015974440894561,0.0,0.9950524057120483,0
368,312.05555555555554,0.8833333333333258,0.88611111111112,0.8694444444444436,1.015974440894561,0.028472874755375174,1.1407377489253312,44.44444444444444,1.1428571428277552,1.0191693290734936,0.0,0.9977755794254404,0
369,312.94166666666666,0.88611111111112,0.8388888888889028,0.8694444444444436,1.0191693290734936,0.02643669583607494,1.0591602413231784,41.666666666666664,1.0714285714010205,0.9648562300319659,0.0,0.9982091443129906,0
370,313.78055555555557,0.8388888888889028,0.8249999999999886,0.8694444444444436,0.9648562300319659,0.025376762243792206,1.0166950434652526,36.111111111111114,0.9285714285475513,0.9488817891373681,0.0,0.9942191307690328,0
371,314.60555555555555,0.8249999999999886,0.8361111111111086,0.8694444444444436,0.9488817891373681,0.02684155746764143,1.0753806247648683,38.888888888888886,0.9999999999742858,0.9616613418530332,0.0,0.9997083605828903,0
372,315.44166666666666,0.8361111111111086,0.8833333333333258,0.8694444444444436,0.9616613418530332,0.02206025715619237,0.8838225260102377,38.888888888888886,0.9999999999742858,1.015974440894561,0.0,0.9966181850929697,0
373,316.325,0.8833333333333258,0.9055555555555657,0.8694444444444436,1.015974440894561,0.02784000309830951,1.1153823678602899,41.666666666666664,1.0714285714010205,1.0415335463258912,0.0,0.9994305107879465,0
374,317.23055555555555,0.9055555555555657,0.8972222222222399,0.8694444444444436,1.0415335463258912,0.02708841750112645,1.0852708294356899,41.666666666666664,1.0714285714010205,1.0319488817891587,0.0,0.9994259481651065,0
375,318.1277777777778,0.8972222222222399,0.9250000000000114,0.8694444444444436,1.0319488817891587,0.028620060718223993,1.1466346098983131,41.666666666666664,1.0714285714010205,1.063897763578289,0.0,0.997966732803534,0
376,319.0527777777778,0.9250000000000114,0.8777777777777374,0.8694444444444436,1.063897763578289,0.0277972244081368,1.1136684816739162,41.666666666666664,1.0714285714010205,1.0095846645366957,0.0,0.9983669206292834,0
377,319.93055555555554,0.8777777777777374,0.8388888888889028,0.8694444444444436,1.0095846645366957,0.026664831224543373,1.0683002614907084,41.666666666666664,1.0714285714010205,0.9648562300319659,0.0,0.9983696030606153,0
378,320.76944444444445,0.8388888888889028,0.8500000000000227,0.8694444444444436,0.9648562300319659,0.0256575281933967,1.027943655348612,38.888888888888886,0.9999999999742858,0.977635782747631,0.0,0.9969408877087975,0
379,321.61944444444447,0.8500000000000227,0.8666666666666174,0.8694444444444436,0.977635782747631,0.021108927520082414,0.8457084389394491,38.888888888888886,0.9999999999742858,0.9968051118210306,0.0,0.9939990279841808,0
380,322.4861111111111,0.8666666666666174,0.8972222222222399,0.8694444444444436,0.9968051118210306,0.027568143405601795,1.1044905764079926,41.666666666666664,1.0714285714010205,1.0319488817891587,0.0,0.9987703648921584,0
381,323.3833333333333,0.8972222222222399,0.8805555555555884,0.8694444444444436,1.0319488817891587,0.022776758833566883,0.9125284616620329,38.888888888888886,0.9999999999742858,1.0127795527156938,0.0,0.9946860662151731,0
382,324.2638888888889,0.8805555555555884,0.8805555555555316,0.8694444444444436,1.0127795527156938,0.02721215496243801,1.0902282492356572,38.888888888888886,0.9999999999742858,1.0127795527156283,0.0,0.9995972382333598,0
383,325.14444444444445,0.8805555555555316,0.8500000000000227,0.8694444444444436,1.0127795527156283,0.02791589920790919,1.1184230709140126,41.666666666666664,1.0714285714010205,0.977635782747631,0.0,0.99866337383585,0
384,325.99444444444447,0.8500000000000227,0.8333333333333144,0.8694444444444436,0.977635782747631,0.02651323739429452,1.0622268036416236,41.666666666666664,1.0714285714010205,0.9584664536741005,0.0,0.9974517072706325,0
385,326.8277777777778,0.8333333333333144,0.8416666666666401,0.8694444444444436,0.9584664536741005,0.021533019965952842,0.8626992860595539,38.888888888888886,0.9999999999742858,0.9680511182108331,0.0,0.9956711005341001,0
386,327.6694444444444,0.8416666666666401,0.8666666666666742,0.8694444444444436,0.9680511182108331,0.027622411034992397,1.1066647556548164,38.888888888888886,0.9999999999742858,0.996805111821096,0.0,0.9995830997889255,0
387,328.5361111111111,0.8666666666666742,0.9000000000000341,0.8694444444444436,0.996805111821096,0.027725495713198593,1.110794741993601,44.44444444444444,1.1428571428277552,1.0351437699680914,0.0,0.9987052402393186,0
388,329.43611111111113,0.9000000000000341,0.8833333333333258,0.8694444444444436,1.0351437699680914,0.027378175617368054,1.0968797036394404,38.888888888888886,0.9999999999742858,1.015974440894561,0.0,0.9995008691394675,0
389,330.31944444444446,0.8833333333333258,0.875,0.8694444444444436,1.015974440894561,0.026249244471202055,1.0516501865838792,38.888888888888886,0.9999999999742858,1.0063897763578284,0.0,0.9976246607550443,0
390,331.19444444444446,0.875,0.86388888888888,0.8694444444444436,1.0063897763578284,0.02248815748214734,0.9009659321042127,38.888888888888886,0.9999999999742858,0.9936102236421633,0.0,0.995957108827888,0
391,332.05833333333334,0.86388888888888,0.8249999999999886,0.8694444444444436,0.9936102236421633,0.020917430540430108,0.8380363006193333,38.888888888888886,0.9999999999742858,0.9488817891373681,0.0,0.9952057756615611,0
392,332.8833333333333,0.8249999999999886,0.8222222222222513,0.8694444444444436,0.9488817891373681,0.02529578261485931,1.0134506742046363,38.888888888888886,0.9999999999742858,0.9456869009585008,0.0,0.9960779331327777,0
393,333.7055555555556,0.8222222222222513,0.8472222222222285,0.8694444444444436,0.9456869009585008,0.026445395764158663,1.059508795393089,41.666666666666664,1.0714285714010205,0.9744408945686983,0.0,0.9981702489604845,0
394,334.5527777777778,0.8472222222222285,0.8888888888888573,0.8694444444444436,0.9744408945686983,0.02238971628291971,0.8970219821879073,38.888888888888886,0.9999999999742858,1.0223642172523608,0.0,0.996478744450702,0
395,335.44166666666666,0.8888888888888573,0.8833333333333258,0.8694444444444436,1.0223642172523608,0.023836333890901604,0.9549792951695718,41.666666666666664,1.0714285714010205,1.015974440894561,0.0,0.9954333497016803,0
396,336.325,0.8833333333333258,0.8388888888889028,0.8694444444444436,1.015974440894561,0.027121145287412343,1.0865820360341045,38.888888888888886,0.9999999999742858,0.9648562300319659,0.0,0.9993956932132269,0
397,337.1638888888889,0.8388888888889028,0.8333333333333144,0.8694444444444436,0.9648562300319659,0.026543084505901288,1.0634225988396409,38.888888888888886,0.9999999999742858,0.9584664536741005,0.0,0.9996077913760919,0
398,337.9972222222222,0.8333333333333144,0.8138888888889255,0.8694444444444436,0.9584664536741005,0.027076771452685618,1.0848042419486024,38.888888888888886,0.9999999999742858,0.9361022364217683,0.0,0.9995572905036474,0
399,338.81111111111113,0.8138888888889255,0.8027777777777487,0.8694444444444436,0.9361022364217683,0.021218643118530615,0.8501040865820241,36.111111111111114,0.9285714285475513,0.9233226837060378,0.0,0.9951232541261501,0
400,339.6138888888889,0.8027777777777487,0.8388888888889028,0.8694444444444436,0.9233226837060378,0.02130809999021745,0.8536880882436293,36.111111111111114,0.9285714285475513,0.9648562300319659,0.0,0.9945640456024862,0
401,340.4527777777778,0.8388888888889028,0.86388888888888,0.8694444444444436,0.9648562300319659,0.026947231910685827,1.0796143674871288,38.888888888888886,0.9999999999742858,0.9936102236421633,0.0,0.9993284689357151,0
402,341.31666666666666,0.86388888888888,0.8722222222222058,0.8694444444444436,0.9936102236421633,0.02838377847339482,1.1371681939359917,41.666666666666664,1.0714285714010205,1.003194888178896,0.0,0.9978789498532596,0
403,342.18888888888887,0.8722222222222058,0.841666666666697,0.8694444444444436,1.003194888178896,0.02772875304379493,1.11092524374321,41.666666666666664,1.0714285714010205,0.9680511182108985,0.0,0.9994973878904552,0
404,343.03055555555557,0.841666666666697,0.7916666666666288,0.8694444444444436,0.9680511182108985,0.026294191909613872,1.0534509615373875,38.888888888888886,0.9999999999742858,0.9105431309903727,0.0,0.9998019665838245,0
405,343.8222222222222,0.7916666666666288,0.8277777777777828,0.8694444444444436,0.9105431309903727,0.025866613644933537,1.0363204585119155,36.111111111111114,0.9285714285475513,0.9520766773163007,0.0,0.9981262797237824,0
406,344.65,0.8277777777777828,0.8000000000000114,0.8694444444444436,0.9520766773163007,0.021788150591283573,0.8729208438657866,38.888888888888886,0.9999999999742858,0.9201277955271705,0.0,0.9957624938553371,0
407,345.45,0.8000000000000114,0.7916666666666856,0.8694444444444436,0.9201277955271705,0.02602526105577277,1.0426765111363316,38.888888888888886,0.9999999999742858,0.910543130990438,0.0,0.9980809423150501,0
408,346.2416666666667,0.7916666666666856,0.8388888888889028,0.8694444444444436,0.910543130990438,0.020996719137085985,0.841212920333421,38.888888888888886,0.9999999999742858,0.9648562300319659,0.0,0.9953179105597741,0
409,347.0805555555556,0.8388888888889028,0.8527777777777601,0.8694444444444436,0.9648562300319659,0.025809267933752256,1.0340229589427472,38.888888888888886,0.9999999999742858,0.9808306709264982,0.0,0.9987054859225798,0
410,347.93333333333334,0.8527777777777601,0.8500000000000227,0.8694444444444436,0.9808306709264982,0.02705900778662088,1.084092558122735,41.666666666666664,1.0714285714010205,0.977635782747631,0.0,0.9983667156050197,0
411,348.78333333333336,0.8500000000000227,0.8111111111110745,0.8694444444444436,0.977635782747631,0.02209733158513802,0.8853078765756971,36.111111111111114,0.9285714285475513,0.9329073482427703,0.0,0.994675313547335,0
412,349.59444444444443,0.8111111111110745,0.8000000000000114,0.8694444444444436,0.9329073482427703,0.02548582550430793,1.0210645558295663,36.111111111111114,0.9285714285475513,0.9201277955271705,0.0,0.9972543672991958,0
413,350.39444444444445,0.8000000000000114,0.8416666666666401,0.8694444444444436,0.9201277955271705,0.025702405896607144,1.0297416364298007,38.888888888888886,0.9999999999742858,0.9680511182108331,0.0,0.9984726823953071,0
414,351.2361111111111,0.8416666666666401,0.8500000000000227,0.8694444444444436,0.9680511182108331,0.026479024994584523,1.06085611746519,38.888888888888886,0.9999999999742858,0.977635782747631,0.0,0.998629263946185,0
415,352.0861111111111,0.8500000000000227,0.86388888888888,0.8694444444444436,0.977635782747631,0.02576133130508709,1.0321024250189905,38.888888888888886,0.9999999999742858,0.9936102236421633,0.0,0.9965039025538542,0
416,352.95,0.86388888888888,0.8944444444444457,0.8694444444444436,0.9936102236421633,0.026581342704366653,1.0649553759677066,38.888888888888886,0.9999999999742858,1.0287539936102261,0.0,0.9988980945133543,0
417,353.84444444444443,0.8944444444444457,0.9138888888888914,0.8694444444444436,1.0287539936102261,0.02302522971030897,0.9224832031850947,38.888888888888886,0.9999999999742858,1.0511182108626238,0.0,0.9970244632210813,0
418,354.7583333333333,0.9138888888888914,0.8777777777777942,0.8694444444444436,1.0511182108626238,0.02772253511616678,1.1106761285826772,41.666666666666664,1.0714285714010205,1.0095846645367612,0.0,0.9979153497133415,0
419,355.6361111111111,0.8777777777777942,0.8305555555555202,0.8694444444444436,1.0095846645367612,0.026404179188408847,1.0578574937860963,38.888888888888886,0.9999999999742858,0.9552715654951679,0.0,0.9996926019842649,0
420,356.46666666666664,0.8305555555555202,0.8611111111111427,0.8694444444444436,0.9552715654951679,0.020440698241997672,0.8189364895315487,36.111111111111114,0.9285714285475513,0.9904153354632961,0.0,0.9924156022315239,0
421,357.3277777777778,0.8611111111111427,0.8666666666666742,0.8694444444444436,0.9904153354632961,0.027088490944792355,1.0852737718839969,41.666666666666664,1.0714285714010205,0.996805111821096,0.0,0.9997474184085651,0
422,358.19444444444446,0.8666666666666742,0.8805555555555316,0.8694444444444436,0.996805111821096,0.02765730071452813,1.108062576381956,41.666666666666664,1.0714285714010205,1.0127795527156283,0.0,0.9989028962361813,0
423,359.075,0.8805555555555316,0.88611111111112,0.8694444444444436,1.0127795527156283,0.026639455111750365,1.0672835924668507,41.666666666666664,1.0714285714010205,1.0191693290734936,0.0,0.9986189856670644,0
424,359.9611111111111,0.88611111111112,0.875,0.8694444444444436,1.0191693290734936,0.02654442174700131,1.0634761740903071,38.888888888888886,0.9999999999742858,1.0063897763578284,0.0,0.9996919114722962,0
425,360.8361111111111,0.875,0.8555555555555543,0.8694444444444436,1.0063897763578284,0.027095357650245348,1.085548879690577,41.666666666666664,1.0714285714010205,0.9840255591054309,0.0,0.9983236284519225,0
426,361.69166666666666,0.8555555555555543,0.8083333333333371,0.8694444444444436,0.9840255591054309,0.024673560176652055,0.9885219436289722,36.111111111111114,0.9285714285475513,0.9297124600639031,0.0,0.9931340099818091,0
427,362.5,0.8083333333333371,0.8138888888888687,0.8694444444444436,0.9297124600639031,0.02515528882408206,1.0078219285298087,38.888888888888886,0.9999999999742858,0.936102236421703,0.0,0.997176569939525,0
428,363.31388888888887,0.8138888888888687,0.8638888888889369,0.8694444444444436,0.936102236421703,0.02706657290674085,1.084395647226668,38.888888888888886,0.9999999999742858,0.9936102236422287,0.0,0.9998081436397974,0
429,364.1777777777778,0.8638888888889369,0.8499999999999659,0.8694444444444436,0.9936102236422287,0.026442544066078908,1.0593945449116724,38.888888888888886,0.9999999999742858,0.9776357827475656,0.0,0.999899020368177,0
430,365.02777777777777,0.8499999999999659,0.8472222222222285,0.8694444444444436,0.9776357827475656,0.02723051768293396,1.0909639335886654,41.666666666666664,1.0714285714010205,0.9744408945686983,0.0,0.9995792169366879,0
431,365.875,0.8472222222222285,0.8666666666666742,0.8694444444444436,0.9744408945686983,0.022351006715785455,0.8954711214176485,36.111111111111114,0.9285714285475513,0.996805111821096,0.0,0.9954378805940993,0
432,366.7416666666667,0.8666666666666742,0.86388888888888,0.8694444444444436,0.996805111821096,0.026780458516508402,1.0729327553250594,38.888888888888886,0.9999999999742858,0.9936102236421633,0.0,0.9998961596020386,0
433,367.60555555555555,0.86388888888888,0.8138888888888687,0.8694444444444436,0.9936102236421633,0.02730673270127855,1.0940174134078853,38.888888888888886,0.9999999999742858,0.936102236421703,0.0,0.9997801360008844,0
434,368.4194444444444,0.8138888888888687,0.8000000000000114,0.8694444444444436,0.936102236421703,0.02148456673849425,0.8607580551127614,36.111111111111114,0.9285714285475513,0.9201277955271705,0.0,0.9950171158285804,0
435,369.21944444444443,0.8000000000000114,0.830555555555577,0.8694444444444436,0.9201277955271705,0.02598966377800527,1.0412503411813396,38.888888888888886,0.9999999999742858,0.9552715654952333,0.0,0.99838893668677,0
436,370.05,0.830555555555577,0.8305555555555202,0.8694444444444436,0.9552715654952333,0.0223635529006372,0.8959737719855431,38.888888888888886,0.9999999999742858,0.9552715654951679,0.0,0.9940677051062121,0
437,370.88055555555553,0.8305555555555202,0.8083333333333371,0.8694444444444436,0.9552715654951679,0.02796960300606638,1.1205746608165041,41.666666666666664,1.0714285714010205,0.9297124600639031,0.0,0.998648372930111,0
438,371.68888888888887,0.8083333333333371,0.7861111111111541,0.8694444444444436,0.9297124600639031,0.027323855505226844,1.0947034217227845,38.888888888888886,0.9999999999742858,0.9041533546326381,0.0,0.9987869735408228,0
439,372.475,0.7861111111111541,0.7694444444444457,0.8694444444444436,0.9041533546326381,0.02215247743636543,0.8875172409174502,38.888888888888886,0.9999999999742858,0.8849840255591078,0.0,0.996688621760019,0
440,373.24444444444447,0.7694444444444457,0.7861111111110972,0.8694444444444436,0.8849840255591078,0.026463405653809724,1.0602303439249972,38.888888888888886,0.9999999999742858,0.9041533546325727,0.0,0.9982323632823433,0
441,374.03055555555557,0.7861111111110972,0.7805555555555657,0.8694444444444436,0.9041533546325727,0.027525659092521602,1.1027884841505682,38.888888888888886,0.9999999999742858,0.8977635782747729,0.0,0.9996544723702769,0
442,374.81111111111113,0.7805555555555657,0.8249999999999886,0.8694444444444436,0.8977635782747729,0.02715356877226581,1.087881051094643,41.666666666666664,1.0714285714010205,0.9488817891373681,0.0,0.9995133052817371,0
443,375.6361111111111,0.8249999999999886,0.9111111111110972,0.8694444444444436,0.9488817891373681,0.021697429521330747,0.8692861933428868,38.888888888888886,0.9999999999742858,1.047923322683691,0.0,0.9958474916389107,0
444,376.5472222222222,0.9111111111110972,0.9499999999999886,0.8694444444444436,1.047923322683691,0.023294346135745724,0.9332650883297832,41.666666666666664,1.0714285714010205,1.0926517571884864,0.0,0.9945598577823798,0
445,377.4972222222222,0.9499999999999886,0.9250000000000114,0.8694444444444436,1.0926517571884864,0.02871642729773789,1.15049544221436,44.44444444444444,1.1428571428277552,1.063897763578289,0.0,0.9966237500444723,0
446,378.4222222222222,0.9250000000000114,0.919444444444423,0.8694444444444436,1.063897763578289,0.02236284541089963,0.8959454271044042,38.888888888888886,0.9999999999742858,1.0575079872204236,0.0,0.9965099513382633,0
447,379.34166666666664,0.919444444444423,0.922222222222274,0.8694444444444436,1.0575079872204236,0.02648825718495152,1.061225996100466,41.666666666666664,1.0714285714010205,1.0607028753994217,0.0,0.9978773494524852,0
448,380.2638888888889,0.922222222222274,0.908333333333303,0.8694444444444436,1.0607028753994217,0.027511876543651097,1.1022362998731439,41.666666666666664,1.0714285714010205,1.0447284345047585,0.0,0.9986196510504999,0
449,381.1722222222222,0.908333333333303,0.8916666666666515,0.8694444444444436,1.0447284345047585,0.02678456325410109,1.073097207603294,38.888888888888886,0.9999999999742858,1.0255591054312936,0.0,0.9994698980316056,0
450,382.06388888888887,0.8916666666666515,0.9750000000000227,0.8694444444444436,1.0255591054312936,0.021954313847150294,0.8795780114359745,38.888888888888886,0.9999999999742858,1.1214057507987494,0.0,0.996562857534654,0
451,383.0388888888889,0.9750000000000227,0.9444444444444571,0.8694444444444436,1.1214057507987494,0.028907022029162156,1.158131432845791,44.44444444444444,1.1428571428277552,1.0862619808306866,0.0,0.997354275431478,0
452,383.98333333333335,0.9444444444444571,0.9027777777777715,0.8694444444444436,1.0862619808306866,0.022445005365284168,0.8992370849444238,41.666666666666664,1.0714285714010205,1.0383386581469587,0.0,0.9952829435961518,0
453,384.8861111111111,0.9027777777777715,0.875,0.8694444444444436,1.0383386581469587,0.0269306041371182,1.078948192078002,38.888888888888886,0.9999999999742858,1.0063897763578284,0.0,0.9996035827884813,0
454,385.7611111111111,0.875,0.8805555555555316,0.8694444444444436,1.0063897763578284,0.0269818734221742,1.081002245605307,41.666666666666664,1.0714285714010205,1.0127795527156283,0.0,0.9985575192354104,0
455,386.64166666666665,0.8805555555555316,0.8777777777777942,0.8694444444444436,1.0127795527156283,0.027107982295933454,1.0860546737147827,41.666666666666664,1.0714285714010205,1.0095846645367612,0.0,0.9998213737133406,0
456,387.51944444444445,0.8777777777777942,0.8694444444444684,0.8694444444444436,1.0095846645367612,0.027112755764200143,1.08624591803036,38.888888888888886,0.9999999999742858,1.0000000000000286,0.0,0.9995396855070194,0
457,388.3888888888889,0.8694444444444684,0.9333333333332803,0.8694444444444436,1.0000000000000286,0.02267282635456839,0.9083645090175747,38.888888888888886,0.9999999999742858,1.073482428114956,0.0,0.9944637349838338,0
458,389.3222222222222,0.9333333333332803,0.9277777777778056,0.8694444444444436,1.073482428114956,0.023960528689093395,0.959955037722255,41.666666666666664,1.0714285714010205,1.0670926517572215,0.0,0.994535408296058,0
459,390.25,0.9277777777778056,0.8777777777777942,0.8694444444444436,1.0670926517572215,0.028335681968877095,1.1352412547433004,44.44444444444444,1.1428571428277552,1.0095846645367612,0.0,0.9981399894072229,0
460,391.1277777777778,0.8777777777777942,0.8583333333332916,0.8694444444444436,1.0095846645367612,0.026009211169522588,1.042033488214732,41.666666666666664,1.0714285714010205,0.9872204472842981,0.0,0.9989045965548009,0
461,391.9861111111111,0.8583333333332916,0.8611111111111427,0.8694444444444436,0.9872204472842981,0.026016152770287803,1.0423115966284024,38.888888888888886,0.9999999999742858,0.9904153354632961,0.0,0.9979962830915672,0
462,392.84722222222223,0.8611111111111427,0.8694444444444116,0.8694444444444436,0.9904153354632961,0.02635087096059158,1.0557217520205764,41.666666666666664,1.0714285714010205,0.9999999999999633,0.0,0.9974413388220422,0
463,393.71666666666664,0.8694444444444116,0.8638888888889369,0.8694444444444436,0.9999999999999633,0.026315082350881557,1.0542879165393146,41.666666666666664,1.0714285714010205,0.9936102236422287,0.0,0.9984159231389476,0
464,394.5805555555556,0.8638888888889369,0.908333333333303,0.8694444444444436,0.9936102236422287,0.026418496545421284,1.0584311046262114,41.666666666666664,1.0714285714010205,1.0447284345047585,0.0,0.9993682531905015,0
465,395.4888888888889,0.908333333333303,0.9027777777777715,0.8694444444444436,1.0447284345047585,0.02772134291896506,1.1106283643732726,41.666666666666664,1.0714285714010205,1.0383386581469587,0.0,0.9982574542293234,0
466,396.39166666666665,0.9027777777777715,0.8611111111111427,0.8694444444444436,1.0383386581469587,0.02680209354730243,1.0737995415747075,41.666666666666664,1.0714285714010205,0.9904153354632961,0.0,0.9995727910503003,0
467,397.2527777777778,0.8611111111111427,0.8388888888888459,0.8694444444444436,0.9904153354632961,0.02663435030608512,1.0670790734439806,38.888888888888886,0.9999999999742858,0.9648562300319005,0.0,0.9997373250578896,0
468,398.09166666666664,0.8388888888888459,0.8361111111111654,0.8694444444444436,0.9648562300319005,0.026509305485042673,1.0620692755610392,38.888888888888886,0.9999999999742858,0.9616613418530986,0.0,0.9997337756078459,0
469,398.9277777777778,0.8361111111111654,0.8499999999999659,0.8694444444444436,0.9616613418530986,0.026366921619644306,1.0563648059037505,41.666666666666664,1.0714285714010205,0.9776357827475656,0.0,0.9974830912633736,0
470,399.77777777777777,0.8499999999999659,0.8361111111111086,0.8694444444444436,0.9776357827475656,0.027101179770753766,1.0857821372277876,38.888888888888886,0.9999999999742858,0.9616613418530332,0.0,0.9991150933670261,0
471,400.6138888888889,0.8361111111111086,0.8555555555555543,0.8694444444444436,0.9616613418530332,0.02258049339736563,0.9046652798158865,38.888888888888886,0.9999999999742858,0.9840255591054309,0.0,0.9968440159106342,0
472,401.46944444444443,0.8555555555555543,0.8972222222222399,0.8694444444444436,0.9840255591054309,0.02783417877571278,1.115149022098575,41.666666666666664,1.0714285714010205,1.0319488817891587,0.0,0.9995132513788557,0
473,402.3666666666667,0.8972222222222399,0.8499999999999659,0.8694444444444436,1.0319488817891587,0.02242209224403466,0.8983190932565601,38.888888888888886,0.9999999999742858,0.9776357827475656,0.0,0.9942663259813354,0
474,403.21666666666664,0.8499999999999659,0.8166666666667197,0.8694444444444436,0.9776357827475656,0.02118832308518153,0.8488893442391053,38.888888888888886,0.9999999999742858,0.9392971246007009,0.0,0.9940023836683598,0
475,404.03333333333336,0.8166666666667197,0.8055555555555429,0.8694444444444436,0.9392971246007009,0.026524348941442812,1.0626719768596398,38.888888888888886,0.9999999999742858,0.9265175718849704,0.0,0.9981996113221905,0
476,404.8388888888889,0.8055555555555429,0.8444444444444343,0.8694444444444436,0.9265175718849704,0.025813331916592862,1.0341857784218862,36.111111111111114,0.9285714285475513,0.9712460063897657,0.0,0.9969290141617505,0
477,405.68333333333334,0.8444444444444343,0.8694444444444684,0.8694444444444436,0.9712460063897657,0.026936058366416764,1.0791667104153888,41.666666666666664,1.0714285714010205,1.0000000000000286,0.0,0.9982156033041135,0
478,406.5527777777778,0.8694444444444684,0.8722222222222058,0.8694444444444436,1.0000000000000286,0.026237481861788387,1.0511789291959508,41.666666666666664,1.0714285714010205,1.003194888178896,0.0,0.9972820963713656,0
479,407.425,0.8722222222222058,0.8916666666666515,0.8694444444444436,1.003194888178896,0.022102349422625383,0.8855089113039775,38.888888888888886,0.9999999999742858,1.0255591054312936,0.0,0.9964391966506585,0
480,408.31666666666666,0.8916666666666515,0.8999999999999773,0.8694444444444436,1.0255591054312936,0.027683515153791634,1.109112832132094,38.888888888888886,0.9999999999742858,1.035143769968026,0.0,0.9995076853172296,0
481,409.21666666666664,0.8999999999999773,0.8361111111111654,0.8694444444444436,1.035143769968026,0.02149773223516144,0.8612855177999907,36.111111111111114,0.9285714285475513,0.9616613418530986,0.0,0.9933601712386377,0
482,410.0527777777778,0.8361111111111654,0.8499999999999659,0.8694444444444436,0.9616613418530986,0.026354410691562993,1.0558635678637192,38.888888888888886,0.9999999999742858,0.9776357827475656,0.0,0.9988419328383777,0
483,410.90277777777777,0.8499999999999659,0.8527777777777601,0.8694444444444436,0.9776357827475656,0.022058150137256233,0.88373811036697,38.888888888888886,0.9999999999742858,0.9808306709264982,0.0,0.9938891966565451,0
484,411.75555555555553,0.8527777777777601,0.9027777777778283,0.8694444444444436,0.9808306709264982,0.027156914477932354,1.0880150935046002,38.888888888888886,0.9999999999742858,1.038338658147024,0.0,0.9995946069449722,0
485,412.65833333333336,0.9027777777778283,0.8944444444444457,0.8694444444444436,1.038338658147024,0.02696068496300103,1.0801533508088366,38.888888888888886,0.9999999999742858,1.0287539936102261,0.0,0.9997657450746816,0
486,413.5527777777778,0.8944444444444457,0.8833333333333258,0.8694444444444436,1.0287539936102261,0.02718301261525721,1.0890606897318473,38.888888888888886,0.9999999999742858,1.015974440894561,0.0,0.9996441489325776,0
487,414.43611111111113,0.8833333333333258,0.9111111111110972,0.8694444444444436,1.015974440894561,0.02263312535014338,0.9067739272864725,41.666666666666664,1.0714285714010205,1.047923322683691,0.0,0.9947232852716538,0
488,415.34722222222223,0.9111111111110972,0.8499999999999659,0.8694444444444436,1.047923322683691,0.025933469406643084,1.0389989689106884,38.888888888888886,0.9999999999742858,0.9776357827475656,0.0,0.9981351116252566,0
489,416.1972222222222,0.8499999999999659,0.830555555555577,0.8694444444444436,0.9776357827475656,0.025364120655216267,1.0161885706408944,38.888888888888886,0.9999999999742858,0.9552715654952333,0.0,0.9971706963706736,0
490,417.02777777777777,0.830555555555577,0.8583333333333485,0.8694444444444436,0.9552715654952333,0.021616147207269586,0.8660296973000323,36.111111111111114,0.9285714285475513,0.9872204472843634,0.0,0.9949413723233178,0
491,417.8861111111111,0.8583333333333485,0.9027777777777715,0.8694444444444436,0.9872204472843634,0.022619542353815664,0.9062297378855897,38.888888888888886,0.9999999999742858,1.0383386581469587,0.0,0.9964543062046817,0
492,418.7888888888889,0.9027777777777715,0.8944444444444457,0.8694444444444436,1.0383386581469587,0.023380447280616726,0.936714646093932,41.666666666666664,1.0714285714010205,1.0287539936102261,0.0,0.99479156619827,0
493,419.68333333333334,0.8944444444444457,0.8694444444444684,0.8694444444444436,1.0287539936102261,0.028349374897301403,1.1357898484656113,41.666666666666664,1.0714285714010205,1.0000000000000286,0.0,0.9976112865944831,0
494,420.5527777777778,0.8694444444444684,0.8833333333333258,0.8694444444444436,1.0000000000000286,0.02733978842054984,1.0953417583191247,41.666666666666664,1.0714285714010205,1.015974440894561,0.0,0.9996528970232167,0
495,421.43611111111113,0.8833333333333258,0.8305555555555202,0.8694444444444436,1.015974440894561,0.026581886078486387,1.064977145717881,38.888888888888886,0.9999999999742858,0.9552715654951679,0.0,0.9998056007543029,0
496,422.26666666666665,0.8305555555555202,0.8083333333333371,0.8694444444444436,0.9552715654951679,0.021577530008404656,0.8644825371737207,36.111111111111114,0.9285714285475513,0.9297124600639031,0.0,0.9934655249268812,0
497,423.075,0.8083333333333371,0.8166666666666629,0.8694444444444436,0.9297124600639031,0.026397188965645333,1.0575774373798412,38.888888888888886,0.9999999999742858,0.9392971246006355,0.0,0.9975966555056991,0
498,423.89166666666665,0.8166666666666629,0.8694444444444684,0.8694444444444436,0.9392971246006355,0.020460649119856664,0.8197358018487447,36.111111111111114,0.9285714285475513,1.0000000000000286,0.0,0.9909265795174715,0
499,424.7611111111111,0.8694444444444684,0.9166666666666856,0.8694444444444436,1.0000000000000286,0.026984963466390323,1.0811260451904723,41.666666666666664,1.0714285714010205,1.0543130990415563,0.0,0.9998178887986078,0
500,425.6777777777778,0.9166666666666856,0.8861111111110631,0.8694444444444436,1.0543130990415563,0.026600326547232076,1.0657159449781177,41.666666666666664,1.0714285714010205,1.0191693290734283,0.0,0.9996366627829458,0
501,426.56388888888887,0.8861111111110631,0.8833333333333258,0.8694444444444436,1.0191693290734283,0.02673407633486162,1.0710744987936562,41.666666666666664,1.0714285714010205,1.015974440894561,0.0,0.9996214740837742,0
502,427.4472222222222,0.8833333333333258,0.8583333333333485,0.8694444444444436,1.015974440894561,0.026710889301039847,1.070145533067738,41.666666666666664,1.0714285714010205,0.9872204472843634,0.0,0.9993073334392731,0
503,428.30555555555554,0.8583333333333485,0.8388888888889028,0.8694444444444436,0.9872204472843634,0.02614843039909032,1.0476111698471156,38.888888888888886,0.9999999999742858,0.9648562300319659,0.0,0.9969290932055295,0
504,429.14444444444445,0.8388888888889028,0.8722222222222058,0.8694444444444436,0.9648562300319659,0.02622633322090925,1.0507322698540575,38.888888888888886,0.9999999999742858,1.003194888178896,0.0,0.9981959571050643,0
505,430.01666666666665,0.8722222222222058,0.88611111111112,0.8694444444444436,1.003194888178896,0.023199181717102144,0.9294524194077324,38.888888888888886,0.9999999999742858,1.0191693290734936,0.0,0.9961007911653647,0
506,430.90277777777777,0.88611111111112,0.9250000000000114,0.8694444444444436,1.0191693290734936,0.023664495226274375,0.9480947479241907,41.666666666666664,1.0714285714010205,1.063897763578289,0.0,0.9956060983350483,0
507,431.8277777777778,0.9250000000000114,0.8888888888888573,0.8694444444444436,1.063897763578289,0.022916818797003,0.9181398264707276,38.888888888888886,0.9999999999742858,1.0223642172523608,0.0,0.995653059067489,0
508,432.71666666666664,0.8888888888888573,0.8361111111111654,0.8694444444444436,1.0223642172523608,0.02753290143852941,1.1030786416268632,38.888888888888886,0.9999999999742858,0.9616613418530986,0.0,0.9993877689733663,0
509,433.5527777777778,0.8361111111111654,0.8694444444444116,0.8694444444444436,0.9616613418530986,0.02630791011156811,1.0540005678188407,41.666666666666664,1.0714285714010205,0.9999999999999633,0.0,0.9984996570208975,0
510,434.4222222222222,0.8694444444444116,0.830555555555577,0.8694444444444436,0.9999999999999633,0.020819689877347246,0.8341204169953039,36.111111111111114,0.9285714285475513,0.9552715654952333,0.0,0.9925010614871446,0
511,435.2527777777778,0.830555555555577,0.8277777777777828,0.8694444444444436,0.9552715654952333,0.025284740879647907,1.0130082979332726,36.111111111111114,0.9285714285475513,0.9520766773163007,0.0,0.994212657657918,0
512,436.0805555555556,0.8277777777777828,0.8805555555555316,0.8694444444444436,0.9520766773163007,0.02620398712234175,1.049836995372778,38.888888888888886,0.9999999999742858,1.0127795527156283,0.0,0.9998901663559804,0
513,436.9611111111111,0.8805555555555316,0.9055555555555657,0.8694444444444436,1.0127795527156283,0.02158414945396131,0.8647477387555176,38.888888888888886,0.9999999999742858,1.0415335463258912,0.0,0.9960363091431191,0
514,437.8666666666667,0.9055555555555657,0.8777777777777942,0.8694444444444436,1.0415335463258912,0.027223562946333345,1.0906852989006575,41.666666666666664,1.0714285714010205,1.0095846645367612,0.0,0.9983743478697149,0
515,438.74444444444447,0.8777777777777942,0.8416666666666401,0.8694444444444436,1.0095846645367612,0.027355276180964727,1.095962260221492,41.666666666666664,1.0714285714010205,0.9680511182108331,0.0,0.9987303893756403,0
516,439.5861111111111,0.8416666666666401,0.8388888888889028,0.8694444444444436,0.9680511182108331,0.025644896042949568,1.0274375606536101,38.888888888888886,0.9999999999742858,0.9648562300319659,0.0,0.9984000970266742,0
517,440.425,0.8388888888889028,0.8194444444444571,0.8694444444444436,0.9648562300319659,0.025322913663975096,1.0145376530278225,38.888888888888886,0.9999999999742858,0.9424920127795682,0.0,0.9987173010552417,0
518,441.24444444444447,0.8194444444444571,0.8222222222221944,0.8694444444444436,0.9424920127795682,0.02603931254326788,1.0432394701754852,38.888888888888886,0.9999999999742858,0.9456869009584354,0.0,0.998751708490392,0
519,442.06666666666666,0.8222222222221944,0.875,0.8694444444444436,0.9456869009584354,0.025720797124593197,1.0304784629073878,38.888888888888886,0.9999999999742858,1.0063897763578284,0.0,0.9990843920137189,0
520,442.94166666666666,0.875,0.9027777777777715,0.8694444444444436,1.0063897763578284,0.022059776101057978,0.8838032530089749,36.111111111111114,0.9285714285475513,1.0383386581469587,0.0,0.9941207456559817,0
521,443.84444444444443,0.9027777777777715,0.9111111111110972,0.8694444444444436,1.0383386581469587,0.02198694538153464,0.8808853617965331,38.888888888888886,0.9999999999742858,1.047923322683691,0.0,0.996589732467579,0
522,444.75555555555553,0.9111111111110972,0.8611111111111427,0.8694444444444436,1.047923322683691,0.02619519628166488,1.049484798979156,38.888888888888886,0.9999999999742858,0.9904153354632961,0.0,0.99850575669525,0
523,445.6166666666667,0.8611111111111427,0.8666666666666742,0.8694444444444436,0.9904153354632961,0.0248539101657987,0.9957474887277864,36.111111111111114,0.9285714285475513,0.996805111821096,0.0,0.9976414277851318,0
524,446.48333333333335,0.8666666666666742,0.8805555555555316,0.8694444444444436,0.996805111821096,0.020398310244841497,0.8172382560769778,36.111111111111114,0.9285714285475513,1.0127795527156283,0.0,0.9924072027747575,0
525,447.3638888888889,0.8805555555555316,0.875,0.8694444444444436,1.0127795527156283,0.025838507966513182,1.0351944321233364,36.111111111111114,0.9285714285475513,1.0063897763578284,0.0,0.997993663041887,0
526,448.2388888888889,0.875,0.9083333333333599,0.8694444444444436,1.0063897763578284,0.021084511164937703,0.8447302216626889,36.111111111111114,0.9285714285475513,1.0447284345048238,0.0,0.9947420787817465,0
527,449.14722222222224,0.9083333333333599,0.9166666666666288,0.8694444444444436,1.0447284345048238,0.022928644446349164,0.918613609491607,41.666666666666664,1.0714285714010205,1.054313099041491,0.0,0.9956414852956489,0
528,450.06388888888887,0.9166666666666288,0.9388888888889255,0.8694444444444436,1.054313099041491,0.026773399572736282,1.0726499456791216,38.888888888888886,0.9999999999742858,1.0798722044728866,0.0,0.9995939485866465,0
529,451.0027777777778,0.9388888888889255,0.875,0.8694444444444436,1.0798722044728866,0.022191707595862704,0.8890889587091865,38.888888888888886,0.9999999999742858,1.0063897763578284,0.0,0.9940585876578492,0
530,451.8777777777778,0.875,0.8388888888888459,0.8694444444444436,1.0063897763578284,0.02601929089228923,1.0424373224027934,38.888888888888886,0.9999999999742858,0.9648562300319005,0.0,0.9983674587098237,0
531,452.71666666666664,0.8388888888888459,0.8722222222222626,0.8694444444444436,0.9648562300319005,0.027219384753618618,1.0905179037151371,38.888888888888886,0.9999999999742858,1.0031948881789612,0.0,0.999054311892364,0
532,453.5888888888889,0.8722222222222626,0.8499999999999659,0.8694444444444436,1.0031948881789612,0.02567234450046512,1.0285372561324395,41.666666666666664,1.0714285714010205,0.9776357827475656,0.0,0.9982313975347314,0
533,454.43888888888887,0.8499999999999659,0.8555555555555543,0.8694444444444436,0.9776357827475656,0.0265777470837534,1.0648113209609822,41.666666666666664,1.0714285714010205,0.9840255591054309,0.0,0.9980230086381778,0
534,455.2944444444444,0.8555555555555543,0.8805555555555884,0.8694444444444436,0.9840255591054309,0.026373718691257462,1.0566371238989616,38.888888888888886,0.9999999999742858,1.0127795527156938,0.0,0.9989312087365811,0
535,456.175,0.8805555555555884,0.8666666666666742,0.8694444444444436,1.0127795527156938,0.026275505787128034,1.0527023204014372,38.888888888888886,0.9999999999742858,0.996805111821096,0.0,0.9999054845588485,0
536,457.0416666666667,0.8666666666666742,0.8166666666666629,0.8694444444444436,0.996805111821096,0.02634287755190333,1.055401503956002,38.888888888888886,0.9999999999742858,0.9392971246006355,0.0,0.999654927143443,0
537,457.85833333333335,0.8166666666666629,0.8000000000000114,0.8694444444444436,0.9392971246006355,0.021465741213051677,0.8600038289343301,38.888888888888886,0.9999999999742858,0.9201277955271705,0.0,0.9957633349310973,0
538,458.65833333333336,0.8000000000000114,0.8333333333333144,0.8694444444444436,0.9201277955271705,0.025830596336411285,1.0348774604374666,38.888888888888886,0.9999999999742858,0.9584664536741005,0.0,0.9977779344605895,0
539,459.4916666666667,0.8333333333333144,0.8416666666666401,0.8694444444444436,0.9584664536741005,0.02758164718973869,1.105031592250286,41.666666666666664,1.0714285714010205,0.9680511182108331,0.0,0.9993290245432365,0
540,460.3333333333333,0.8416666666666401,0.8583333333333485,0.8694444444444436,0.9680511182108331,0.02796721048929675,1.120478806983075,44.44444444444444,1.1428571428277552,0.9872204472843634,0.0,0.9983367089888276,0
541,461.19166666666666,0.8583333333333485,0.8777777777777942,0.8694444444444436,0.9872204472843634,0.022611751003379324,0.9059175850863308,38.888888888888886,0.9999999999742858,1.0095846645367612,0.0,0.9945429454628654,0
542,462.06944444444446,0.8777777777777942,0.8805555555555316,0.8694444444444436,1.0095846645367612,0.02749872079979964,1.1017092279228935,41.666666666666664,1.0714285714010205,1.0127795527156283,0.0,0.9995671654998242,0
543,462.95,0.8805555555555316,0.841666666666697,0.8694444444444436,1.0127795527156283,0.027140302772242705,1.087349561839216,41.666666666666664,1.0714285714010205,0.9680511182108985,0.0,0.9991836766265481,0
544,463.7916666666667,0.841666666666697,0.8055555555555429,0.8694444444444436,0.9680511182108985,0.02611506564066698,1.0462744435859188,38.888888888888886,0.9999999999742858,0.9265175718849704,0.0,0.999683870747379,0
545,464.59722222222223,0.8055555555555429,0.8138888888888687,0.8694444444444436,0.9265175718849704,0.021242732835073608,0.8510692174041696,36.111111111111114,0.9285714285475513,0.936102236421703,0.0,0.9935959835430951,0
546,465.4111111111111,0.8138888888888687,0.875,0.8694444444444436,0.936102236421703,0.022546846324220132,0.9033172428927558,38.888888888888886,0.9999999999742858,1.0063897763578284,0.0,0.9965588010594887,0
547,466.2861111111111,0.875,0.8666666666666742,0.8694444444444436,1.0063897763578284,0.02185962748749763,0.8757844954776421,36.111111111111114,0.9285714285475513,0.996805111821096,0.0,0.9953851582311546,0
548,467.15277777777777,0.8666666666666742,0.8555555555555543,0.8694444444444436,0.996805111821096,0.02205632692890492,0.8836650653159042,36.111111111111114,0.9285714285475513,0.9840255591054309,0.0,0.9944950022320291,0
549,468.0083333333333,0.8555555555555543,0.8583333333333485,0.8694444444444436,0.9840255591054309,0.026562259376106182,1.0641908211726998,41.666666666666664,1.0714285714010205,0.9872204472843634,0.0,0.9984276840927389,0
550,468.8666666666667,0.8583333333333485,0.8722222222222058,0.8694444444444436,0.9872204472843634,0.026772065917235428,1.0725965140819627,38.888888888888886,0.9999999999742858,1.003194888178896,0.0,0.9990635119824648,0
551,469.7388888888889,0.8722222222222058,0.8444444444444343,0.8694444444444436,1.003194888178896,0.027005566915353656,1.0819515021277313,38.888888888888886,0.9999999999742858,0.9712460063897657,0.0,0.9995115494871687,0
