beat_index,peak_time_s,rr_prev_s,rr_next_s,rr_baseline_s,prematurity_index,qrs_width_ms,is_pvc_candidate
0,0.04722222222222222,,0.8277777777777777,0.8000000000000114,,47.22222222222222,0
1,0.875,0.8277777777777777,0.8277777777777777,0.8000000000000114,1.0347222222222074,47.22222222222222,0
2,1.7027777777777777,0.8277777777777777,0.7972222222222223,0.8000000000000114,1.0347222222222074,50.0,0
3,2.5,0.7972222222222223,0.7944444444444443,0.8000000000000114,0.9965277777777637,50.0,0
4,3.2944444444444443,0.7944444444444443,0.8083333333333336,0.8000000000000114,0.9930555555555413,55.55555555555556,0
5,4.102777777777778,0.8083333333333336,0.7555555555555555,0.8000000000000114,1.0104166666666525,63.888888888888886,0
6,4.858333333333333,0.7555555555555555,0.8666666666666663,0.8000000000000114,0.944444444444431,77.77777777777777,0
7,5.725,0.8666666666666663,0.8305555555555557,0.8000000000000114,1.0833333333333175,50.0,0
8,6.555555555555555,0.8305555555555557,0.8055555555555554,0.8000000000000114,1.03819444444443,55.55555555555556,0
9,7.361111111111111,0.8055555555555554,0.8083333333333336,0.8000000000000114,1.00694444444443,75.0,0
10,8.169444444444444,0.8083333333333336,0.8055555555555554,0.8000000000000114,1.0104166666666525,50.0,0
11,8.975,0.8055555555555554,0.7750000000000004,0.8000000000000114,1.00694444444443,50.0,0
12,9.75,0.7750000000000004,0.7944444444444443,0.8000000000000114,0.9687499999999867,63.888888888888886,0
13,10.544444444444444,0.7944444444444443,0.8472222222222232,0.8000000000000114,0.9930555555555413,75.0,0
14,11.391666666666667,0.8472222222222232,0.8472222222222214,0.8000000000000114,1.059027777777764,38.888888888888886,0
15,12.238888888888889,0.8472222222222214,0.8222222222222229,0.8000000000000114,1.0590277777777617,47.22222222222222,0
16,13.061111111111112,0.8222222222222229,0.8138888888888882,0.8000000000000114,1.027777777777764,47.22222222222222,0
17,13.875,0.8138888888888882,0.7916666666666661,0.8000000000000114,1.0173611111110958,58.333333333333336,0
18,14.666666666666666,0.7916666666666661,0.8027777777777789,0.8000000000000114,0.9895833333333185,50.0,0
19,15.469444444444445,0.8027777777777789,0.8472222222222214,0.8000000000000114,1.0034722222222094,52.77777777777778,0
20,16.316666666666666,0.8472222222222214,0.7444444444444436,0.8000000000000114,1.0590277777777617,102.77777777777777,0
21,17.06111111111111,0.7444444444444436,0.8555555555555578,0.8000000000000114,0.9305555555555413,83.33333333333333,0
22,17.916666666666668,0.8555555555555578,0.8166666666666664,0.8000000000000114,1.0694444444444322,47.22222222222222,0
23,18.733333333333334,0.8166666666666664,0.8249999999999993,0.8000000000000114,1.0208333333333186,47.22222222222222,0
24,19.558333333333334,0.8249999999999993,0.8055555555555536,0.8000000000000114,1.0312499999999845,44.44444444444444,0
25,20.363888888888887,0.8055555555555536,0.7694444444444457,0.8000000000000114,1.0069444444444278,47.22222222222222,0
26,21.133333333333333,0.7694444444444457,0.06388888888889,0.8000000000000114,0.9618055555555435,55.55555555555556,0
27,21.197222222222223,0.06388888888889,0.8055555555555536,0.8000000000000114,0.07986111111111135,55.55555555555556,0
28,22.002777777777776,0.8055555555555536,0.7250000000000014,0.8000000000000114,1.0069444444444278,91.66666666666667,0
29,22.727777777777778,0.7250000000000014,0.8638888888888872,0.8000000000000114,0.9062499999999889,83.33333333333333,0
30,23.591666666666665,0.8638888888888872,0.8361111111111121,0.8000000000000114,1.0798611111110936,63.888888888888886,0
31,24.427777777777777,0.8361111111111121,0.81388888888889,0.8000000000000114,1.0451388888888753,50.0,0
32,25.241666666666667,0.81388888888889,0.8055555555555536,0.8000000000000114,1.017361111111098,52.77777777777778,0
33,26.04722222222222,0.8055555555555536,0.8388888888888921,0.8000000000000114,1.0069444444444278,50.0,0
34,26.886111111111113,0.8388888888888921,0.7583333333333329,0.8000000000000114,1.0486111111111003,63.888888888888886,0
35,27.644444444444446,0.7583333333333329,0.7749999999999986,0.8000000000000114,0.9479166666666526,72.22222222222223,0
36,28.419444444444444,0.7749999999999986,0.8388888888888886,0.8000000000000114,0.9687499999999845,50.0,0
37,29.258333333333333,0.8388888888888886,0.8472222222222214,0.8000000000000114,1.0486111111110958,33.333333333333336,0
38,30.105555555555554,0.8472222222222214,0.8222222222222229,0.8000000000000114,1.0590277777777617,44.44444444444444,0
39,30.927777777777777,0.8222222222222229,0.8333333333333357,0.8000000000000114,1.027777777777764,50.0,0
40,31.761111111111113,0.8333333333333357,0.81111111111111,0.8000000000000114,1.0416666666666548,50.0,0
41,32.57222222222222,0.81111111111111,0.7749999999999986,0.8000000000000114,1.013888888888873,61.111111111111114,0
42,33.34722222222222,0.7749999999999986,0.7777777777777786,0.8000000000000114,0.9687499999999845,52.77777777777778,0
43,34.125,0.7777777777777786,0.8027777777777771,0.8000000000000114,0.9722222222222094,47.22222222222222,0
44,34.92777777777778,0.8027777777777771,0.8611111111111143,0.8000000000000114,1.0034722222222072,50.0,0
45,35.78888888888889,0.8611111111111143,0.8333333333333286,0.8000000000000114,1.0763888888888775,47.22222222222222,0
46,36.62222222222222,0.8333333333333286,0.81666666666667,0.8000000000000114,1.0416666666666459,58.333333333333336,0
47,37.43888888888889,0.81666666666667,0.8472222222222214,0.8000000000000114,1.020833333333323,50.0,0
48,38.28611111111111,0.8472222222222214,0.7666666666666657,0.8000000000000114,1.0590277777777617,83.33333333333333,0
49,39.05277777777778,0.7666666666666657,0.7777777777777786,0.8000000000000114,0.9583333333333185,72.22222222222223,0
50,39.830555555555556,0.7777777777777786,0.7722222222222186,0.8000000000000114,0.9722222222222094,55.55555555555556,0
51,40.602777777777774,0.7722222222222186,0.8638888888888943,0.8000000000000114,0.9652777777777595,50.0,0
52,41.46666666666667,0.8638888888888943,0.3361111111111086,0.8000000000000114,1.0798611111111025,47.22222222222222,0
53,41.80277777777778,0.3361111111111086,0.5055555555555529,0.8000000000000114,0.42013888888887974,30.555555555555557,0
54,42.30833333333333,0.5055555555555529,0.81388888888889,0.8000000000000114,0.6319444444444321,50.0,0
55,43.12222222222222,0.81388888888889,0.81388888888889,0.8000000000000114,1.017361111111098,55.55555555555556,0
56,43.93611111111111,0.81388888888889,0.8333333333333357,0.8000000000000114,1.017361111111098,50.0,0
57,44.769444444444446,0.8333333333333357,0.7555555555555529,0.8000000000000114,1.0416666666666548,75.0,0
58,45.525,0.7555555555555529,0.7777777777777786,0.8000000000000114,0.9444444444444277,44.44444444444444,0
59,46.30277777777778,0.7777777777777786,0.3277777777777757,0.8000000000000114,0.9722222222222094,50.0,0
60,46.63055555555555,0.3277777777777757,0.4972222222222271,0.8000000000000114,0.4097222222222138,63.888888888888886,0
61,47.12777777777778,0.4972222222222271,0.8499999999999943,0.8000000000000114,0.621527777777775,44.44444444444444,0
62,47.977777777777774,0.8499999999999943,0.8277777777777828,0.8000000000000114,1.0624999999999778,47.22222222222222,0
63,48.80555555555556,0.8277777777777828,0.8277777777777757,0.8000000000000114,1.0347222222222139,50.0,0
64,49.63333333333333,0.8277777777777757,0.8388888888888886,0.8000000000000114,1.034722222222205,55.55555555555556,0
65,50.47222222222222,0.8388888888888886,0.7638888888888928,0.8000000000000114,1.0486111111110958,75.0,0
66,51.236111111111114,0.7638888888888928,0.7722222222222186,0.8000000000000114,0.9548611111111025,63.888888888888886,0
67,52.00833333333333,0.7722222222222186,0.7888888888888914,0.8000000000000114,0.9652777777777595,55.55555555555556,0
68,52.797222222222224,0.7888888888888914,0.8611111111111072,0.8000000000000114,0.9861111111111003,50.0,0
69,53.65833333333333,0.8611111111111072,0.8305555555555557,0.8000000000000114,1.0763888888888686,52.77777777777778,0
70,54.48888888888889,0.8305555555555557,0.81388888888889,0.8000000000000114,1.03819444444443,58.333333333333336,0
71,55.30277777777778,0.81388888888889,0.7777777777777786,0.8000000000000114,1.017361111111098,50.0,0
72,56.080555555555556,0.7777777777777786,0.8444444444444414,0.8000000000000114,0.9722222222222094,55.55555555555556,0
73,56.925,0.8444444444444414,0.8638888888888943,0.8000000000000114,1.0555555555555367,58.333333333333336,0
74,57.78888888888889,0.8638888888888943,0.6972222222222229,0.8000000000000114,1.0798611111111025,111.11111111111111,0
75,58.486111111111114,0.6972222222222229,0.8472222222222214,0.8000000000000114,0.8715277777777661,47.22222222222222,0
76,59.333333333333336,0.8472222222222214,0.8499999999999943,0.8000000000000114,1.0590277777777617,44.44444444444444,0
77,60.18333333333333,0.8499999999999943,0.8111111111111171,0.8000000000000114,1.0624999999999778,47.22222222222222,0
78,60.99444444444445,0.8111111111111171,0.3277777777777757,0.8000000000000114,1.013888888888882,58.333333333333336,0
79,61.32222222222222,0.3277777777777757,0.4805555555555543,0.8000000000000114,0.4097222222222138,97.22222222222223,1
80,61.80277777777778,0.4805555555555543,0.7861111111111114,0.8000000000000114,0.6006944444444343,58.333333333333336,0
81,62.58888888888889,0.7861111111111114,0.8222222222222229,0.8000000000000114,0.9826388888888753,66.66666666666667,0
82,63.41111111111111,0.8222222222222229,0.75833333333334,0.8000000000000114,1.027777777777764,61.111111111111114,0
83,64.16944444444445,0.75833333333334,0.8222222222222086,0.8000000000000114,0.9479166666666615,36.111111111111114,0
84,64.99166666666666,0.8222222222222086,0.8416666666666686,0.8000000000000114,1.0277777777777461,63.888888888888886,0
85,65.83333333333333,0.8416666666666686,0.8222222222222229,0.8000000000000114,1.0520833333333208,63.888888888888886,0
86,66.65555555555555,0.8222222222222229,0.8416666666666686,0.8000000000000114,1.027777777777764,47.22222222222222,0
87,67.49722222222222,0.8416666666666686,0.8027777777777771,0.8000000000000114,1.0520833333333208,52.77777777777778,0
88,68.3,0.8027777777777771,0.8055555555555571,0.8000000000000114,1.0034722222222072,55.55555555555556,0
89,69.10555555555555,0.8055555555555571,0.8333333333333286,0.8000000000000114,1.0069444444444322,52.77777777777778,0
90,69.93888888888888,0.8333333333333286,0.7222222222222285,0.8000000000000114,1.0416666666666459,94.44444444444444,0
91,70.66111111111111,0.7222222222222285,0.3305555555555486,0.8000000000000114,0.9027777777777728,50.0,0
92,70.99166666666666,0.3305555555555486,0.5250000000000057,0.8000000000000114,0.4131944444444299,66.66666666666667,0
93,71.51666666666667,0.5250000000000057,0.31944444444444287,0.8000000000000114,0.6562499999999978,52.77777777777778,0
94,71.83611111111111,0.31944444444444287,0.5166666666666657,0.8000000000000114,0.3993055555555479,80.55555555555556,0
95,72.35277777777777,0.5166666666666657,0.8138888888888971,0.8000000000000114,0.6458333333333229,61.111111111111114,0
96,73.16666666666667,0.8138888888888971,0.8138888888888829,0.8000000000000114,1.017361111111107,50.0,0
97,73.98055555555555,0.8138888888888829,0.3305555555555628,0.8000000000000114,1.0173611111110892,58.333333333333336,0
98,74.31111111111112,0.3305555555555628,0.4805555555555543,0.8000000000000114,0.41319444444444764,58.333333333333336,0
99,74.79166666666667,0.4805555555555543,0.3305555555555486,0.8000000000000114,0.6006944444444343,55.55555555555556,0
100,75.12222222222222,0.3305555555555486,0.38888888888888573,0.8000000000000114,0.4131944444444299,80.55555555555556,0
101,75.5111111111111,0.38888888888888573,0.8444444444444485,0.8000000000000114,0.4861111111111003,52.77777777777778,0
102,76.35555555555555,0.8444444444444485,0.8055555555555571,0.8000000000000114,1.0555555555555456,77.77777777777777,0
103,77.16111111111111,0.8055555555555571,0.8472222222222285,0.8000000000000114,1.0069444444444322,63.888888888888886,0
104,78.00833333333334,0.8472222222222285,0.8194444444444429,0.8000000000000114,1.0590277777777706,47.22222222222222,0
105,78.82777777777778,0.8194444444444429,0.8222222222222229,0.8000000000000114,1.024305555555539,55.55555555555556,0
106,79.65,0.8222222222222229,0.7999999999999972,0.8000000000000114,1.027777777777764,61.111111111111114,0
107,80.45,0.7999999999999972,0.3305555555555486,0.8000000000000114,0.9999999999999822,55.55555555555556,0
108,80.78055555555555,0.3305555555555486,0.46666666666666856,0.8000000000000114,0.4131944444444299,77.77777777777777,0
109,81.24722222222222,0.46666666666666856,0.75,0.8000000000000114,0.5833333333333274,58.333333333333336,0
110,81.99722222222222,0.75,0.8166666666666629,0.8000000000000114,0.9374999999999867,61.111111111111114,0
111,82.81388888888888,0.8166666666666629,0.9166666666666714,0.8000000000000114,1.0208333333333142,61.111111111111114,0
112,83.73055555555555,0.9166666666666714,0.7722222222222257,0.8000000000000114,1.145833333333323,91.66666666666667,0
113,84.50277777777778,0.7722222222222257,0.8250000000000028,0.8000000000000114,0.9652777777777684,55.55555555555556,0
114,85.32777777777778,0.8250000000000028,0.3277777777777686,0.8000000000000114,1.031249999999989,61.111111111111114,0
115,85.65555555555555,0.3277777777777686,0.48611111111111427,0.8000000000000114,0.40972222222220495,50.0,0
116,86.14166666666667,0.48611111111111427,0.3305555555555628,0.8000000000000114,0.6076388888888842,58.333333333333336,0
117,86.47222222222223,0.3305555555555628,0.4749999999999943,0.8000000000000114,0.41319444444444764,58.333333333333336,0
118,86.94722222222222,0.4749999999999943,0.7722222222222257,0.8000000000000114,0.5937499999999845,55.55555555555556,0
119,87.71944444444445,0.7722222222222257,0.7805555555555515,0.8000000000000114,0.9652777777777684,55.55555555555556,0
120,88.5,0.7805555555555515,0.3305555555555486,0.8000000000000114,0.9756944444444254,55.55555555555556,0
121,88.83055555555555,0.3305555555555486,0.5194444444444457,0.8000000000000114,0.4131944444444299,94.44444444444444,0
122,89.35,0.5194444444444457,0.32777777777778283,0.8000000000000114,0.6493055555555479,58.333333333333336,0
123,89.67777777777778,0.32777777777778283,0.44722222222222285,0.8000000000000114,0.4097222222222227,94.44444444444444,0
124,90.125,0.44722222222222285,0.8027777777777771,0.8000000000000114,0.5590277777777706,50.0,0
125,90.92777777777778,0.8027777777777771,0.9027777777777715,0.8000000000000114,1.0034722222222072,50.0,0
126,91.83055555555555,0.9027777777777715,0.75833333333334,0.8000000000000114,1.1284722222221983,91.66666666666667,0
127,92.58888888888889,0.75833333333334,0.7916666666666714,0.8000000000000114,0.9479166666666615,58.333333333333336,0
128,93.38055555555556,0.7916666666666714,0.7722222222222115,0.8000000000000114,0.9895833333333252,58.333333333333336,0
129,94.15277777777777,0.7722222222222115,0.32777777777778283,0.8000000000000114,0.9652777777777506,55.55555555555556,0
130,94.48055555555555,0.32777777777778283,0.5,0.8000000000000114,0.4097222222222227,63.888888888888886,0
131,94.98055555555555,0.5,0.8444444444444485,0.8000000000000114,0.6249999999999911,44.44444444444444,0
132,95.825,0.8444444444444485,0.8222222222222229,0.8000000000000114,1.0555555555555456,50.0,0
133,96.64722222222223,0.8222222222222229,0.3305555555555486,0.8000000000000114,1.027777777777764,52.77777777777778,0
134,96.97777777777777,0.3305555555555486,0.49444444444445423,0.8000000000000114,0.4131944444444299,97.22222222222223,1
135,97.47222222222223,0.49444444444445423,0.74722222222222,0.8000000000000114,0.618055555555559,58.333333333333336,0
136,98.21944444444445,0.74722222222222,0.8388888888888886,0.8000000000000114,0.9340277777777617,52.77777777777778,0
137,99.05833333333334,0.8388888888888886,0.7694444444444457,0.8000000000000114,1.0486111111110958,50.0,0
138,99.82777777777778,0.7694444444444457,0.7944444444444372,0.8000000000000114,0.9618055555555435,52.77777777777778,0
139,100.62222222222222,0.7944444444444372,0.8444444444444485,0.8000000000000114,0.9930555555555324,58.333333333333336,0
140,101.46666666666667,0.8444444444444485,0.8277777777777828,0.8000000000000114,1.0555555555555456,63.888888888888886,0
141,102.29444444444445,0.8277777777777828,0.3305555555555486,0.8000000000000114,1.0347222222222139,52.77777777777778,0
142,102.625,0.3305555555555486,0.49166666666666003,0.8000000000000114,0.4131944444444299,97.22222222222223,1
143,103.11666666666666,0.49166666666666003,0.8138888888888971,0.8000000000000114,0.6145833333333163,50.0,0
144,103.93055555555556,0.8138888888888971,0.8111111111111029,0.8000000000000114,1.017361111111107,58.333333333333336,0
145,104.74166666666666,0.8111111111111029,0.3305555555555628,0.8000000000000114,1.0138888888888642,55.55555555555556,0
146,105.07222222222222,0.3305555555555628,0.4194444444444372,0.8000000000000114,0.41319444444444764,91.66666666666667,0
147,105.49166666666666,0.4194444444444372,0.8361111111111228,0.8000000000000114,0.524305555555539,55.55555555555556,0
148,106.32777777777778,0.8361111111111228,0.8138888888888829,0.8000000000000114,1.0451388888888886,69.44444444444444,0
149,107.14166666666667,0.8138888888888829,0.3305555555555628,0.8000000000000114,1.0173611111110892,52.77777777777778,0
150,107.47222222222223,0.3305555555555628,0.5,0.8000000000000114,0.41319444444444764,50.0,0
151,107.97222222222223,0.5,0.3305555555555486,0.8000000000000114,0.6249999999999911,52.77777777777778,0
152,108.30277777777778,0.3305555555555486,0.4833333333333343,0.8000000000000114,0.4131944444444299,50.0,0
153,108.78611111111111,0.4833333333333343,0.32500000000000284,0.8000000000000114,0.6041666666666593,55.55555555555556,0
154,109.11111111111111,0.32500000000000284,0.50277777777778,0.8000000000000114,0.4062499999999978,77.77777777777777,0
155,109.6138888888889,0.50277777777778,0.8111111111111029,0.8000000000000114,0.6284722222222161,58.333333333333336,0
156,110.425,0.8111111111111029,0.3305555555555628,0.8000000000000114,1.0138888888888642,58.333333333333336,0
157,110.75555555555556,0.3305555555555628,0.4583333333333286,0.8000000000000114,0.41319444444444764,94.44444444444444,0
158,111.21388888888889,0.4583333333333286,0.7361111111111143,0.8000000000000114,0.5729166666666526,61.111111111111114,0
159,111.95,0.7361111111111143,0.8499999999999943,0.8000000000000114,0.9201388888888797,47.22222222222222,0
160,112.8,0.8499999999999943,0.8388888888888886,0.8000000000000114,1.0624999999999778,58.333333333333336,0
161,113.63888888888889,0.8388888888888886,0.8277777777777828,0.8000000000000114,1.0486111111110958,61.111111111111114,0
162,114.46666666666667,0.8277777777777828,0.8361111111111086,0.8000000000000114,1.0347222222222139,50.0,0
163,115.30277777777778,0.8361111111111086,0.8083333333333371,0.8000000000000114,1.0451388888888709,50.0,0
164,116.11111111111111,0.8083333333333371,0.8138888888888829,0.8000000000000114,1.010416666666657,50.0,0
165,116.925,0.8138888888888829,0.23888888888889426,0.8000000000000114,1.0173611111110892,58.333333333333336,0
166,117.16388888888889,0.23888888888889426,0.5333333333333314,0.8000000000000114,0.2986111111111136,58.333333333333336,0
167,117.69722222222222,0.5333333333333314,0.30555555555555713,0.8000000000000114,0.6666666666666549,47.22222222222222,0
168,118.00277777777778,0.30555555555555713,0.46666666666666856,0.8000000000000114,0.381944444444441,36.111111111111114,0
169,118.46944444444445,0.46666666666666856,0.8416666666666686,0.8000000000000114,0.5833333333333274,63.888888888888886,0
170,119.31111111111112,0.8416666666666686,0.8111111111111029,0.8000000000000114,1.0520833333333208,61.111111111111114,0
171,120.12222222222222,0.8111111111111029,0.86944444444444,0.8000000000000114,1.0138888888888642,52.77777777777778,0
172,120.99166666666666,0.86944444444444,0.7944444444444514,0.8000000000000114,1.0868055555555345,66.66666666666667,0
173,121.78611111111111,0.7944444444444514,0.8166666666666629,0.8000000000000114,0.9930555555555501,55.55555555555556,0
174,122.60277777777777,0.8166666666666629,0.25555555555556,0.8000000000000114,1.0208333333333142,69.44444444444444,0
175,122.85833333333333,0.25555555555556,0.5333333333333314,0.8000000000000114,0.3194444444444454,22.22222222222222,0
176,123.39166666666667,0.5333333333333314,0.31944444444444287,0.8000000000000114,0.6666666666666549,63.888888888888886,0
177,123.71111111111111,0.31944444444444287,0.44722222222222285,0.8000000000000114,0.3993055555555479,25.0,0
178,124.15833333333333,0.44722222222222285,0.8416666666666686,0.8000000000000114,0.5590277777777706,69.44444444444444,0
179,125.0,0.8416666666666686,0.8444444444444485,0.8000000000000114,1.0520833333333208,58.333333333333336,0
180,125.84444444444445,0.8444444444444485,0.8166666666666629,0.8000000000000114,1.0555555555555456,52.77777777777778,0
181,126.66111111111111,0.8166666666666629,0.30555555555555713,0.8000000000000114,1.0208333333333142,55.55555555555556,0
182,126.96666666666667,0.30555555555555713,0.5194444444444457,0.8000000000000114,0.381944444444441,50.0,0
183,127.48611111111111,0.5194444444444457,0.30277777777777715,0.8000000000000114,0.6493055555555479,66.66666666666667,0
184,127.78888888888889,0.30277777777777715,0.48888888888888005,0.8000000000000114,0.37847222222221605,52.77777777777778,0
185,128.27777777777777,0.48888888888888005,0.7666666666666799,0.8000000000000114,0.6111111111110914,52.77777777777778,0
186,129.04444444444445,0.7666666666666799,0.7722222222222115,0.8000000000000114,0.9583333333333363,50.0,0
187,129.81666666666666,0.7722222222222115,0.0611111111111029,0.8000000000000114,0.9652777777777506,50.0,0
188,129.87777777777777,0.0611111111111029,0.7722222222222399,0.8000000000000114,0.07638888888887754,50.0,0
189,130.65,0.7722222222222399,0.8444444444444343,0.8000000000000114,0.9652777777777861,36.111111111111114,0
190,131.49444444444444,0.8444444444444343,0.825000000000017,0.8000000000000114,1.0555555555555278,38.888888888888886,0
191,132.31944444444446,0.825000000000017,0.8333333333333144,0.8000000000000114,1.0312500000000067,55.55555555555556,0
192,133.15277777777777,0.8333333333333144,0.8222222222222229,0.8000000000000114,1.041666666666628,50.0,0
193,133.975,0.8222222222222229,0.3166666666666629,0.8000000000000114,1.027777777777764,38.888888888888886,0
194,134.29166666666666,0.3166666666666629,0.49444444444444,0.8000000000000114,0.395833333333323,22.22222222222222,0
195,134.7861111111111,0.49444444444444,0.7861111111111256,0.8000000000000114,0.6180555555555413,61.111111111111114,0
196,135.57222222222222,0.7861111111111256,0.7722222222222115,0.8000000000000114,0.9826388888888931,66.66666666666667,0
197,136.34444444444443,0.7722222222222115,0.8444444444444628,0.8000000000000114,0.9652777777777506,72.22222222222223,0
198,137.1888888888889,0.8444444444444628,0.27777777777777146,0.8000000000000114,1.0555555555555634,58.333333333333336,0
199,137.46666666666667,0.27777777777777146,0.5444444444444514,0.8000000000000114,0.3472222222222094,52.77777777777778,0
200,138.01111111111112,0.5444444444444514,0.6638888888888914,0.8000000000000114,0.6805555555555546,61.111111111111114,0
201,138.675,0.6638888888888914,0.06666666666666288,0.8000000000000114,0.8298611111111025,55.55555555555556,0
202,138.74166666666667,0.06666666666666288,0.8361111111111086,0.8000000000000114,0.08333333333332742,61.111111111111114,0
203,139.57777777777778,0.8361111111111086,0.8583333333333201,0.8000000000000114,1.0451388888888709,58.333333333333336,0
204,140.4361111111111,0.8583333333333201,1.5,0.8000000000000114,1.0729166666666348,58.333333333333336,0
205,141.9361111111111,1.5,0.8194444444444571,0.8000000000000114,1.8749999999999734,50.0,0
206,142.75555555555556,0.8194444444444571,0.8416666666666686,0.8000000000000114,1.0243055555555567,55.55555555555556,0
207,143.59722222222223,0.8416666666666686,0.8222222222222229,0.8000000000000114,1.0520833333333208,52.77777777777778,0
208,144.41944444444445,0.8222222222222229,0.3333333333333144,0.8000000000000114,1.027777777777764,69.44444444444444,0
209,144.75277777777777,0.3333333333333144,0.50555555555556,0.8000000000000114,0.41666666666663704,19.444444444444443,0
210,145.25833333333333,0.50555555555556,0.23611111111111427,0.8000000000000114,0.631944444444441,36.111111111111114,0
211,145.49444444444444,0.23611111111111427,0.575000000000017,0.8000000000000114,0.2951388888888886,52.77777777777778,0
212,146.06944444444446,0.575000000000017,0.799999999999983,0.8000000000000114,0.7187500000000111,72.22222222222223,0
213,146.86944444444444,0.799999999999983,0.7750000000000057,0.8000000000000114,0.9999999999999645,72.22222222222223,0
214,147.64444444444445,0.7750000000000057,0.7833333333333314,0.8000000000000114,0.9687499999999933,69.44444444444444,0
215,148.42777777777778,0.7833333333333314,0.8388888888889028,0.8000000000000114,0.9791666666666504,55.55555555555556,0
216,149.26666666666668,0.8388888888889028,0.29444444444442297,0.8000000000000114,1.0486111111111136,69.44444444444444,0
217,149.5611111111111,0.29444444444442297,0.5333333333333314,0.8000000000000114,0.3680555555555235,33.333333333333336,0
218,150.09444444444443,0.5333333333333314,0.7250000000000227,0.8000000000000114,0.6666666666666549,61.111111111111114,0
219,150.81944444444446,0.7250000000000227,0.799999999999983,0.8000000000000114,0.9062500000000155,52.77777777777778,0
220,151.61944444444444,0.799999999999983,0.8194444444444571,0.8000000000000114,0.9999999999999645,50.0,0
221,152.4388888888889,0.8194444444444571,0.8194444444444287,0.8000000000000114,1.0243055555555567,50.0,0
222,153.25833333333333,0.8194444444444287,0.8083333333333371,0.8000000000000114,1.0243055555555212,50.0,0
223,154.06666666666666,0.8083333333333371,0.7944444444444514,0.8000000000000114,1.010416666666657,77.77777777777777,0
224,154.86111111111111,0.7944444444444514,0.8333333333333428,0.8000000000000114,0.9930555555555501,102.77777777777777,0
225,155.69444444444446,0.8333333333333428,0.8249999999999886,0.8000000000000114,1.0416666666666636,38.888888888888886,0
226,156.51944444444445,0.8249999999999886,0.8194444444444571,0.8000000000000114,1.0312499999999711,52.77777777777778,0
227,157.3388888888889,0.8194444444444571,0.8194444444444287,0.8000000000000114,1.0243055555555567,52.77777777777778,0
228,158.15833333333333,0.8194444444444287,0.8027777777777771,0.8000000000000114,1.0243055555555212,38.888888888888886,0
229,158.9611111111111,0.8027777777777771,0.7638888888888857,0.8000000000000114,1.0034722222222072,72.22222222222223,0
230,159.725,0.7638888888888857,0.8000000000000114,0.8000000000000114,0.9548611111110936,52.77777777777778,0
231,160.525,0.8000000000000114,0.8444444444444343,0.8000000000000114,1.0,52.77777777777778,0
232,161.36944444444444,0.8444444444444343,0.825000000000017,0.8000000000000114,1.0555555555555278,44.44444444444444,0
233,162.19444444444446,0.825000000000017,0.7749999999999773,0.8000000000000114,1.0312500000000067,77.77777777777777,0
234,162.96944444444443,0.7749999999999773,0.7833333333333314,0.8000000000000114,0.9687499999999578,55.55555555555556,0
235,163.75277777777777,0.7833333333333314,0.8777777777777942,0.8000000000000114,0.9791666666666504,58.333333333333336,0
236,164.63055555555556,0.8777777777777942,0.75,0.8000000000000114,1.0972222222222272,61.111111111111114,0
237,165.38055555555556,0.75,0.7750000000000057,0.8000000000000114,0.9374999999999867,36.111111111111114,0
238,166.15555555555557,0.7750000000000057,0.8472222222222001,0.8000000000000114,0.9687499999999933,72.22222222222223,0
239,167.00277777777777,0.8472222222222001,0.8277777777777828,0.8000000000000114,1.059027777777735,66.66666666666667,0
240,167.83055555555555,0.8277777777777828,0.8138888888888971,0.8000000000000114,1.0347222222222139,80.55555555555556,0
241,168.64444444444445,0.8138888888888971,0.8277777777777828,0.8000000000000114,1.017361111111107,72.22222222222223,0
242,169.47222222222223,0.8277777777777828,0.8166666666666629,0.8000000000000114,1.0347222222222139,72.22222222222223,0
243,170.2888888888889,0.8166666666666629,0.32777777777778283,0.8000000000000114,1.0208333333333142,75.0,0
244,170.61666666666667,0.32777777777778283,0.4611111111111086,0.8000000000000114,0.4097222222222227,13.88888888888889,0
245,171.07777777777778,0.4611111111111086,0.73888888888888,0.8000000000000114,0.5763888888888775,83.33333333333333,0
246,171.81666666666666,0.73888888888888,0.7527777777777942,0.8000000000000114,0.923611111111087,63.888888888888886,0
247,172.56944444444446,0.7527777777777942,0.9222222222222172,0.8000000000000114,0.9409722222222294,50.0,0
248,173.49166666666667,0.9222222222222172,0.7777777777777715,0.8000000000000114,1.152777777777755,80.55555555555556,0
249,174.26944444444445,0.7777777777777715,0.8361111111111086,0.8000000000000114,0.9722222222222006,36.111111111111114,0
250,175.10555555555555,0.8361111111111086,0.8166666666666629,0.8000000000000114,1.0451388888888709,77.77777777777777,0
251,175.92222222222222,0.8166666666666629,0.8055555555555713,0.8000000000000114,1.0208333333333142,75.0,0
252,176.7277777777778,0.8055555555555713,0.7805555555555372,0.8000000000000114,1.00694444444445,83.33333333333333,0
253,177.50833333333333,0.7805555555555372,0.7888888888888914,0.8000000000000114,0.9756944444444077,83.33333333333333,0
254,178.29722222222222,0.7888888888888914,0.8305555555555486,0.8000000000000114,0.9861111111111003,77.77777777777777,0
255,179.12777777777777,0.8305555555555486,0.8277777777777828,0.8000000000000114,1.038194444444421,80.55555555555556,0
256,179.95555555555555,0.8277777777777828,0.7583333333333542,0.8000000000000114,1.0347222222222139,80.55555555555556,0
257,180.7138888888889,0.7583333333333542,0.7722222222222115,0.8000000000000114,0.9479166666666793,52.77777777777778,0
258,181.48611111111111,0.7722222222222115,0.8499999999999943,0.8000000000000114,0.9652777777777506,52.77777777777778,0
259,182.3361111111111,0.8499999999999943,0.07777777777778283,0.8000000000000114,1.0624999999999778,52.77777777777778,0
260,182.4138888888889,0.07777777777778283,0.7777777777777715,0.8000000000000114,0.09722222222222715,52.77777777777778,0
261,183.19166666666666,0.7777777777777715,0.7111111111111086,0.8000000000000114,0.9722222222222006,47.22222222222222,0
262,183.90277777777777,0.7111111111111086,0.8361111111111086,0.8000000000000114,0.8888888888888731,36.111111111111114,0
263,184.73888888888888,0.8361111111111086,0.8361111111111086,0.8000000000000114,1.0451388888888709,72.22222222222223,0
264,185.575,0.8361111111111086,0.8055555555555713,0.8000000000000114,1.0451388888888709,72.22222222222223,0
265,186.38055555555556,0.8055555555555713,0.8305555555555486,0.8000000000000114,1.00694444444445,77.77777777777777,0
266,187.2111111111111,0.8305555555555486,0.8249999999999886,0.8000000000000114,1.038194444444421,80.55555555555556,0
267,188.0361111111111,0.8249999999999886,0.7916666666666856,0.8000000000000114,1.0312499999999711,77.77777777777777,0
268,188.82777777777778,0.7916666666666856,0.7805555555555372,0.8000000000000114,0.9895833333333429,80.55555555555556,0
269,189.60833333333332,0.7805555555555372,0.8083333333333371,0.8000000000000114,0.9756944444444077,77.77777777777777,0
270,190.41666666666666,0.8083333333333371,0.825000000000017,0.8000000000000114,1.010416666666657,80.55555555555556,0
271,191.24166666666667,0.825000000000017,0.8222222222222229,0.8000000000000114,1.0312500000000067,80.55555555555556,0
272,192.0638888888889,0.8222222222222229,0.8472222222222001,0.8000000000000114,1.027777777777764,72.22222222222223,0
273,192.9111111111111,0.8472222222222001,0.711111111111137,0.8000000000000114,1.059027777777735,38.888888888888886,0
274,193.62222222222223,0.711111111111137,0.8055555555555429,0.8000000000000114,0.8888888888889086,58.333333333333336,0
275,194.42777777777778,0.8055555555555429,0.7888888888888914,0.8000000000000114,1.0069444444444144,52.77777777777778,0
276,195.21666666666667,0.7888888888888914,0.7888888888888914,0.8000000000000114,0.9861111111111003,61.111111111111114,0
277,196.00555555555556,0.7888888888888914,0.8166666666666629,0.8000000000000114,0.9861111111111003,52.77777777777778,0
278,196.82222222222222,0.8166666666666629,0.8777777777777658,0.8000000000000114,1.0208333333333142,52.77777777777778,0
279,197.7,0.8777777777777658,0.830555555555577,0.8000000000000114,1.0972222222221917,63.888888888888886,0
280,198.53055555555557,0.830555555555577,0.8277777777777544,0.8000000000000114,1.0381944444444566,77.77777777777777,0
281,199.35833333333332,0.8277777777777544,0.8444444444444628,0.8000000000000114,1.0347222222221784,75.0,0
282,200.20277777777778,0.8444444444444628,0.7972222222222172,0.8000000000000114,1.0555555555555634,88.88888888888889,0
283,201.0,0.7972222222222172,0.7638888888888857,0.8000000000000114,0.9965277777777573,55.55555555555556,0
284,201.76388888888889,0.7638888888888857,0.76111111111112,0.8000000000000114,0.9548611111110936,91.66666666666667,0
285,202.525,0.76111111111112,0.8944444444444457,0.8000000000000114,0.9513888888888864,58.333333333333336,0
286,203.41944444444445,0.8944444444444457,0.8249999999999886,0.8000000000000114,1.1180555555555411,97.22222222222223,0
287,204.24444444444444,0.8249999999999886,0.7750000000000057,0.8000000000000114,1.0312499999999711,58.333333333333336,0
288,205.01944444444445,0.7750000000000057,0.8666666666666742,0.8000000000000114,0.9687499999999933,33.333333333333336,0
289,205.88611111111112,0.8666666666666742,0.8055555555555429,0.8000000000000114,1.0833333333333275,86.11111111111111,0
290,206.69166666666666,0.8055555555555429,0.7527777777777942,0.8000000000000114,1.0069444444444144,80.55555555555556,0
291,207.44444444444446,0.7527777777777942,0.7861111111110972,0.8000000000000114,0.9409722222222294,69.44444444444444,0
292,208.23055555555555,0.7861111111110972,0.5388888888888914,0.8000000000000114,0.9826388888888575,66.66666666666667,0
293,208.76944444444445,0.5388888888888914,0.28333333333333144,0.8000000000000114,0.6736111111111047,25.0,0
294,209.05277777777778,0.28333333333333144,0.7861111111111256,0.8000000000000114,0.35416666666665925,52.77777777777778,0
295,209.8388888888889,0.7861111111111256,0.8527777777777601,0.8000000000000114,0.9826388888888931,44.44444444444444,0
296,210.69166666666666,0.8527777777777601,0.825000000000017,0.8000000000000114,1.065972222222185,58.333333333333336,0
297,211.51666666666668,0.825000000000017,0.7833333333333314,0.8000000000000114,1.0312500000000067,61.111111111111114,0
298,212.3,0.7833333333333314,0.7555555555555316,0.8000000000000114,0.9791666666666504,55.55555555555556,0
299,213.05555555555554,0.7555555555555316,0.7444444444444684,0.8000000000000114,0.944444444444401,55.55555555555556,0
300,213.8,0.7444444444444684,0.8027777777777771,0.8000000000000114,0.9305555555555723,52.77777777777778,0
301,214.6027777777778,0.8027777777777771,0.8083333333333087,0.8000000000000114,1.0034722222222072,55.55555555555556,0
302,215.4111111111111,0.8083333333333087,0.8055555555555713,0.8000000000000114,1.0104166666666214,55.55555555555556,0
303,216.21666666666667,0.8055555555555713,0.8194444444444287,0.8000000000000114,1.00694444444445,50.0,0
304,217.0361111111111,0.8194444444444287,0.8111111111111313,0.8000000000000114,1.0243055555555212,50.0,0
305,217.84722222222223,0.8111111111111313,0.7833333333333314,0.8000000000000114,1.0138888888888997,52.77777777777778,0
306,218.63055555555556,0.7833333333333314,0.7666666666666515,0.8000000000000114,0.9791666666666504,50.0,0
307,219.3972222222222,0.7666666666666515,0.7694444444444457,0.8000000000000114,0.9583333333333007,50.0,0
308,220.16666666666666,0.7694444444444457,0.8166666666666629,0.8000000000000114,0.9618055555555435,50.0,0
309,220.98333333333332,0.8166666666666629,0.8083333333333371,0.8000000000000114,1.0208333333333142,52.77777777777778,0
310,221.79166666666666,0.8083333333333371,0.8083333333333371,0.8000000000000114,1.010416666666657,52.77777777777778,0
311,222.6,0.8083333333333371,0.8166666666666629,0.8000000000000114,1.010416666666657,52.77777777777778,0
312,223.41666666666666,0.8166666666666629,0.8083333333333371,0.8000000000000114,1.0208333333333142,55.55555555555556,0
313,224.225,0.8083333333333371,0.7722222222222399,0.8000000000000114,1.010416666666657,52.77777777777778,0
314,224.99722222222223,0.7722222222222399,0.74444444444444,0.8000000000000114,0.9652777777777861,50.0,0
315,225.74166666666667,0.74444444444444,0.794444444444423,0.8000000000000114,0.9305555555555368,50.0,0
316,226.5361111111111,0.794444444444423,0.8111111111111313,0.8000000000000114,0.9930555555555146,52.77777777777778,0
317,227.34722222222223,0.8111111111111313,0.8027777777777771,0.8000000000000114,1.0138888888888997,52.77777777777778,0
318,228.15,0.8027777777777771,0.5250000000000057,0.8000000000000114,1.0034722222222072,52.77777777777778,0
319,228.675,0.5250000000000057,0.86944444444444,0.8000000000000114,0.6562499999999978,105.55555555555556,1
320,229.54444444444445,0.86944444444444,0.8166666666666629,0.8000000000000114,1.0868055555555345,69.44444444444444,0
321,230.36111111111111,0.8166666666666629,0.7722222222222115,0.8000000000000114,1.0208333333333142,69.44444444444444,0
322,231.13333333333333,0.7722222222222115,0.7722222222222399,0.8000000000000114,0.9652777777777506,75.0,0
323,231.90555555555557,0.7722222222222399,0.8333333333333144,0.8000000000000114,0.9652777777777861,72.22222222222223,0
324,232.73888888888888,0.8333333333333144,0.8138888888888971,0.8000000000000114,1.041666666666628,75.0,0
325,233.55277777777778,0.8138888888888971,0.8222222222222229,0.8000000000000114,1.017361111111107,72.22222222222223,0
326,234.375,0.8222222222222229,0.8333333333333428,0.8000000000000114,1.027777777777764,72.22222222222223,0
327,235.20833333333334,0.8333333333333428,0.8333333333333144,0.8000000000000114,1.0416666666666636,69.44444444444444,0
328,236.04166666666666,0.8333333333333144,0.7861111111111256,0.8000000000000114,1.041666666666628,72.22222222222223,0
329,236.82777777777778,0.7861111111111256,0.7694444444444457,0.8000000000000114,0.9826388888888931,72.22222222222223,0
330,237.59722222222223,0.7694444444444457,0.8166666666666629,0.8000000000000114,0.9618055555555435,75.0,0
331,238.4138888888889,0.8166666666666629,0.32777777777778283,0.8000000000000114,1.0208333333333142,72.22222222222223,0
332,238.74166666666667,0.32777777777778283,0.4972222222222058,0.8000000000000114,0.4097222222222227,52.77777777777778,0
333,239.23888888888888,0.4972222222222058,0.32500000000001705,0.8000000000000114,0.6215277777777484,72.22222222222223,0
334,239.5638888888889,0.32500000000001705,0.49444444444444,0.8000000000000114,0.40625000000001554,58.333333333333336,0
335,240.05833333333334,0.49444444444444,0.8305555555555486,0.8000000000000114,0.6180555555555413,72.22222222222223,0
336,240.88888888888889,0.8305555555555486,0.8333333333333428,0.8000000000000114,1.038194444444421,72.22222222222223,0
337,241.72222222222223,0.8333333333333428,0.8055555555555429,0.8000000000000114,1.0416666666666636,72.22222222222223,0
338,242.52777777777777,0.8055555555555429,0.7694444444444457,0.8000000000000114,1.0069444444444144,77.77777777777777,0
339,243.29722222222222,0.7694444444444457,0.7972222222222172,0.8000000000000114,0.9618055555555435,44.44444444444444,0
340,244.09444444444443,0.7972222222222172,0.825000000000017,0.8000000000000114,0.9965277777777573,36.111111111111114,0
341,244.91944444444445,0.825000000000017,0.8166666666666629,0.8000000000000114,1.0312500000000067,33.333333333333336,0
342,245.73611111111111,0.8166666666666629,0.8416666666666686,0.8000000000000114,1.0208333333333142,58.333333333333336,0
343,246.57777777777778,0.8416666666666686,0.88055555555556,0.8000000000000114,1.0520833333333208,61.111111111111114,0
344,247.45833333333334,0.88055555555556,0.8194444444444287,0.8000000000000114,1.1006944444444344,88.88888888888889,0
345,248.27777777777777,0.8194444444444287,0.76111111111112,0.8000000000000114,1.0243055555555212,83.33333333333333,0
346,249.0388888888889,0.76111111111112,0.76111111111112,0.8000000000000114,0.9513888888888864,69.44444444444444,0
347,249.8,0.76111111111112,0.8222222222222229,0.8000000000000114,0.9513888888888864,63.888888888888886,0
348,250.62222222222223,0.8222222222222229,0.7805555555555372,0.8000000000000114,1.027777777777764,58.333333333333336,0
349,251.40277777777777,0.7805555555555372,0.0638888888888971,0.8000000000000114,0.9756944444444077,52.77777777777778,0
350,251.46666666666667,0.0638888888888971,0.7472222222222342,0.8000000000000114,0.07986111111112024,52.77777777777778,0
351,252.2138888888889,0.7472222222222342,0.8277777777777544,0.8000000000000114,0.9340277777777795,52.77777777777778,0
352,253.04166666666666,0.8277777777777544,0.0638888888888971,0.8000000000000114,1.0347222222221784,52.77777777777778,0
353,253.10555555555555,0.0638888888888971,0.8055555555555429,0.8000000000000114,0.07986111111112024,58.333333333333336,0
354,253.9111111111111,0.8055555555555429,0.7916666666666856,0.8000000000000114,1.0069444444444144,50.0,0
355,254.70277777777778,0.7916666666666856,0.7361111111111143,0.8000000000000114,0.9895833333333429,50.0,0
356,255.4388888888889,0.7361111111111143,0.8305555555555486,0.8000000000000114,0.9201388888888797,52.77777777777778,0
357,256.26944444444445,0.8305555555555486,0.6972222222221944,0.8000000000000114,1.038194444444421,52.77777777777778,0
358,256.96666666666664,0.6972222222221944,0.8583333333333485,0.8000000000000114,0.8715277777777306,55.55555555555556,0
359,257.825,0.8583333333333485,0.8388888888889028,0.8000000000000114,1.0729166666666703,50.0,0
360,258.6638888888889,0.8388888888889028,0.8194444444444571,0.8000000000000114,1.0486111111111136,36.111111111111114,0
361,259.48333333333335,0.8194444444444571,0.8222222222221944,0.8000000000000114,1.0243055555555567,66.66666666666667,0
362,260.30555555555554,0.8222222222221944,0.7777777777777715,0.8000000000000114,1.0277777777777284,66.66666666666667,0
363,261.0833333333333,0.7777777777777715,0.7750000000000341,0.8000000000000114,0.9722222222222006,69.44444444444444,0
364,261.85833333333335,0.7750000000000341,0.8222222222221944,0.8000000000000114,0.9687500000000289,75.0,0
365,262.68055555555554,0.8222222222221944,0.8166666666666629,0.8000000000000114,1.0277777777777284,77.77777777777777,0
366,263.4972222222222,0.8166666666666629,0.3194444444444571,0.8000000000000114,1.0208333333333142,80.55555555555556,0
367,263.81666666666666,0.3194444444444571,0.5138888888889142,0.8000000000000114,0.3993055555555657,52.77777777777778,0
368,264.3305555555556,0.5138888888889142,0.8333333333333144,0.8000000000000114,0.6423611111111336,80.55555555555556,0
369,265.1638888888889,0.8333333333333144,0.8444444444444343,0.8000000000000114,1.041666666666628,83.33333333333333,0
370,266.0083333333333,0.8444444444444343,0.7861111111110972,0.8000000000000114,1.0555555555555278,86.11111111111111,0
371,266.7944444444444,0.7861111111110972,0.7694444444444457,0.8000000000000114,0.9826388888888575,83.33333333333333,0
372,267.56388888888887,0.7694444444444457,0.3250000000000455,0.8000000000000114,0.9618055555555435,83.33333333333333,0
373,267.8888888888889,0.3250000000000455,0.5,0.8000000000000114,0.40625000000005107,52.77777777777778,0
374,268.3888888888889,0.5,0.8111111111110745,0.8000000000000114,0.6249999999999911,80.55555555555556,0
375,269.2,0.8111111111110745,0.8083333333333371,0.8000000000000114,1.0138888888888287,83.33333333333333,0
376,270.0083333333333,0.8083333333333371,0.2305555555555543,0.8000000000000114,1.010416666666657,75.0,0
377,270.2388888888889,0.2305555555555543,0.6027777777777601,0.8000000000000114,0.28819444444443876,97.22222222222223,1
378,270.84166666666664,0.6027777777777601,0.8361111111111654,0.8000000000000114,0.7534722222221895,75.0,0
379,271.6777777777778,0.8361111111111654,0.7999999999999545,0.8000000000000114,1.045138888888942,75.0,0
380,272.47777777777776,0.7999999999999545,0.7694444444444457,0.8000000000000114,0.999999999999929,75.0,0
381,273.2472222222222,0.7694444444444457,0.8055555555555998,0.8000000000000114,0.9618055555555435,80.55555555555556,0
382,274.0527777777778,0.8055555555555998,0.3333333333333144,0.8000000000000114,1.0069444444444855,75.0,0
383,274.3861111111111,0.3333333333333144,0.3694444444444116,0.8000000000000114,0.41666666666663704,88.88888888888889,0
384,274.75555555555553,0.3694444444444116,0.4416666666666629,0.8000000000000114,0.46180555555550795,19.444444444444443,0
385,275.1972222222222,0.4416666666666629,0.2388888888889369,0.8000000000000114,0.5520833333333207,22.22222222222222,0
386,275.43611111111113,0.2388888888889369,0.25,0.8000000000000114,0.2986111111111669,36.111111111111114,0
387,275.68611111111113,0.25,0.8444444444444343,0.8000000000000114,0.31249999999999556,72.22222222222223,0
388,276.53055555555557,0.8444444444444343,0.8361111111111086,0.8000000000000114,1.0555555555555278,80.55555555555556,0
389,277.3666666666667,0.8361111111111086,0.7333333333333485,0.8000000000000114,1.0451388888888709,69.44444444444444,0
390,278.1,0.7333333333333485,0.6472222222221831,0.8000000000000114,0.9166666666666726,55.55555555555556,0
391,278.7472222222222,0.6472222222221831,0.7638888888889142,0.8000000000000114,0.8090277777777173,52.77777777777778,0
392,279.5111111111111,0.7638888888889142,0.7749999999999773,0.8000000000000114,0.9548611111111291,55.55555555555556,0
393,280.2861111111111,0.7749999999999773,0.7888888888888914,0.8000000000000114,0.9687499999999578,52.77777777777778,0
394,281.075,0.7888888888888914,0.8083333333333371,0.8000000000000114,0.9861111111111003,52.77777777777778,0
395,281.8833333333333,0.8083333333333371,0.8000000000000114,0.8000000000000114,1.010416666666657,52.77777777777778,0
396,282.68333333333334,0.8000000000000114,0.8222222222221944,0.8000000000000114,1.0,52.77777777777778,0
397,283.50555555555553,0.8222222222221944,0.7944444444444798,0.8000000000000114,1.0277777777777284,52.77777777777778,0
398,284.3,0.7944444444444798,0.7444444444444116,0.8000000000000114,0.9930555555555857,47.22222222222222,0
399,285.0444444444444,0.7444444444444116,0.7694444444444457,0.8000000000000114,0.9305555555555013,47.22222222222222,0
400,285.81388888888887,0.7694444444444457,0.7888888888888914,0.8000000000000114,0.9618055555555435,55.55555555555556,0
401,286.60277777777776,0.7888888888888914,0.7944444444444798,0.8000000000000114,0.9861111111111003,52.77777777777778,0
402,287.39722222222224,0.7944444444444798,0.7999999999999545,0.8000000000000114,0.9930555555555857,47.22222222222222,0
403,288.1972222222222,0.7999999999999545,0.8083333333333371,0.8000000000000114,0.999999999999929,52.77777777777778,0
404,289.00555555555553,0.8083333333333371,0.5527777777778056,0.8000000000000114,1.010416666666657,52.77777777777778,0
405,289.55833333333334,0.5527777777778056,1.0027777777777942,0.8000000000000114,0.6909722222222472,25.0,0
406,290.56111111111113,1.0027777777777942,0.7749999999999773,0.8000000000000114,1.253472222222225,44.44444444444444,0
407,291.3361111111111,0.7749999999999773,0.8083333333333371,0.8000000000000114,0.9687499999999578,47.22222222222222,0
408,292.14444444444445,0.8083333333333371,0.7694444444444457,0.8000000000000114,1.010416666666657,61.111111111111114,0
409,292.9138888888889,0.7694444444444457,0.8083333333333371,0.8000000000000114,0.9618055555555435,52.77777777777778,0
410,293.72222222222223,0.8083333333333371,0.830555555555577,0.8000000000000114,1.010416666666657,47.22222222222222,0
411,294.5527777777778,0.830555555555577,0.7749999999999773,0.8000000000000114,1.0381944444444566,52.77777777777778,0
412,295.3277777777778,0.7749999999999773,0.8500000000000227,0.8000000000000114,0.9687499999999578,50.0,0
413,296.1777777777778,0.8500000000000227,0.7611111111110631,0.8000000000000114,1.0625000000000133,61.111111111111114,0
414,296.93888888888887,0.7611111111110631,0.7694444444444457,0.8000000000000114,0.9513888888888153,63.888888888888886,0
415,297.7083333333333,0.7694444444444457,0.7944444444444798,0.8000000000000114,0.9618055555555435,52.77777777777778,0
416,298.5027777777778,0.7944444444444798,0.8083333333333371,0.8000000000000114,0.9930555555555857,61.111111111111114,0
417,299.31111111111113,0.8083333333333371,0.6638888888888914,0.8000000000000114,1.010416666666657,63.888888888888886,0
418,299.975,0.6638888888888914,0.21388888888884594,0.8000000000000114,0.8298611111111025,38.888888888888886,0
419,300.18888888888887,0.21388888888884594,0.8166666666666629,0.8000000000000114,0.26736111111105365,55.55555555555556,0
420,301.00555555555553,0.8166666666666629,0.8138888888889255,0.8000000000000114,1.0208333333333142,66.66666666666667,0
421,301.81944444444446,0.8138888888889255,0.8027777777777487,0.8000000000000114,1.0173611111111425,55.55555555555556,0
422,302.6222222222222,0.8027777777777487,0.7722222222222399,0.8000000000000114,1.0034722222221717,55.55555555555556,0
423,303.39444444444445,0.7722222222222399,0.8166666666666629,0.8000000000000114,0.9652777777777861,61.111111111111114,0
424,304.2111111111111,0.8166666666666629,0.7833333333333599,0.8000000000000114,1.0208333333333142,58.333333333333336,0
425,304.99444444444447,0.7833333333333599,0.06944444444440023,0.8000000000000114,0.979166666666686,58.333333333333336,0
426,305.06388888888887,0.06944444444440023,0.7527777777777942,0.8000000000000114,0.08680555555549906,61.111111111111114,0
427,305.81666666666666,0.7527777777777942,0.09722222222222854,0.8000000000000114,0.9409722222222294,55.55555555555556,0
428,305.9138888888889,0.09722222222222854,0.5749999999999886,0.8000000000000114,0.12152777777778395,58.333333333333336,0
429,306.4888888888889,0.5749999999999886,1.01111111111112,0.8000000000000114,0.7187499999999756,25.0,0
430,307.5,1.01111111111112,0.7972222222222172,0.8000000000000114,1.263888888888882,55.55555555555556,0
431,308.2972222222222,0.7972222222222172,0.10833333333334849,0.8000000000000114,0.9965277777777573,61.111111111111114,0
432,308.40555555555557,0.10833333333334849,0.48611111111108585,0.8000000000000114,0.1354166666666837,61.111111111111114,0
433,308.89166666666665,0.48611111111108585,0.9805555555555543,0.8000000000000114,0.6076388888888486,22.22222222222222,0
434,309.8722222222222,0.9805555555555543,0.125,0.8000000000000114,1.2256944444444255,55.55555555555556,0
435,309.9972222222222,0.125,0.6777777777778056,0.8000000000000114,0.15624999999999778,50.0,0
436,310.675,0.6777777777778056,0.1194444444444116,0.8000000000000114,0.847222222222245,63.888888888888886,0
437,310.7944444444444,0.1194444444444116,0.5388888888888914,0.8000000000000114,0.1493055555555124,66.66666666666667,0
438,311.3333333333333,0.5388888888888914,0.45833333333337123,0.8000000000000114,0.6736111111111047,22.22222222222222,0
439,311.7916666666667,0.45833333333337123,0.39999999999997726,0.8000000000000114,0.5729166666667059,47.22222222222222,0
440,312.19166666666666,0.39999999999997726,1.0194444444444457,0.8000000000000114,0.4999999999999645,22.22222222222222,0
441,313.2111111111111,1.0194444444444457,0.5,0.8000000000000114,1.274305555555539,47.22222222222222,0
442,313.7111111111111,0.5,0.3111111111111313,0.8000000000000114,0.6249999999999911,19.444444444444443,0
443,314.02222222222224,0.3111111111111313,0.7777777777777715,0.8000000000000114,0.3888888888889086,47.22222222222222,0
444,314.8,0.7777777777777715,0.75,0.8000000000000114,0.9722222222222006,58.333333333333336,0
445,315.55,0.75,0.8611111111110858,0.8000000000000114,0.9374999999999867,47.22222222222222,0
446,316.4111111111111,0.8611111111110858,0.8000000000000114,0.8000000000000114,1.076388888888842,52.77777777777778,0
447,317.2111111111111,0.8000000000000114,0.8555555555555543,0.8000000000000114,1.0,55.55555555555556,0
448,318.06666666666666,0.8555555555555543,0.8666666666666742,0.8000000000000114,1.0694444444444278,77.77777777777777,0
449,318.93333333333334,0.8666666666666742,0.48611111111108585,0.8000000000000114,1.0833333333333275,61.111111111111114,0
450,319.4194444444444,0.48611111111108585,0.3611111111111427,0.8000000000000114,0.6076388888888486,22.22222222222222,0
451,319.78055555555557,0.3611111111111427,0.7916666666666288,0.8000000000000114,0.4513888888889219,88.88888888888889,0
452,320.5722222222222,0.7916666666666288,0.6972222222222513,0.8000000000000114,0.9895833333332719,58.333333333333336,0
453,321.26944444444445,0.6972222222222513,0.8277777777777828,0.8000000000000114,0.8715277777778017,27.77777777777778,0
454,322.09722222222223,0.8277777777777828,0.4777777777777601,0.8000000000000114,1.0347222222222139,58.333333333333336,0
455,322.575,0.4777777777777601,0.32777777777778283,0.8000000000000114,0.5972222222221917,33.333333333333336,0
456,322.90277777777777,0.32777777777778283,0.8055555555555429,0.8000000000000114,0.4097222222222227,52.77777777777778,0
457,323.7083333333333,0.8055555555555429,0.8361111111111086,0.8000000000000114,1.0069444444444144,52.77777777777778,0
458,324.5444444444444,0.8361111111111086,0.2944444444444798,0.8000000000000114,1.0451388888888709,58.333333333333336,0
459,324.8388888888889,0.2944444444444798,0.5472222222222172,0.8000000000000114,0.36805555555559455,47.22222222222222,0
460,325.3861111111111,0.5472222222222172,0.8138888888888687,0.8000000000000114,0.6840277777777617,61.111111111111114,0
461,326.2,0.8138888888888687,0.7722222222222399,0.8000000000000114,1.0173611111110714,50.0,0
462,326.97222222222223,0.7722222222222399,0.8000000000000114,0.8000000000000114,0.9652777777777861,36.111111111111114,0
463,327.77222222222224,0.8000000000000114,0.5249999999999773,0.8000000000000114,1.0,63.888888888888886,0
464,328.2972222222222,0.5249999999999773,0.591666666666697,0.8000000000000114,0.6562499999999623,27.77777777777778,0
465,328.8888888888889,0.591666666666697,0.5,0.8000000000000114,0.7395833333333607,38.888888888888886,0
466,329.3888888888889,0.5,0.8416666666666401,0.8000000000000114,0.6249999999999911,58.333333333333336,0
467,330.23055555555555,0.8416666666666401,0.8333333333333144,0.8000000000000114,1.0520833333332853,63.888888888888886,0
468,331.06388888888887,0.8333333333333144,0.3138888888889255,0.8000000000000114,1.041666666666628,52.77777777777778,0
469,331.3777777777778,0.3138888888889255,0.5222222222221831,0.8000000000000114,0.39236111111115135,75.0,0
470,331.9,0.5222222222221831,0.7722222222222399,0.8000000000000114,0.6527777777777195,61.111111111111114,0
471,332.6722222222222,0.7722222222222399,0.7861111111110972,0.8000000000000114,0.9652777777777861,61.111111111111114,0
472,333.4583333333333,0.7861111111110972,0.8166666666666629,0.8000000000000114,0.9826388888888575,72.22222222222223,0
473,334.275,0.8166666666666629,0.7944444444444798,0.8000000000000114,1.0208333333333142,55.55555555555556,0
474,335.06944444444446,0.7944444444444798,0.8277777777777828,0.8000000000000114,0.9930555555555857,55.55555555555556,0
475,335.89722222222224,0.8277777777777828,0.8416666666666401,0.8000000000000114,1.0347222222222139,50.0,0
476,336.7388888888889,0.8416666666666401,0.841666666666697,0.8000000000000114,1.0520833333332853,38.888888888888886,0
477,337.5805555555556,0.841666666666697,0.794444444444423,0.8000000000000114,1.0520833333333564,80.55555555555556,0
478,338.375,0.794444444444423,0.7666666666666515,0.8000000000000114,0.9930555555555146,69.44444444444444,0
479,339.14166666666665,0.7666666666666515,0.8166666666666629,0.8000000000000114,0.9583333333333007,63.888888888888886,0
480,339.9583333333333,0.8166666666666629,0.8055555555555998,0.8000000000000114,1.0208333333333142,52.77777777777778,0
481,340.7638888888889,0.8055555555555998,0.8027777777777487,0.8000000000000114,1.0069444444444855,66.66666666666667,0
482,341.56666666666666,0.8027777777777487,0.8277777777777828,0.8000000000000114,1.0034722222221717,55.55555555555556,0
483,342.39444444444445,0.8277777777777828,0.8527777777777601,0.8000000000000114,1.0347222222222139,72.22222222222223,0
484,343.2472222222222,0.8527777777777601,0.29722222222221717,0.8000000000000114,1.065972222222185,55.55555555555556,0
485,343.5444444444444,0.29722222222221717,0.5222222222222399,0.8000000000000114,0.3715277777777662,97.22222222222223,1
486,344.06666666666666,0.5222222222222399,0.7777777777777715,0.8000000000000114,0.6527777777777906,55.55555555555556,0
487,344.84444444444443,0.7777777777777715,0.8055555555555429,0.8000000000000114,0.9722222222222006,55.55555555555556,0
488,345.65,0.8055555555555429,0.3250000000000455,0.8000000000000114,1.0069444444444144,52.77777777777778,0
489,345.975,0.3250000000000455,0.4722222222221717,0.8000000000000114,0.40625000000005107,41.666666666666664,0
490,346.4472222222222,0.4722222222221717,0.8055555555555998,0.8000000000000114,0.5902777777777062,55.55555555555556,0
491,347.2527777777778,0.8055555555555998,0.8388888888888459,0.8000000000000114,1.0069444444444855,52.77777777777778,0
492,348.09166666666664,0.8388888888888459,0.33055555555557703,0.8000000000000114,1.0486111111110425,52.77777777777778,0
493,348.4222222222222,0.33055555555557703,0.5055555555555884,0.8000000000000114,0.4131944444444654,86.11111111111111,0
494,348.9277777777778,0.5055555555555884,0.8416666666666401,0.8000000000000114,0.6319444444444765,61.111111111111114,0
495,349.76944444444445,0.8416666666666401,0.7805555555555657,0.8000000000000114,1.0520833333332853,58.333333333333336,0
496,350.55,0.7805555555555657,0.7777777777777715,0.8000000000000114,0.9756944444444432,58.333333333333336,0
497,351.3277777777778,0.7777777777777715,0.8166666666666629,0.8000000000000114,0.9722222222222006,55.55555555555556,0
498,352.14444444444445,0.8166666666666629,0.794444444444423,0.8000000000000114,1.0208333333333142,61.111111111111114,0
499,352.93888888888887,0.794444444444423,0.8194444444444571,0.8000000000000114,0.9930555555555146,58.333333333333336,0
500,353.7583333333333,0.8194444444444571,0.841666666666697,0.8000000000000114,1.0243055555555567,69.44444444444444,0
501,354.6,0.841666666666697,0.8527777777777601,0.8000000000000114,1.0520833333333564,77.77777777777777,0
502,355.4527777777778,0.8527777777777601,0.3333333333333144,0.8000000000000114,1.065972222222185,63.888888888888886,0
503,355.7861111111111,0.3333333333333144,0.466666666666697,0.8000000000000114,0.41666666666663704,52.77777777777778,0
504,356.2527777777778,0.466666666666697,0.7694444444444457,0.8000000000000114,0.5833333333333629,66.66666666666667,0
505,357.02222222222224,0.7694444444444457,0.8611111111110858,0.8000000000000114,0.9618055555555435,61.111111111111114,0
506,357.8833333333333,0.8611111111110858,0.7444444444444684,0.8000000000000114,1.076388888888842,77.77777777777777,0
507,358.6277777777778,0.7444444444444684,0.7583333333333258,0.8000000000000114,0.9305555555555723,52.77777777777778,0
508,359.3861111111111,0.7583333333333258,0.7972222222222172,0.8000000000000114,0.9479166666666438,55.55555555555556,0
509,360.18333333333334,0.7972222222222172,0.7888888888888914,0.8000000000000114,0.9965277777777573,52.77777777777778,0
510,360.97222222222223,0.7888888888888914,0.794444444444423,0.8000000000000114,0.9861111111111003,52.77777777777778,0
511,361.76666666666665,0.794444444444423,0.73888888888888,0.8000000000000114,0.9930555555555146,50.0,0
512,362.50555555555553,0.73888888888888,0.7444444444444684,0.8000000000000114,0.923611111111087,47.22222222222222,0
513,363.25,0.7444444444444684,0.794444444444423,0.8000000000000114,0.9305555555555723,50.0,0
514,364.0444444444444,0.794444444444423,0.76111111111112,0.8000000000000114,0.9930555555555146,50.0,0
515,364.80555555555554,0.76111111111112,0.7805555555555657,0.8000000000000114,0.9513888888888864,52.77777777777778,0
516,365.5861111111111,0.7805555555555657,0.8055555555555429,0.8000000000000114,0.9756944444444432,52.77777777777778,0
517,366.39166666666665,0.8055555555555429,0.8333333333333712,0.8000000000000114,1.0069444444444144,52.77777777777778,0
518,367.225,0.8333333333333712,0.794444444444423,0.8000000000000114,1.0416666666666992,52.77777777777778,0
519,368.01944444444445,0.794444444444423,0.76111111111112,0.8000000000000114,0.9930555555555146,50.0,0
520,368.78055555555557,0.76111111111112,0.794444444444423,0.8000000000000114,0.9513888888888864,50.0,0
521,369.575,0.794444444444423,0.7972222222222172,0.8000000000000114,0.9930555555555146,52.77777777777778,0
522,370.3722222222222,0.7972222222222172,0.8000000000000114,0.8000000000000114,0.9965277777777573,52.77777777777778,0
523,371.1722222222222,0.8000000000000114,0.8222222222222513,0.8000000000000114,1.0,66.66666666666667,0
524,371.99444444444447,0.8222222222222513,0.8333333333333144,0.8000000000000114,1.0277777777777994,52.77777777777778,0
525,372.8277777777778,0.8333333333333144,0.8583333333333485,0.8000000000000114,1.041666666666628,55.55555555555556,0
526,373.68611111111113,0.8583333333333485,0.7777777777777715,0.8000000000000114,1.0729166666666703,55.55555555555556,0
527,374.4638888888889,0.7777777777777715,0.7777777777777715,0.8000000000000114,0.9722222222222006,55.55555555555556,0
528,375.2416666666667,0.7777777777777715,0.8333333333333144,0.8000000000000114,0.9722222222222006,58.333333333333336,0
529,376.075,0.8333333333333144,0.7722222222222399,0.8000000000000114,1.041666666666628,52.77777777777778,0
530,376.84722222222223,0.7722222222222399,0.06388888888886868,0.8000000000000114,0.9652777777777861,61.111111111111114,0
531,376.9111111111111,0.06388888888886868,0.7583333333333258,0.8000000000000114,0.07986111111108471,61.111111111111114,0
532,377.6694444444444,0.7583333333333258,0.8972222222222399,0.8000000000000114,0.9479166666666438,72.22222222222223,0
533,378.56666666666666,0.8972222222222399,0.8388888888889028,0.8000000000000114,1.121527777777784,80.55555555555556,0
534,379.40555555555557,0.8388888888889028,0.8166666666666629,0.8000000000000114,1.0486111111111136,72.22222222222223,0
535,380.22222222222223,0.8166666666666629,0.7749999999999773,0.8000000000000114,1.0208333333333142,86.11111111111111,0
536,380.9972222222222,0.7749999999999773,0.76111111111112,0.8000000000000114,0.9687499999999578,88.88888888888889,0
537,381.7583333333333,0.76111111111112,0.7916666666666856,0.8000000000000114,0.9513888888888864,52.77777777777778,0
538,382.55,0.7916666666666856,0.8027777777777487,0.8000000000000114,0.9895833333333429,113.88888888888889,0
539,383.35277777777776,0.8027777777777487,0.830555555555577,0.8000000000000114,1.0034722222221717,30.555555555555557,0
540,384.18333333333334,0.830555555555577,0.8472222222222285,0.8000000000000114,1.0381944444444566,75.0,0
541,385.03055555555557,0.8472222222222285,0.8277777777777828,0.8000000000000114,1.0590277777777706,83.33333333333333,0
542,385.85833333333335,0.8277777777777828,0.7777777777777715,0.8000000000000114,1.0347222222222139,66.66666666666667,0
543,386.6361111111111,0.7777777777777715,0.8000000000000114,0.8000000000000114,0.9722222222222006,75.0,0
544,387.43611111111113,0.8000000000000114,0.8055555555555429,0.8000000000000114,1.0,80.55555555555556,0
545,388.2416666666667,0.8055555555555429,0.794444444444423,0.8000000000000114,1.0069444444444144,61.111111111111114,0
546,389.0361111111111,0.794444444444423,0.8388888888889028,0.8000000000000114,0.9930555555555146,77.77777777777777,0
547,389.875,0.8388888888889028,0.8361111111111086,0.8000000000000114,1.0486111111111136,77.77777777777777,0
548,390.7111111111111,0.8361111111111086,0.8472222222222285,0.8000000000000114,1.0451388888888709,58.333333333333336,0
549,391.55833333333334,0.8472222222222285,0.8555555555555543,0.8000000000000114,1.0590277777777706,69.44444444444444,0
550,392.4138888888889,0.8555555555555543,0.7694444444444457,0.8000000000000114,1.0694444444444278,105.55555555555556,0
551,393.18333333333334,0.7694444444444457,0.794444444444423,0.8000000000000114,0.9618055555555435,97.22222222222223,0
552,393.97777777777776,0.794444444444423,0.7805555555555657,0.8000000000000114,0.9930555555555146,86.11111111111111,0
553,394.7583333333333,0.7805555555555657,0.7916666666666856,0.8000000000000114,0.9756944444444432,77.77777777777777,0
554,395.55,0.7916666666666856,0.8249999999999886,0.8000000000000114,0.9895833333333429,63.888888888888886,0
555,396.375,0.8249999999999886,0.8555555555555543,0.8000000000000114,1.0312499999999711,58.333333333333336,0
556,397.23055555555555,0.8555555555555543,0.8027777777778056,0.8000000000000114,1.0694444444444278,55.55555555555556,0
557,398.03333333333336,0.8027777777778056,0.7472222222222058,0.8000000000000114,1.0034722222222427,55.55555555555556,0
558,398.78055555555557,0.7472222222222058,0.8194444444444571,0.8000000000000114,0.9340277777777439,66.66666666666667,0
559,399.6,0.8194444444444571,0.794444444444423,0.8000000000000114,1.0243055555555567,58.333333333333336,0
560,400.39444444444445,0.794444444444423,0.8083333333333371,0.8000000000000114,0.9930555555555146,61.111111111111114,0
561,401.2027777777778,0.8083333333333371,0.8361111111111086,0.8000000000000114,1.010416666666657,55.55555555555556,0
562,402.0388888888889,0.8361111111111086,0.8388888888889028,0.8000000000000114,1.0451388888888709,58.333333333333336,0
563,402.8777777777778,0.8388888888889028,0.8666666666666742,0.8000000000000114,1.0486111111111136,55.55555555555556,0
564,403.74444444444447,0.8666666666666742,0.7972222222222172,0.8000000000000114,1.0833333333333275,63.888888888888886,0
565,404.5416666666667,0.7972222222222172,0.7638888888888573,0.8000000000000114,0.9965277777777573,75.0,0
566,405.30555555555554,0.7638888888888573,0.7972222222222172,0.8000000000000114,0.9548611111110581,111.11111111111111,0
567,406.10277777777776,0.7972222222222172,0.7972222222222172,0.8000000000000114,0.9965277777777573,27.77777777777778,0
568,406.9,0.7972222222222172,0.8333333333333712,0.8000000000000114,0.9965277777777573,66.66666666666667,0
569,407.73333333333335,0.8333333333333712,0.8333333333333144,0.8000000000000114,1.0416666666666992,58.333333333333336,0
570,408.56666666666666,0.8333333333333144,0.8527777777777601,0.8000000000000114,1.041666666666628,61.111111111111114,0
571,409.4194444444444,0.8527777777777601,0.32777777777778283,0.8000000000000114,1.065972222222185,69.44444444444444,0
572,409.7472222222222,0.32777777777778283,0.4638888888889028,0.8000000000000114,0.4097222222222227,44.44444444444444,0
573,410.2111111111111,0.4638888888889028,0.7833333333333599,0.8000000000000114,0.5798611111111203,66.66666666666667,0
574,410.99444444444447,0.7833333333333599,0.327777777777726,0.8000000000000114,0.979166666666686,63.888888888888886,0
575,411.3222222222222,0.327777777777726,0.48055555555561114,0.8000000000000114,0.40972222222215166,55.55555555555556,0
576,411.8027777777778,0.48055555555561114,0.783333333333303,0.8000000000000114,0.6006944444445054,63.888888888888886,0
577,412.5861111111111,0.783333333333303,0.8138888888888687,0.8000000000000114,0.9791666666666149,63.888888888888886,0
578,413.4,0.8138888888888687,0.841666666666697,0.8000000000000114,1.0173611111110714,75.0,0
579,414.2416666666667,0.841666666666697,0.8555555555555543,0.8000000000000114,1.0520833333333564,72.22222222222223,0
580,415.09722222222223,0.8555555555555543,0.8055555555555429,0.8000000000000114,1.0694444444444278,66.66666666666667,0
581,415.90277777777777,0.8055555555555429,0.7722222222222399,0.8000000000000114,1.0069444444444144,61.111111111111114,0
582,416.675,0.7722222222222399,0.32777777777778283,0.8000000000000114,0.9652777777777861,63.888888888888886,0
583,417.0027777777778,0.32777777777778283,0.4944444444444116,0.8000000000000114,0.4097222222222227,47.22222222222222,0
584,417.4972222222222,0.4944444444444116,0.7916666666666856,0.8000000000000114,0.6180555555555057,61.111111111111114,0
585,418.2888888888889,0.7916666666666856,0.7861111111110972,0.8000000000000114,0.9895833333333429,61.111111111111114,0
586,419.075,0.7861111111110972,0.32777777777778283,0.8000000000000114,0.9826388888888575,61.111111111111114,0
587,419.40277777777777,0.32777777777778283,0.5,0.8000000000000114,0.4097222222222227,91.66666666666667,0
588,419.90277777777777,0.5,0.8583333333333485,0.8000000000000114,0.6249999999999911,61.111111111111114,0
589,420.7611111111111,0.8583333333333485,0.7361111111110858,0.8000000000000114,1.0729166666666703,63.888888888888886,0
590,421.4972222222222,0.7361111111110858,0.7083333333333712,0.8000000000000114,0.9201388888888442,55.55555555555556,0
591,422.2055555555556,0.7083333333333712,0.8083333333333371,0.8000000000000114,0.8854166666667015,47.22222222222222,0
592,423.0138888888889,0.8083333333333371,0.8083333333332803,0.8000000000000114,1.010416666666657,66.66666666666667,0
593,423.8222222222222,0.8083333333332803,0.7944444444444798,0.8000000000000114,1.010416666666586,58.333333333333336,0
594,424.6166666666667,0.7944444444444798,0.8194444444444571,0.8000000000000114,0.9930555555555857,55.55555555555556,0
595,425.43611111111113,0.8194444444444571,0.8333333333333144,0.8000000000000114,1.0243055555555567,63.888888888888886,0
596,426.26944444444445,0.8333333333333144,0.8555555555555543,0.8000000000000114,1.041666666666628,63.888888888888886,0
597,427.125,0.8555555555555543,0.8249999999999886,0.8000000000000114,1.0694444444444278,58.333333333333336,0
598,427.95,0.8249999999999886,0.7972222222222172,0.8000000000000114,1.0312499999999711,52.77777777777778,0
599,428.7472222222222,0.7972222222222172,0.8166666666666629,0.8000000000000114,0.9965277777777573,66.66666666666667,0
600,429.56388888888887,0.8166666666666629,0.8111111111111313,0.8000000000000114,1.0208333333333142,72.22222222222223,0
601,430.375,0.8111111111111313,0.7416666666666742,0.8000000000000114,1.0138888888888997,91.66666666666667,0
602,431.1166666666667,0.7416666666666742,0.8305555555555202,0.8000000000000114,0.9270833333333296,36.111111111111114,0
603,431.9472222222222,0.8305555555555202,0.8666666666666742,0.8000000000000114,1.0381944444443856,77.77777777777777,0
604,432.81388888888887,0.8666666666666742,0.830555555555577,0.8000000000000114,1.0833333333333275,77.77777777777777,0
605,433.64444444444445,0.830555555555577,0.7749999999999773,0.8000000000000114,1.0381944444444566,77.77777777777777,0
606,434.4194444444444,0.7749999999999773,0.8166666666666629,0.8000000000000114,0.9687499999999578,77.77777777777777,0
607,435.2361111111111,0.8166666666666629,0.7888888888888914,0.8000000000000114,1.0208333333333142,55.55555555555556,0
608,436.025,0.7888888888888914,0.7750000000000341,0.8000000000000114,0.9861111111111003,58.333333333333336,0
609,436.8,0.7750000000000341,0.8249999999999886,0.8000000000000114,0.9687500000000289,66.66666666666667,0
610,437.625,0.8249999999999886,0.29722222222221717,0.8000000000000114,1.0312499999999711,63.888888888888886,0
611,437.9222222222222,0.29722222222221717,0.5472222222222172,0.8000000000000114,0.3715277777777662,91.66666666666667,0
612,438.46944444444443,0.5472222222222172,0.33333333333337123,0.8000000000000114,0.6840277777777617,61.111111111111114,0
613,438.8027777777778,0.33333333333337123,0.5055555555555316,0.8000000000000114,0.4166666666667081,97.22222222222223,1
614,439.30833333333334,0.5055555555555316,0.7972222222222172,0.8000000000000114,0.6319444444444055,63.888888888888886,0
615,440.10555555555555,0.7972222222222172,0.7277777777777601,0.8000000000000114,0.9965277777777573,61.111111111111114,0
616,440.8333333333333,0.7277777777777601,0.7972222222222172,0.8000000000000114,0.9097222222221872,52.77777777777778,0
617,441.63055555555553,0.7972222222222172,0.7777777777778283,0.8000000000000114,0.9965277777777573,50.0,0
618,442.40833333333336,0.7777777777778283,0.8888888888888573,0.8000000000000114,0.9722222222222716,55.55555555555556,0
619,443.2972222222222,0.8888888888888573,0.8055555555555429,0.8000000000000114,1.1111111111110559,77.77777777777777,0
620,444.10277777777776,0.8055555555555429,0.86388888888888,0.8000000000000114,1.0069444444444144,69.44444444444444,0
621,444.96666666666664,0.86388888888888,0.8055555555555998,0.8000000000000114,1.0798611111110847,33.333333333333336,0
622,445.77222222222224,0.8055555555555998,0.7777777777777715,0.8000000000000114,1.0069444444444855,61.111111111111114,0
623,446.55,0.7777777777777715,0.8138888888888687,0.8000000000000114,0.9722222222222006,52.77777777777778,0
624,447.3638888888889,0.8138888888888687,0.7861111111110972,0.8000000000000114,1.0173611111110714,61.111111111111114,0
625,448.15,0.7861111111110972,0.7861111111111541,0.8000000000000114,0.9826388888888575,69.44444444444444,0
626,448.93611111111113,0.7861111111111541,0.8277777777777828,0.8000000000000114,0.9826388888889286,63.888888888888886,0
627,449.7638888888889,0.8277777777777828,0.327777777777726,0.8000000000000114,1.0347222222222139,58.333333333333336,0
628,450.09166666666664,0.327777777777726,0.5305555555555657,0.8000000000000114,0.40972222222215166,97.22222222222223,1
629,450.6222222222222,0.5305555555555657,0.8361111111111086,0.8000000000000114,0.6631944444444476,52.77777777777778,0
630,451.4583333333333,0.8361111111111086,0.7861111111111541,0.8000000000000114,1.0451388888888709,66.66666666666667,0
631,452.24444444444447,0.7861111111111541,0.8083333333333371,0.8000000000000114,0.9826388888889286,61.111111111111114,0
632,453.0527777777778,0.8083333333333371,0.3305555555555202,0.8000000000000114,1.010416666666657,61.111111111111114,0
633,453.3833333333333,0.3305555555555202,0.47222222222222854,0.8000000000000114,0.41319444444439435,75.0,0
634,453.85555555555555,0.47222222222222854,0.32777777777778283,0.8000000000000114,0.5902777777777772,58.333333333333336,0
635,454.18333333333334,0.32777777777778283,0.45277777777778283,0.8000000000000114,0.4097222222222227,102.77777777777777,1
636,454.6361111111111,0.45277777777778283,0.7249999999999659,0.8000000000000114,0.5659722222222205,61.111111111111114,0
637,455.3611111111111,0.7249999999999659,0.8138888888889255,0.8000000000000114,0.9062499999999445,58.333333333333336,0
638,456.175,0.8138888888889255,0.8777777777777942,0.8000000000000114,1.0173611111111425,55.55555555555556,0
639,457.0527777777778,0.8777777777777942,0.8083333333332803,0.8000000000000114,1.0972222222222272,58.333333333333336,0
640,457.8611111111111,0.8083333333332803,0.7916666666666856,0.8000000000000114,1.010416666666586,52.77777777777778,0
641,458.65277777777777,0.7916666666666856,0.830555555555577,0.8000000000000114,0.9895833333333429,55.55555555555556,0
642,459.48333333333335,0.830555555555577,0.8000000000000114,0.8000000000000114,1.0381944444444566,63.888888888888886,0
643,460.28333333333336,0.8000000000000114,0.75,0.8000000000000114,1.0,86.11111111111111,0
644,461.03333333333336,0.75,0.8333333333333144,0.8000000000000114,0.9374999999999867,63.888888888888886,0
645,461.8666666666667,0.8333333333333144,0.8583333333333485,0.8000000000000114,1.041666666666628,27.77777777777778,0
646,462.725,0.8583333333333485,0.8277777777777828,0.8000000000000114,1.0729166666666703,61.111111111111114,0
647,463.5527777777778,0.8277777777777828,0.7805555555555088,0.8000000000000114,1.0347222222222139,63.888888888888886,0
648,464.3333333333333,0.7805555555555088,0.8166666666666629,0.8000000000000114,0.9756944444443721,69.44444444444444,0
649,465.15,0.8166666666666629,0.32777777777778283,0.8000000000000114,1.0208333333333142,72.22222222222223,0
650,465.47777777777776,0.32777777777778283,0.4611111111111086,0.8000000000000114,0.4097222222222227,44.44444444444444,0
651,465.93888888888887,0.4611111111111086,0.7805555555555657,0.8000000000000114,0.5763888888888775,58.333333333333336,0
652,466.71944444444443,0.7805555555555657,0.8166666666666629,0.8000000000000114,0.9756944444444432,55.55555555555556,0
653,467.5361111111111,0.8166666666666629,0.33055555555557703,0.8000000000000114,1.0208333333333142,66.66666666666667,0
654,467.8666666666667,0.33055555555557703,0.5222222222222399,0.8000000000000114,0.4131944444444654,83.33333333333333,0
655,468.3888888888889,0.5222222222222399,0.8361111111111086,0.8000000000000114,0.6527777777777906,66.66666666666667,0
656,469.225,0.8361111111111086,0.32777777777778283,0.8000000000000114,1.0451388888888709,50.0,0
657,469.5527777777778,0.32777777777778283,0.4722222222221717,0.8000000000000114,0.4097222222222227,33.333333333333336,0
658,470.025,0.4722222222221717,0.8000000000000114,0.8000000000000114,0.5902777777777062,55.55555555555556,0
659,470.825,0.8000000000000114,0.3194444444444571,0.8000000000000114,1.0,66.66666666666667,0
660,471.14444444444445,0.3194444444444571,0.4777777777777601,0.8000000000000114,0.3993055555555657,83.33333333333333,0
661,471.6222222222222,0.4777777777777601,0.32777777777778283,0.8000000000000114,0.5972222222221917,61.111111111111114,0
662,471.95,0.32777777777778283,0.45277777777778283,0.8000000000000114,0.4097222222222227,69.44444444444444,0
663,472.40277777777777,0.45277777777778283,0.32777777777778283,0.8000000000000114,0.5659722222222205,58.333333333333336,0
664,472.73055555555555,0.32777777777778283,0.49166666666667425,0.8000000000000114,0.4097222222222227,63.888888888888886,0
665,473.22222222222223,0.49166666666667425,0.32777777777778283,0.8000000000000114,0.614583333333334,58.333333333333336,0
666,473.55,0.32777777777778283,0.41666666666662877,0.8000000000000114,0.4097222222222227,83.33333333333333,0
667,473.96666666666664,0.41666666666662877,0.7861111111111541,0.8000000000000114,0.5208333333332785,58.333333333333336,0
668,474.7527777777778,0.7861111111111541,0.8472222222222285,0.8000000000000114,0.9826388888889286,55.55555555555556,0
669,475.6,0.8472222222222285,0.7888888888888914,0.8000000000000114,1.0590277777777706,58.333333333333336,0
670,476.3888888888889,0.7888888888888914,0.8083333333332803,0.8000000000000114,0.9861111111111003,52.77777777777778,0
671,477.1972222222222,0.8083333333332803,0.7805555555555657,0.8000000000000114,1.010416666666586,55.55555555555556,0
672,477.97777777777776,0.7805555555555657,0.7555555555555884,0.8000000000000114,0.9756944444444432,58.333333333333336,0
673,478.73333333333335,0.7555555555555884,0.8555555555555543,0.8000000000000114,0.9444444444444721,55.55555555555556,0
674,479.5888888888889,0.8555555555555543,0.8611111111110858,0.8000000000000114,1.0694444444444278,58.333333333333336,0
675,480.45,0.8611111111110858,0.8055555555555429,0.8000000000000114,1.076388888888842,58.333333333333336,0
676,481.25555555555553,0.8055555555555429,0.8583333333333485,0.8000000000000114,1.0069444444444144,63.888888888888886,0
677,482.1138888888889,0.8583333333333485,0.8166666666666629,0.8000000000000114,1.0729166666666703,94.44444444444444,0
678,482.93055555555554,0.8166666666666629,0.7305555555555543,0.8000000000000114,1.0208333333333142,91.66666666666667,0
679,483.6611111111111,0.7305555555555543,0.7750000000000341,0.8000000000000114,0.9131944444444299,111.11111111111111,1
680,484.43611111111113,0.7750000000000341,0.8166666666666629,0.8000000000000114,0.9687500000000289,55.55555555555556,0
681,485.2527777777778,0.8166666666666629,0.8388888888888459,0.8000000000000114,1.0208333333333142,63.888888888888886,0
682,486.09166666666664,0.8388888888888459,0.8555555555555543,0.8000000000000114,1.0486111111110425,77.77777777777777,0
683,486.9472222222222,0.8555555555555543,0.8055555555555998,0.8000000000000114,1.0694444444444278,69.44444444444444,0
684,487.7527777777778,0.8055555555555998,0.8000000000000114,0.8000000000000114,1.0069444444444855,52.77777777777778,0
685,488.5527777777778,0.8000000000000114,0.7999999999999545,0.8000000000000114,1.0,61.111111111111114,0
686,489.35277777777776,0.7999999999999545,0.32777777777778283,0.8000000000000114,0.999999999999929,66.66666666666667,0
687,489.68055555555554,0.32777777777778283,0.4472222222222513,0.8000000000000114,0.4097222222222227,66.66666666666667,0
688,490.1277777777778,0.4472222222222513,0.8083333333333371,0.8000000000000114,0.5590277777778061,66.66666666666667,0
689,490.93611111111113,0.8083333333333371,0.32777777777778283,0.8000000000000114,1.010416666666657,55.55555555555556,0
690,491.2638888888889,0.32777777777778283,0.5055555555555316,0.8000000000000114,0.4097222222222227,47.22222222222222,0
691,491.76944444444445,0.5055555555555316,0.3333333333333144,0.8000000000000114,0.6319444444444055,55.55555555555556,0
692,492.10277777777776,0.3333333333333144,0.5250000000000341,0.8000000000000114,0.41666666666663704,80.55555555555556,0
693,492.6277777777778,0.5250000000000341,0.8166666666666629,0.8000000000000114,0.6562500000000333,61.111111111111114,0
694,493.44444444444446,0.8166666666666629,0.7888888888888914,0.8000000000000114,1.0208333333333142,58.333333333333336,0
695,494.23333333333335,0.7888888888888914,0.7249999999999659,0.8000000000000114,0.9861111111111003,63.888888888888886,0
696,494.9583333333333,0.7249999999999659,0.7694444444444457,0.8000000000000114,0.9062499999999445,58.333333333333336,0
697,495.72777777777776,0.7694444444444457,0.7750000000000341,0.8000000000000114,0.9618055555555435,50.0,0
698,496.5027777777778,0.7750000000000341,0.8361111111111086,0.8000000000000114,0.9687500000000289,63.888888888888886,0
699,497.3388888888889,0.8361111111111086,0.8722222222222058,0.8000000000000114,1.0451388888888709,58.333333333333336,0
700,498.2111111111111,0.8722222222222058,0.86388888888888,0.8000000000000114,1.0902777777777417,61.111111111111114,0
701,499.075,0.86388888888888,0.7972222222222172,0.8000000000000114,1.0798611111110847,75.0,0
702,499.8722222222222,0.7972222222222172,0.8444444444444343,0.8000000000000114,0.9965277777777573,80.55555555555556,0
703,500.71666666666664,0.8444444444444343,0.7333333333333485,0.8000000000000114,1.0555555555555278,63.888888888888886,0
704,501.45,0.7333333333333485,0.7694444444444457,0.8000000000000114,0.9166666666666726,55.55555555555556,0
705,502.21944444444443,0.7694444444444457,0.8055555555555429,0.8000000000000114,0.9618055555555435,58.333333333333336,0
706,503.025,0.8055555555555429,0.8361111111111086,0.8000000000000114,1.0069444444444144,61.111111111111114,0
707,503.8611111111111,0.8361111111111086,0.8444444444444912,0.8000000000000114,1.0451388888888709,69.44444444444444,0
708,504.7055555555556,0.8444444444444912,0.8138888888888687,0.8000000000000114,1.0555555555555989,55.55555555555556,0
709,505.51944444444445,0.8138888888888687,0.8055555555555429,0.8000000000000114,1.0173611111110714,63.888888888888886,0
710,506.325,0.8055555555555429,0.7972222222222172,0.8000000000000114,1.0069444444444144,63.888888888888886,0
711,507.1222222222222,0.7972222222222172,0.7750000000000341,0.8000000000000114,0.9965277777777573,61.111111111111114,0
712,507.89722222222224,0.7750000000000341,0.7999999999999545,0.8000000000000114,0.9687500000000289,66.66666666666667,0
713,508.6972222222222,0.7999999999999545,0.33611111111116543,0.8000000000000114,0.999999999999929,61.111111111111114,0
714,509.03333333333336,0.33611111111116543,0.48888888888888005,0.8000000000000114,0.4201388888889508,77.77777777777777,0
715,509.52222222222224,0.48888888888888005,0.32499999999998863,0.8000000000000114,0.6111111111110914,52.77777777777778,0
716,509.84722222222223,0.32499999999998863,0.5388888888888914,0.8000000000000114,0.40624999999998,80.55555555555556,0
717,510.3861111111111,0.5388888888888914,0.3333333333333144,0.8000000000000114,0.6736111111111047,52.77777777777778,0
718,510.71944444444443,0.3333333333333144,0.40833333333335986,0.8000000000000114,0.41666666666663704,69.44444444444444,0
719,511.1277777777778,0.40833333333335986,0.76111111111112,0.8000000000000114,0.5104166666666926,58.333333333333336,0
720,511.8888888888889,0.76111111111112,0.8500000000000227,0.8000000000000114,0.9513888888888864,55.55555555555556,0
721,512.7388888888889,0.8500000000000227,0.7972222222222172,0.8000000000000114,1.0625000000000133,55.55555555555556,0
722,513.5361111111112,0.7972222222222172,0.7916666666666288,0.8000000000000114,0.9965277777777573,55.55555555555556,0
723,514.3277777777778,0.7916666666666288,0.8138888888888687,0.8000000000000114,0.9895833333332719,75.0,0
724,515.1416666666667,0.8138888888888687,0.808333333333394,0.8000000000000114,1.0173611111110714,86.11111111111111,0
725,515.95,0.808333333333394,0.8472222222221717,0.8000000000000114,1.010416666666728,61.111111111111114,0
726,516.7972222222222,0.8472222222221717,0.8138888888888687,0.8000000000000114,1.0590277777776995,36.111111111111114,0
727,517.6111111111111,0.8138888888888687,0.8138888888888687,0.8000000000000114,1.0173611111110714,63.888888888888886,0
728,518.425,0.8138888888888687,0.7916666666667425,0.8000000000000114,1.0173611111110714,69.44444444444444,0
729,519.2166666666667,0.7916666666667425,0.7749999999999773,0.8000000000000114,0.989583333333414,55.55555555555556,0
730,519.9916666666667,0.7749999999999773,0.8055555555555429,0.8000000000000114,0.9687499999999578,77.77777777777777,0
731,520.7972222222222,0.8055555555555429,0.8277777777777828,0.8000000000000114,1.0069444444444144,72.22222222222223,0
732,521.625,0.8277777777777828,0.8555555555556111,0.8000000000000114,1.0347222222222139,63.888888888888886,0
733,522.4805555555556,0.8555555555556111,0.8194444444443434,0.8000000000000114,1.0694444444444988,50.0,0
734,523.3,0.8194444444443434,0.8000000000000682,0.8000000000000114,1.0243055555554146,58.333333333333336,0
735,524.1,0.8000000000000682,0.8083333333332803,0.8000000000000114,1.000000000000071,66.66666666666667,0
736,524.9083333333333,0.8083333333332803,0.7722222222222399,0.8000000000000114,1.010416666666586,61.111111111111114,0
737,525.6805555555555,0.7722222222222399,0.7861111111111541,0.8000000000000114,0.9652777777777861,69.44444444444444,0
738,526.4666666666667,0.7861111111111541,0.3305555555555202,0.8000000000000114,0.9826388888889286,58.333333333333336,0
739,526.7972222222222,0.3305555555555202,0.48055555555561114,0.8000000000000114,0.41319444444439435,88.88888888888889,0
740,527.2777777777778,0.48055555555561114,0.7138888888888459,0.8000000000000114,0.6006944444445054,61.111111111111114,0
741,527.9916666666667,0.7138888888888459,0.8638888888889369,0.8000000000000114,0.8923611111110448,58.333333333333336,0
742,528.8555555555556,0.8638888888889369,0.8472222222221717,0.8000000000000114,1.0798611111111558,61.111111111111114,0
743,529.7027777777778,0.8472222222221717,0.8361111111111086,0.8000000000000114,1.0590277777776995,63.888888888888886,0
744,530.5388888888889,0.8361111111111086,0.8027777777778056,0.8000000000000114,1.0451388888888709,77.77777777777777,0
745,531.3416666666667,0.8027777777778056,0.7888888888888914,0.8000000000000114,1.0034722222222427,88.88888888888889,0
746,532.1305555555556,0.7888888888888914,0.7333333333333485,0.8000000000000114,0.9861111111111003,105.55555555555556,0
747,532.8638888888889,0.7333333333333485,0.8361111111111086,0.8000000000000114,0.9166666666666726,55.55555555555556,0
748,533.7,0.8361111111111086,0.3305555555555202,0.8000000000000114,1.0451388888888709,58.333333333333336,0
749,534.0305555555556,0.3305555555555202,0.5222222222222399,0.8000000000000114,0.41319444444439435,80.55555555555556,0
750,534.5527777777778,0.5222222222222399,0.8138888888888687,0.8000000000000114,0.6527777777777906,63.888888888888886,0
751,535.3666666666667,0.8138888888888687,0.8083333333332803,0.8000000000000114,1.0173611111110714,63.888888888888886,0
752,536.175,0.8083333333332803,0.8111111111111313,0.8000000000000114,1.010416666666586,61.111111111111114,0
753,536.9861111111111,0.8111111111111313,0.7666666666666515,0.8000000000000114,1.0138888888888997,55.55555555555556,0
754,537.7527777777777,0.7666666666666515,0.7944444444444798,0.8000000000000114,0.9583333333333007,58.333333333333336,0
755,538.5472222222222,0.7944444444444798,0.8277777777777828,0.8000000000000114,0.9930555555555857,58.333333333333336,0
756,539.375,0.8277777777777828,0.8638888888889369,0.8000000000000114,1.0347222222222139,61.111111111111114,0
757,540.2388888888889,0.8638888888889369,0.32777777777778283,0.8000000000000114,1.0798611111111558,58.333333333333336,0
758,540.5666666666667,0.32777777777778283,0.49722222222214896,0.8000000000000114,0.4097222222222227,63.888888888888886,0
759,541.0638888888889,0.49722222222214896,0.7361111111110858,0.8000000000000114,0.6215277777776773,66.66666666666667,0
760,541.8,0.7361111111110858,0.8250000000000455,0.8000000000000114,0.9201388888888442,55.55555555555556,0
761,542.625,0.8250000000000455,0.8222222222221944,0.8000000000000114,1.0312500000000422,52.77777777777778,0
762,543.4472222222222,0.8222222222221944,0.8000000000000682,0.8000000000000114,1.0277777777777284,50.0,0
763,544.2472222222223,0.8000000000000682,0.7583333333333258,0.8000000000000114,1.000000000000071,80.55555555555556,0
764,545.0055555555556,0.7583333333333258,0.8527777777777601,0.8000000000000114,0.9479166666666438,36.111111111111114,0
765,545.8583333333333,0.8527777777777601,0.8361111111111086,0.8000000000000114,1.065972222222185,58.333333333333336,0
766,546.6944444444445,0.8361111111111086,0.8083333333332803,0.8000000000000114,1.0451388888888709,63.888888888888886,0
767,547.5027777777777,0.8083333333332803,0.8250000000000455,0.8000000000000114,1.010416666666586,55.55555555555556,0
768,548.3277777777778,0.8250000000000455,0.7944444444444798,0.8000000000000114,1.0312500000000422,55.55555555555556,0
769,549.1222222222223,0.7944444444444798,0.7694444444443889,0.8000000000000114,0.9930555555555857,63.888888888888886,0
770,549.8916666666667,0.7694444444443889,0.8027777777778056,0.8000000000000114,0.9618055555554724,58.333333333333336,0
771,550.6944444444445,0.8027777777778056,0.8277777777777828,0.8000000000000114,1.0034722222222427,55.55555555555556,0
772,551.5222222222222,0.8277777777777828,0.32777777777778283,0.8000000000000114,1.0347222222222139,55.55555555555556,0
773,551.85,0.32777777777778283,0.5249999999999773,0.8000000000000114,0.4097222222222227,100.0,1
774,552.375,0.5249999999999773,0.8277777777777828,0.8000000000000114,0.6562499999999623,58.333333333333336,0
775,553.2027777777778,0.8277777777777828,0.7277777777777601,0.8000000000000114,1.0347222222222139,55.55555555555556,0
776,553.9305555555555,0.7277777777777601,0.8166666666667197,0.8000000000000114,0.9097222222221872,55.55555555555556,0
777,554.7472222222223,0.8166666666667197,0.8083333333332803,0.8000000000000114,1.0208333333333852,63.888888888888886,0
778,555.5555555555555,0.8083333333332803,0.8138888888888687,0.8000000000000114,1.010416666666586,52.77777777777778,0
779,556.3694444444444,0.8138888888888687,0.7694444444445026,0.8000000000000114,1.0173611111110714,83.33333333333333,0
780,557.1388888888889,0.7694444444445026,0.8666666666666742,0.8000000000000114,0.9618055555556145,55.55555555555556,0
781,558.0055555555556,0.8666666666666742,0.8277777777777828,0.8000000000000114,1.0833333333333275,66.66666666666667,0
782,558.8333333333334,0.8277777777777828,0.8055555555555429,0.8000000000000114,1.0347222222222139,61.111111111111114,0
783,559.6388888888889,0.8055555555555429,0.32777777777778283,0.8000000000000114,1.0069444444444144,63.888888888888886,0
784,559.9666666666667,0.32777777777778283,0.5055555555554747,0.8000000000000114,0.4097222222222227,66.66666666666667,0
785,560.4722222222222,0.5055555555554747,0.7805555555555657,0.8000000000000114,0.6319444444443344,63.888888888888886,0
786,561.2527777777777,0.7805555555555657,0.7611111111111768,0.8000000000000114,0.9756944444444432,58.333333333333336,0
787,562.0138888888889,0.7611111111111768,0.7972222222222172,0.8000000000000114,0.9513888888889575,58.333333333333336,0
788,562.8111111111111,0.7972222222222172,0.8472222222221717,0.8000000000000114,0.9965277777777573,50.0,0
789,563.6583333333333,0.8472222222221717,0.8444444444444343,0.8000000000000114,1.0590277777776995,63.888888888888886,0
790,564.5027777777777,0.8444444444444343,0.8111111111111313,0.8000000000000114,1.0555555555555278,66.66666666666667,0
791,565.3138888888889,0.8111111111111313,0.8333333333333712,0.8000000000000114,1.0138888888888997,61.111111111111114,0
792,566.1472222222222,0.8333333333333712,0.3305555555555202,0.8000000000000114,1.0416666666666992,58.333333333333336,0
793,566.4777777777778,0.3305555555555202,0.40555555555556566,0.8000000000000114,0.41319444444439435,72.22222222222223,0
794,566.8833333333333,0.40555555555556566,0.7250000000000227,0.8000000000000114,0.5069444444444499,52.77777777777778,0
795,567.6083333333333,0.7250000000000227,0.8222222222221944,0.8000000000000114,0.9062500000000155,55.55555555555556,0
796,568.4305555555555,0.8222222222221944,0.8722222222222626,0.8000000000000114,1.0277777777777284,58.333333333333336,0
797,569.3027777777778,0.8722222222222626,0.8666666666666742,0.8000000000000114,1.0902777777778128,88.88888888888889,0
798,570.1694444444445,0.8666666666666742,0.7555555555554747,0.8000000000000114,1.0833333333333275,100.0,0
799,570.925,0.7555555555554747,0.8166666666667197,0.8000000000000114,0.94444444444433,33.333333333333336,0
800,571.7416666666667,0.8166666666667197,0.816666666666606,0.8000000000000114,1.0208333333333852,69.44444444444444,0
801,572.5583333333333,0.816666666666606,0.7722222222222399,0.8000000000000114,1.020833333333243,66.66666666666667,0
802,573.3305555555555,0.7722222222222399,0.7861111111111541,0.8000000000000114,0.9652777777777861,63.888888888888886,0
803,574.1166666666667,0.7861111111111541,0.3250000000000455,0.8000000000000114,0.9826388888889286,50.0,0
804,574.4416666666667,0.3250000000000455,0.4833333333332348,0.8000000000000114,0.40625000000005107,55.55555555555556,0
805,574.925,0.4833333333332348,0.8555555555556111,0.8000000000000114,0.604166666666535,63.888888888888886,0
806,575.7805555555556,0.8555555555556111,0.8361111111111086,0.8000000000000114,1.0694444444444988,72.22222222222223,0
807,576.6166666666667,0.8361111111111086,0.8083333333332803,0.8000000000000114,1.0451388888888709,63.888888888888886,0
808,577.425,0.8083333333332803,0.8361111111111086,0.8000000000000114,1.010416666666586,58.333333333333336,0
809,578.2611111111111,0.8361111111111086,0.7916666666667425,0.8000000000000114,1.0451388888888709,63.888888888888886,0
810,579.0527777777778,0.7916666666667425,0.7527777777777374,0.8000000000000114,0.989583333333414,58.333333333333336,0
811,579.8055555555555,0.7527777777777374,0.7416666666666742,0.8000000000000114,0.9409722222221584,66.66666666666667,0
812,580.5472222222222,0.7416666666666742,0.7916666666666288,0.8000000000000114,0.9270833333333296,50.0,0
813,581.3388888888888,0.7916666666666288,0.877777777777851,0.8000000000000114,0.9895833333332719,55.55555555555556,0
814,582.2166666666667,0.877777777777851,0.8388888888888459,0.8000000000000114,1.0972222222222983,61.111111111111114,0
815,583.0555555555555,0.8388888888888459,0.8805555555555884,0.8000000000000114,1.0486111111110425,63.888888888888886,0
816,583.9361111111111,0.8805555555555884,0.7388888888888232,0.8000000000000114,1.10069444444447,102.77777777777777,0
817,584.675,0.7388888888888232,0.7694444444445026,0.8000000000000114,0.9236111111110159,30.555555555555557,0
818,585.4444444444445,0.7694444444445026,0.7944444444444798,0.8000000000000114,0.9618055555556145,66.66666666666667,0
819,586.2388888888889,0.7944444444444798,0.8055555555555429,0.8000000000000114,0.9930555555555857,66.66666666666667,0
820,587.0444444444445,0.8055555555555429,0.8527777777777601,0.8000000000000114,1.0069444444444144,61.111111111111114,0
821,587.8972222222222,0.8527777777777601,0.8222222222221944,0.8000000000000114,1.065972222222185,61.111111111111114,0
822,588.7194444444444,0.8222222222221944,0.8194444444444571,0.8000000000000114,1.0277777777777284,66.66666666666667,0
823,589.5388888888889,0.8194444444444571,0.3305555555555202,0.8000000000000114,1.0243055555555567,63.888888888888886,0
824,589.8694444444444,0.3305555555555202,0.4944444444445253,0.8000000000000114,0.41319444444439435,75.0,0
825,590.3638888888889,0.4944444444445253,0.7722222222221262,0.8000000000000114,0.6180555555556478,52.77777777777778,0
826,591.1361111111111,0.7722222222221262,0.7722222222222399,0.8000000000000114,0.965277777777644,63.888888888888886,0
827,591.9083333333333,0.7722222222222399,0.32777777777778283,0.8000000000000114,0.9652777777777861,63.888888888888886,0
828,592.2361111111111,0.32777777777778283,0.46944444444443434,0.8000000000000114,0.4097222222222227,94.44444444444444,0
829,592.7055555555555,0.46944444444443434,0.8055555555555429,0.8000000000000114,0.5868055555555346,58.333333333333336,0
830,593.5111111111111,0.8055555555555429,0.7944444444444798,0.8000000000000114,1.0069444444444144,55.55555555555556,0
831,594.3055555555555,0.7944444444444798,0.8833333333333258,0.8000000000000114,0.9930555555555857,55.55555555555556,0
832,595.1888888888889,0.8833333333333258,0.8861111111111768,0.8000000000000114,1.1041666666666414,69.44444444444444,0
833,596.075,0.8861111111111768,0.7222222222221717,0.8000000000000114,1.1076388888889552,105.55555555555556,0
834,596.7972222222222,0.7222222222221717,0.7638888888889142,0.8000000000000114,0.9027777777777017,58.333333333333336,0
835,597.5611111111111,0.7638888888889142,0.7861111111110404,0.8000000000000114,0.9548611111111291,61.111111111111114,0
836,598.3472222222222,0.7861111111110404,0.8194444444444571,0.8000000000000114,0.9826388888887865,58.333333333333336,0
837,599.1666666666666,0.8194444444444571,0.8555555555556111,0.8000000000000114,1.0243055555555567,72.22222222222223,0
838,600.0222222222222,0.8555555555556111,0.8222222222221944,0.8000000000000114,1.0694444444444988,55.55555555555556,0
839,600.8444444444444,0.8222222222221944,0.8305555555555202,0.8000000000000114,1.0277777777777284,58.333333333333336,0
840,601.675,0.8305555555555202,0.8111111111111313,0.8000000000000114,1.0381944444443856,55.55555555555556,0
841,602.4861111111111,0.8111111111111313,0.3305555555556339,0.8000000000000114,1.0138888888888997,58.333333333333336,0
842,602.8166666666667,0.3305555555556339,0.4305555555555429,0.8000000000000114,0.41319444444453646,100.0,1
843,603.2472222222223,0.4305555555555429,0.7583333333333258,0.8000000000000114,0.538194444444421,55.55555555555556,0
844,604.0055555555556,0.7583333333333258,0.7527777777777374,0.8000000000000114,0.9479166666666438,52.77777777777778,0
845,604.7583333333333,0.7527777777777374,0.9222222222222172,0.8000000000000114,0.9409722222221584,58.333333333333336,0
846,605.6805555555555,0.9222222222222172,0.7944444444444798,0.8000000000000114,1.152777777777755,75.0,0
847,606.475,0.7944444444444798,0.8138888888888687,0.8000000000000114,0.9930555555555857,108.33333333333333,0
848,607.2888888888889,0.8138888888888687,0.32777777777778283,0.8000000000000114,1.0173611111110714,50.0,0
849,607.6166666666667,0.32777777777778283,0.5138888888889142,0.8000000000000114,0.4097222222222227,86.11111111111111,0
850,608.1305555555556,0.5138888888889142,0.7777777777777146,0.8000000000000114,0.6423611111111336,55.55555555555556,0
851,608.9083333333333,0.7777777777777146,0.7694444444445026,0.8000000000000114,0.9722222222221295,61.111111111111114,0
852,609.6777777777778,0.7694444444445026,0.7888888888888914,0.8000000000000114,0.9618055555556145,50.0,0
853,610.4666666666667,0.7888888888888914,0.8388888888888459,0.8000000000000114,0.9861111111111003,52.77777777777778,0
854,611.3055555555555,0.8388888888888459,0.8444444444444343,0.8000000000000114,1.0486111111110425,61.111111111111114,0
855,612.15,0.8444444444444343,0.8166666666667197,0.8000000000000114,1.0555555555555278,63.888888888888886,0
856,612.9666666666667,0.8166666666667197,0.8444444444444343,0.8000000000000114,1.0208333333333852,58.333333333333336,0
857,613.8111111111111,0.8444444444444343,0.32777777777778283,0.8000000000000114,1.0555555555555278,61.111111111111114,0
858,614.1388888888889,0.32777777777778283,0.46388888888884594,0.8000000000000114,0.4097222222222227,72.22222222222223,0
859,614.6027777777778,0.46388888888884594,0.783333333333303,0.8000000000000114,0.5798611111110492,58.333333333333336,0
860,615.3861111111111,0.783333333333303,0.8361111111111086,0.8000000000000114,0.9791666666666149,52.77777777777778,0
861,616.2222222222222,0.8361111111111086,0.7611111111111768,0.8000000000000114,1.0451388888888709,91.66666666666667,0
862,616.9833333333333,0.7611111111111768,0.8472222222221717,0.8000000000000114,0.9513888888889575,55.55555555555556,0
863,617.8305555555555,0.8472222222221717,0.8277777777777828,0.8000000000000114,1.0590277777776995,61.111111111111114,0
864,618.6583333333333,0.8277777777777828,0.8333333333333712,0.8000000000000114,1.0347222222222139,69.44444444444444,0
865,619.4916666666667,0.8333333333333712,0.8222222222221944,0.8000000000000114,1.0416666666666992,61.111111111111114,0
866,620.3138888888889,0.8222222222221944,0.7694444444445026,0.8000000000000114,1.0277777777777284,50.0,0
867,621.0833333333334,0.7694444444445026,0.7861111111110404,0.8000000000000114,0.9618055555556145,58.333333333333336,0
868,621.8694444444444,0.7861111111110404,0.30277777777780557,0.8000000000000114,0.9826388888887865,63.888888888888886,0
869,622.1722222222222,0.30277777777780557,0.4944444444444116,0.8000000000000114,0.3784722222222516,86.11111111111111,0
870,622.6666666666666,0.4944444444444116,0.8527777777777601,0.8000000000000114,0.6180555555555057,61.111111111111114,0
871,623.5194444444444,0.8527777777777601,0.32777777777778283,0.8000000000000114,1.065972222222185,55.55555555555556,0
872,623.8472222222222,0.32777777777778283,0.4416666666667197,0.8000000000000114,0.4097222222222227,80.55555555555556,0
873,624.2888888888889,0.4416666666667197,0.8222222222221944,0.8000000000000114,0.5520833333333918,55.55555555555556,0
874,625.1111111111111,0.8222222222221944,0.8888888888889142,0.8000000000000114,1.0277777777777284,66.66666666666667,0
875,626.0,0.8888888888889142,0.8388888888888459,0.8000000000000114,1.111111111111127,58.333333333333336,0
876,626.8388888888888,0.8388888888888459,0.6916666666667197,0.8000000000000114,1.0486111111110425,102.77777777777777,0
877,627.5305555555556,0.6916666666667197,0.7888888888888914,0.8000000000000114,0.8645833333333873,63.888888888888886,0
878,628.3194444444445,0.7888888888888914,0.8333333333333712,0.8000000000000114,0.9861111111111003,66.66666666666667,0
879,629.1527777777778,0.8333333333333712,0.8361111111111086,0.8000000000000114,1.0416666666666992,61.111111111111114,0
880,629.9888888888889,0.8361111111111086,0.8222222222221944,0.8000000000000114,1.0451388888888709,63.888888888888886,0
881,630.8111111111111,0.8222222222221944,0.8527777777777601,0.8000000000000114,1.0277777777777284,66.66666666666667,0
882,631.6638888888889,0.8527777777777601,0.7999999999999545,0.8000000000000114,1.065972222222185,61.111111111111114,0
883,632.4638888888888,0.7999999999999545,0.7722222222222399,0.8000000000000114,0.999999999999929,58.333333333333336,0
884,633.2361111111111,0.7722222222222399,0.7861111111111541,0.8000000000000114,0.9652777777777861,61.111111111111114,0
885,634.0222222222222,0.7861111111111541,0.7972222222222172,0.8000000000000114,0.9826388888889286,61.111111111111114,0
886,634.8194444444445,0.7972222222222172,0.8083333333332803,0.8000000000000114,0.9965277777777573,61.111111111111114,0
887,635.6277777777777,0.8083333333332803,0.808333333333394,0.8000000000000114,1.010416666666586,52.77777777777778,0
888,636.4361111111111,0.808333333333394,0.8583333333333485,0.8000000000000114,1.010416666666728,55.55555555555556,0
889,637.2944444444445,0.8583333333333485,0.8777777777777374,0.8000000000000114,1.0729166666666703,58.333333333333336,0
890,638.1722222222222,0.8777777777777374,0.7305555555556111,0.8000000000000114,1.0972222222221562,83.33333333333333,0
891,638.9027777777778,0.7305555555556111,0.7749999999999773,0.8000000000000114,0.9131944444445009,58.333333333333336,0
892,639.6777777777778,0.7749999999999773,0.7972222222222172,0.8000000000000114,0.9687499999999578,66.66666666666667,0
893,640.475,0.7972222222222172,0.8444444444444343,0.8000000000000114,0.9965277777777573,47.22222222222222,0
894,641.3194444444445,0.8444444444444343,0.8361111111111086,0.8000000000000114,1.0555555555555278,66.66666666666667,0
895,642.1555555555556,0.8361111111111086,0.8194444444444571,0.8000000000000114,1.0451388888888709,66.66666666666667,0
896,642.975,0.8194444444444571,0.8500000000000227,0.8000000000000114,1.0243055555555567,66.66666666666667,0
897,643.825,0.8500000000000227,0.7888888888888914,0.8000000000000114,1.0625000000000133,61.111111111111114,0
898,644.6138888888889,0.7888888888888914,0.7555555555554747,0.8000000000000114,0.9861111111111003,63.888888888888886,0
899,645.3694444444444,0.7555555555554747,0.3250000000000455,0.8000000000000114,0.94444444444433,61.111111111111114,0
900,645.6944444444445,0.3250000000000455,0.4555555555555202,0.8000000000000114,0.40625000000005107,75.0,0
901,646.15,0.4555555555555202,0.8277777777777828,0.8000000000000114,0.5694444444443921,63.888888888888886,0
902,646.9777777777778,0.8277777777777828,0.7916666666666288,0.8000000000000114,1.0347222222222139,58.333333333333336,0
903,647.7694444444444,0.7916666666666288,0.7944444444444798,0.8000000000000114,0.9895833333332719,55.55555555555556,0
904,648.5638888888889,0.7944444444444798,0.8611111111110858,0.8000000000000114,0.9930555555555857,52.77777777777778,0
905,649.425,0.8611111111110858,0.8888888888889142,0.8000000000000114,1.076388888888842,58.333333333333336,0
906,650.3138888888889,0.8888888888889142,0.716666666666697,0.8000000000000114,1.111111111111127,88.88888888888889,0
907,651.0305555555556,0.716666666666697,0.7861111111111541,0.8000000000000114,0.8958333333333585,52.77777777777778,0
908,651.8166666666667,0.7861111111111541,0.7999999999999545,0.8000000000000114,0.9826388888889286,61.111111111111114,0
909,652.6166666666667,0.7999999999999545,0.8333333333333712,0.8000000000000114,0.999999999999929,66.66666666666667,0
910,653.45,0.8333333333333712,0.8305555555555202,0.8000000000000114,1.0416666666666992,72.22222222222223,0
911,654.2805555555556,0.8305555555555202,0.8361111111111086,0.8000000000000114,1.0381944444443856,52.77777777777778,0
912,655.1166666666667,0.8361111111111086,0.8277777777777828,0.8000000000000114,1.0451388888888709,63.888888888888886,0
913,655.9444444444445,0.8277777777777828,0.7777777777777146,0.8000000000000114,1.0347222222222139,61.111111111111114,0
914,656.7222222222222,0.7777777777777146,0.7861111111111541,0.8000000000000114,0.9722222222221295,58.333333333333336,0
915,657.5083333333333,0.7861111111111541,0.3250000000000455,0.8000000000000114,0.9826388888889286,52.77777777777778,0
916,657.8333333333334,0.3250000000000455,0.45833333333325754,0.8000000000000114,0.40625000000005107,58.333333333333336,0
917,658.2916666666666,0.45833333333325754,0.8166666666667197,0.8000000000000114,0.5729166666665638,58.333333333333336,0
918,659.1083333333333,0.8166666666667197,0.8500000000000227,0.8000000000000114,1.0208333333333852,66.66666666666667,0
919,659.9583333333334,0.8500000000000227,0.8638888888888232,0.8000000000000114,1.0625000000000133,58.333333333333336,0
920,660.8222222222222,0.8638888888888232,0.8222222222221944,0.8000000000000114,1.0798611111110137,80.55555555555556,0
921,661.6444444444444,0.8222222222221944,0.7972222222223309,0.8000000000000114,1.0277777777777284,33.333333333333336,0
922,662.4416666666667,0.7972222222223309,0.7555555555554747,0.8000000000000114,0.9965277777778994,58.333333333333336,0
923,663.1972222222222,0.7555555555554747,0.3250000000000455,0.8000000000000114,0.94444444444433,61.111111111111114,0
924,663.5222222222222,0.3250000000000455,0.45833333333337123,0.8000000000000114,0.40625000000005107,58.333333333333336,0
925,663.9805555555556,0.45833333333337123,0.8277777777776691,0.8000000000000114,0.5729166666667059,58.333333333333336,0
926,664.8083333333333,0.8277777777776691,0.8277777777777828,0.8000000000000114,1.0347222222220718,58.333333333333336,0
927,665.6361111111111,0.8277777777777828,0.8194444444444571,0.8000000000000114,1.0347222222222139,52.77777777777778,0
928,666.4555555555555,0.8194444444444571,0.3305555555556339,0.8000000000000114,1.0243055555555567,55.55555555555556,0
929,666.7861111111112,0.3305555555556339,0.5305555555555657,0.8000000000000114,0.41319444444453646,86.11111111111111,0
930,667.3166666666667,0.5305555555555657,0.816666666666606,0.8000000000000114,0.6631944444444476,61.111111111111114,0
931,668.1333333333333,0.816666666666606,0.32777777777778283,0.8000000000000114,1.020833333333243,58.333333333333336,0
932,668.4611111111111,0.32777777777778283,0.42222222222221717,0.8000000000000114,0.4097222222222227,97.22222222222223,1
933,668.8833333333333,0.42222222222221717,0.7861111111111541,0.8000000000000114,0.5277777777777639,61.111111111111114,0
934,669.6694444444445,0.7861111111111541,0.8611111111110858,0.8000000000000114,0.9826388888889286,50.0,0
935,670.5305555555556,0.8611111111110858,0.7722222222222399,0.8000000000000114,1.076388888888842,97.22222222222223,0
936,671.3027777777778,0.7722222222222399,0.8222222222221944,0.8000000000000114,0.9652777777777861,58.333333333333336,0
937,672.125,0.8222222222221944,0.3250000000000455,0.8000000000000114,1.0277777777777284,55.55555555555556,0
938,672.45,0.3250000000000455,0.5249999999999773,0.8000000000000114,0.40625000000005107,75.0,0
939,672.975,0.5249999999999773,0.8333333333332575,0.8000000000000114,0.6562499999999623,63.888888888888886,0
940,673.8083333333333,0.8333333333332575,0.775000000000091,0.8000000000000114,1.041666666666557,55.55555555555556,0
941,674.5833333333334,0.775000000000091,0.32777777777778283,0.8000000000000114,0.9687500000000999,55.55555555555556,0
942,674.9111111111112,0.32777777777778283,0.4611111111111086,0.8000000000000114,0.4097222222222227,72.22222222222223,0
943,675.3722222222223,0.4611111111111086,0.32777777777778283,0.8000000000000114,0.5763888888888775,55.55555555555556,0
944,675.7,0.32777777777778283,0.46388888888884594,0.8000000000000114,0.4097222222222227,38.888888888888886,0
945,676.1638888888889,0.46388888888884594,0.8250000000000455,0.8000000000000114,0.5798611111110492,52.77777777777778,0
946,676.9888888888889,0.8250000000000455,0.8305555555555202,0.8000000000000114,1.0312500000000422,55.55555555555556,0
947,677.8194444444445,0.8305555555555202,0.7777777777777146,0.8000000000000114,1.0381944444443856,58.333333333333336,0
948,678.5972222222222,0.7777777777777146,0.8833333333334394,0.8000000000000114,0.9722222222221295,55.55555555555556,0
949,679.4805555555556,0.8833333333334394,0.8638888888888232,0.8000000000000114,1.1041666666667835,55.55555555555556,0
950,680.3444444444444,0.8638888888888232,0.7027777777777828,0.8000000000000114,1.0798611111110137,97.22222222222223,0
951,681.0472222222222,0.7027777777777828,0.7777777777778283,0.8000000000000114,0.8784722222222161,63.888888888888886,0
952,681.825,0.7777777777778283,0.8277777777777828,0.8000000000000114,0.9722222222222716,63.888888888888886,0
953,682.6527777777778,0.8277777777777828,0.8333333333332575,0.8000000000000114,1.0347222222222139,66.66666666666667,0
954,683.4861111111111,0.8333333333332575,0.8166666666667197,0.8000000000000114,1.041666666666557,52.77777777777778,0
955,684.3027777777778,0.8166666666667197,0.8694444444444116,0.8000000000000114,1.0208333333333852,63.888888888888886,0
956,685.1722222222222,0.8694444444444116,0.8194444444444571,0.8000000000000114,1.086805555555499,63.888888888888886,0
957,685.9916666666667,0.8194444444444571,0.7611111111110631,0.8000000000000114,1.0243055555555567,55.55555555555556,0
958,686.7527777777777,0.7611111111110631,0.7805555555555657,0.8000000000000114,0.9513888888888153,66.66666666666667,0
959,687.5333333333333,0.7805555555555657,0.7361111111110858,0.8000000000000114,0.9756944444444432,61.111111111111114,0
960,688.2694444444444,0.7361111111110858,0.8527777777778738,0.8000000000000114,0.9201388888888442,52.77777777777778,0
961,689.1222222222223,0.8527777777778738,0.8222222222221944,0.8000000000000114,1.0659722222223271,52.77777777777778,0
962,689.9444444444445,0.8222222222221944,0.8444444444444343,0.8000000000000114,1.0277777777777284,66.66666666666667,0
963,690.7888888888889,0.8444444444444343,0.8333333333333712,0.8000000000000114,1.0555555555555278,75.0,0
964,691.6222222222223,0.8333333333333712,0.7861111111110404,0.8000000000000114,1.0416666666666992,66.66666666666667,0
965,692.4083333333333,0.7861111111110404,0.7861111111111541,0.8000000000000114,0.9826388888887865,58.333333333333336,0
966,693.1944444444445,0.7861111111111541,0.7888888888888914,0.8000000000000114,0.9826388888889286,63.888888888888886,0
967,693.9833333333333,0.7888888888888914,0.8305555555555202,0.8000000000000114,0.9861111111111003,63.888888888888886,0
968,694.8138888888889,0.8305555555555202,0.8194444444444571,0.8000000000000114,1.0381944444443856,63.888888888888886,0
969,695.6333333333333,0.8194444444444571,0.8250000000000455,0.8000000000000114,1.0243055555555567,55.55555555555556,0
970,696.4583333333334,0.8250000000000455,0.8638888888888232,0.8000000000000114,1.0312500000000422,69.44444444444444,0
971,697.3222222222222,0.8638888888888232,0.7972222222222172,0.8000000000000114,1.0798611111110137,61.111111111111114,0
972,698.1194444444444,0.7972222222222172,0.6861111111111313,0.8000000000000114,0.9965277777777573,52.77777777777778,0
973,698.8055555555555,0.6861111111111313,0.8472222222222854,0.8000000000000114,0.8576388888889019,52.77777777777778,0
974,699.6527777777778,0.8472222222222854,0.7722222222221262,0.8000000000000114,1.0590277777778416,72.22222222222223,0
975,700.425,0.7722222222221262,0.8250000000000455,0.8000000000000114,0.965277777777644,50.0,0
976,701.25,0.8250000000000455,0.8194444444444571,0.8000000000000114,1.0312500000000422,66.66666666666667,0
977,702.0694444444445,0.8194444444444571,0.8583333333333485,0.8000000000000114,1.0243055555555567,63.888888888888886,0
978,702.9277777777778,0.8583333333333485,0.8361111111111086,0.8000000000000114,1.0729166666666703,61.111111111111114,0
979,703.7638888888889,0.8361111111111086,0.7777777777777146,0.8000000000000114,1.0451388888888709,55.55555555555556,0
980,704.5416666666666,0.7777777777777146,0.7833333333334167,0.8000000000000114,0.9722222222221295,66.66666666666667,0
981,705.325,0.7833333333334167,0.7944444444443661,0.8000000000000114,0.979166666666757,61.111111111111114,0
982,706.1194444444444,0.7944444444443661,0.32777777777778283,0.8000000000000114,0.9930555555554436,58.333333333333336,0
983,706.4472222222222,0.32777777777778283,0.4944444444445253,0.8000000000000114,0.4097222222222227,86.11111111111111,0
984,706.9416666666667,0.4944444444445253,0.816666666666606,0.8000000000000114,0.6180555555556478,61.111111111111114,0
985,707.7583333333333,0.816666666666606,0.8222222222221944,0.8000000000000114,1.020833333333243,61.111111111111114,0
986,708.5805555555555,0.8222222222221944,0.8527777777777601,0.8000000000000114,1.0277777777777284,72.22222222222223,0
987,709.4333333333333,0.8527777777777601,0.8666666666666742,0.8000000000000114,1.065972222222185,55.55555555555556,0
988,710.3,0.8666666666666742,0.7250000000000227,0.8000000000000114,1.0833333333333275,91.66666666666667,0
989,711.025,0.7250000000000227,0.783333333333303,0.8000000000000114,0.9062500000000155,55.55555555555556,0
990,711.8083333333333,0.783333333333303,0.8138888888889824,0.8000000000000114,0.9791666666666149,61.111111111111114,0
991,712.6222222222223,0.8138888888889824,0.8194444444444571,0.8000000000000114,1.0173611111112135,77.77777777777777,0
992,713.4416666666667,0.8194444444444571,0.3249999999999318,0.8000000000000114,1.0243055555555567,61.111111111111114,0
993,713.7666666666667,0.3249999999999318,0.49722222222226264,0.8000000000000114,0.40624999999990896,63.888888888888886,0
994,714.2638888888889,0.49722222222226264,0.8694444444444116,0.8000000000000114,0.6215277777778194,58.333333333333336,0
995,715.1333333333333,0.8694444444444116,0.3055555555555429,0.8000000000000114,1.086805555555499,58.333333333333336,0
996,715.4388888888889,0.3055555555555429,0.5083333333333258,0.8000000000000114,0.3819444444444232,83.33333333333333,0
997,715.9472222222222,0.5083333333333258,0.7666666666666515,0.8000000000000114,0.6354166666666482,50.0,0
998,716.7138888888888,0.7666666666666515,0.7722222222222399,0.8000000000000114,0.9583333333333007,63.888888888888886,0
999,717.4861111111111,0.7722222222222399,0.7972222222222172,0.8000000000000114,0.9652777777777861,55.55555555555556,0
1000,718.2833333333333,0.7972222222222172,0.8361111111111086,0.8000000000000114,0.9965277777777573,58.333333333333336,0
1001,719.1194444444444,0.8361111111111086,0.8222222222223081,0.8000000000000114,1.0451388888888709,55.55555555555556,0
1002,719.9416666666667,0.8222222222223081,0.8638888888888232,0.8000000000000114,1.0277777777778705,50.0,0
1003,720.8055555555555,0.8638888888888232,0.8305555555555202,0.8000000000000114,1.0798611111110137,61.111111111111114,0
1004,721.6361111111111,0.8305555555555202,0.7833333333334167,0.8000000000000114,1.0381944444443856,55.55555555555556,0
1005,722.4194444444445,0.7833333333334167,0.7805555555555657,0.8000000000000114,0.979166666666757,52.77777777777778,0
1006,723.2,0.7805555555555657,0.7805555555555657,0.8000000000000114,0.9756944444444432,55.55555555555556,0
1007,723.9805555555556,0.7805555555555657,0.8222222222221944,0.8000000000000114,0.9756944444444432,52.77777777777778,0
1008,724.8027777777778,0.8222222222221944,0.8222222222221944,0.8000000000000114,1.0277777777777284,66.66666666666667,0
1009,725.625,0.8222222222221944,0.7194444444444343,0.8000000000000114,1.0277777777777284,58.333333333333336,0
1010,726.3444444444444,0.7194444444444343,0.8972222222222399,0.8000000000000114,0.8993055555555302,55.55555555555556,0
1011,727.2416666666667,0.8972222222222399,0.7972222222222172,0.8000000000000114,1.121527777777784,55.55555555555556,0
1012,728.0388888888889,0.7972222222222172,0.7749999999999773,0.8000000000000114,0.9965277777777573,52.77777777777778,0
1013,728.8138888888889,0.7749999999999773,0.7888888888888914,0.8000000000000114,0.9687499999999578,52.77777777777778,0
1014,729.6027777777778,0.7888888888888914,0.3305555555555202,0.8000000000000114,0.9861111111111003,58.333333333333336,0
1015,729.9333333333333,0.3305555555555202,0.4833333333333485,0.8000000000000114,0.41319444444439435,77.77777777777777,0
1016,730.4166666666666,0.4833333333333485,0.808333333333394,0.8000000000000114,0.6041666666666771,58.333333333333336,0
1017,731.225,0.808333333333394,0.8222222222221944,0.8000000000000114,1.010416666666728,55.55555555555556,0
1018,732.0472222222222,0.8222222222221944,0.8694444444444116,0.8000000000000114,1.0277777777777284,63.888888888888886,0
1019,732.9166666666666,0.8694444444444116,0.8000000000000682,0.8000000000000114,1.086805555555499,58.333333333333336,0
1020,733.7166666666667,0.8000000000000682,0.8222222222221944,0.8000000000000114,1.000000000000071,55.55555555555556,0
1021,734.5388888888889,0.8222222222221944,0.7388888888889369,0.8000000000000114,1.0277777777777284,72.22222222222223,0
1022,735.2777777777778,0.7388888888889369,0.8083333333332803,0.8000000000000114,0.923611111111158,55.55555555555556,0
1023,736.0861111111111,0.8083333333332803,0.8138888888888687,0.8000000000000114,1.010416666666586,58.333333333333336,0
1024,736.9,0.8138888888888687,0.8138888888888687,0.8000000000000114,1.0173611111110714,75.0,0
1025,737.7138888888888,0.8138888888888687,0.8638888888889369,0.8000000000000114,1.0173611111110714,55.55555555555556,0
1026,738.5777777777778,0.8638888888889369,0.841666666666697,0.8000000000000114,1.0798611111111558,52.77777777777778,0
1027,739.4194444444445,0.841666666666697,0.7916666666666288,0.8000000000000114,1.0520833333333564,63.888888888888886,0
1028,740.2111111111111,0.7916666666666288,0.783333333333303,0.8000000000000114,0.9895833333332719,61.111111111111114,0
1029,740.9944444444444,0.783333333333303,0.7861111111111541,0.8000000000000114,0.9791666666666149,72.22222222222223,0
1030,741.7805555555556,0.7861111111111541,0.7916666666666288,0.8000000000000114,0.9826388888889286,61.111111111111114,0
1031,742.5722222222222,0.7916666666666288,0.8166666666667197,0.8000000000000114,0.9895833333332719,61.111111111111114,0
1032,743.3888888888889,0.8166666666667197,0.8944444444443889,0.8000000000000114,1.0208333333333852,61.111111111111114,0
1033,744.2833333333333,0.8944444444443889,0.8111111111111313,0.8000000000000114,1.11805555555547,83.33333333333333,0
1034,745.0944444444444,0.8111111111111313,0.7972222222222172,0.8000000000000114,1.0138888888888997,66.66666666666667,0
1035,745.8916666666667,0.7972222222222172,0.7916666666666288,0.8000000000000114,0.9965277777777573,63.888888888888886,0
1036,746.6833333333333,0.7916666666666288,0.32777777777778283,0.8000000000000114,0.9895833333332719,58.333333333333336,0
1037,747.0111111111111,0.32777777777778283,0.4555555555556339,0.8000000000000114,0.4097222222222227,50.0,0
1038,747.4666666666667,0.4555555555556339,0.32777777777778283,0.8000000000000114,0.5694444444445342,63.888888888888886,0
1039,747.7944444444445,0.32777777777778283,0.4888888888888232,0.8000000000000114,0.4097222222222227,63.888888888888886,0
1040,748.2833333333333,0.4888888888888232,0.8000000000000682,0.8000000000000114,0.6111111111110203,61.111111111111114,0
