beat_index,peak_time_s,rr_prev_s,rr_next_s,rr_baseline_s,prematurity_index,aa_ratio,morph_index,qrs_width_ms,width_index,pause_index,pvc_score,morphology_score,is_pvc_candidate
0,0.5444444444444444,,0.7277777777777777,0.7027777777777828,,0.036649020284328766,1.0618604085789027,63.888888888888886,1.045454545437438,1.0355731225296367,3.131865241812193e-06,0.9995084188624759,0
1,1.2722222222222221,0.7277777777777777,0.6944444444444444,0.7027777777777828,1.0355731225296367,0.03635389442650759,1.0533094988537062,63.888888888888886,1.045454545437438,0.9881422924901114,7.101123628672212e-06,0.9977294093093512,0
2,1.9666666666666666,0.6944444444444444,0.711111111111111,0.7027777777777828,0.9881422924901114,0.03570926545655156,1.0346321651594135,61.111111111111114,0.9999999999836364,1.011857707509874,1.9553294805518817e-06,0.9995600413305655,0
3,2.6777777777777776,0.711111111111111,0.713888888888889,0.7027777777777828,1.011857707509874,0.03528663675292915,1.0223870168737563,61.111111111111114,0.9999999999836364,1.0158102766798347,7.443122171935102e-07,0.9997058803520984,0
4,3.3916666666666666,0.713888888888889,0.7138888888888886,0.7027777777777828,1.0158102766798347,0.03483608167568204,1.0093327361671725,61.111111111111114,0.9999999999836364,1.015810276679834,5.28427563040168e-07,0.9992144582095153,0
5,4.105555555555555,0.7138888888888886,0.7277777777777779,0.7138888888888886,1.0,0.03625932878343955,1.0505695753412434,61.111111111111114,0.9999999999836364,1.0194552529182885,1.9128142412228044e-06,0.9995231483635647,0
6,4.833333333333333,0.7277777777777779,0.7638888888888893,0.7138888888888888,1.019455252918288,0.036089205204736,1.045640453324077,63.888888888888886,1.045454545437438,1.0700389105058372,6.577178737643408e-06,0.9981818717088147,0
7,5.597222222222222,0.7638888888888893,0.7527777777777773,0.713888888888889,1.070038910505837,0.0379364847116146,1.0991631111390887,66.66666666666667,1.0909090908912398,1.0544747081712054,3.793216455960646e-05,0.998179918882738,0
8,6.35,0.7527777777777773,0.7333333333333334,0.7208333333333334,1.0443159922928702,0.03529657046756046,1.0226748340703764,61.111111111111114,0.9999999999836364,1.0173410404624277,1.7839037980138528e-07,0.9997840184738205,0
9,7.083333333333333,0.7333333333333334,0.7000000000000002,0.7277777777777777,1.0076335877862597,0.03648503904303619,1.0571092532539492,63.888888888888886,1.045454545437438,0.9618320610687026,1.8284589486938785e-06,0.999289953611335,0
10,7.783333333333333,0.7000000000000002,0.6916666666666664,0.7208333333333334,0.9710982658959538,0.03487085622190543,1.0103402859890895,61.111111111111114,0.9999999999836364,0.9595375722543348,3.13474998847596e-07,0.9997328341286097,0
11,8.475,0.6916666666666664,0.6972222222222229,0.7138888888888888,0.9688715953307391,0.035345011547267165,1.024078354936427,61.111111111111114,0.9999999999836364,0.9766536964980554,1.2472987691580784e-06,0.9988770145331921,0
12,9.172222222222222,0.6972222222222229,0.7249999999999996,0.7138888888888888,0.9766536964980554,0.03351449928072874,0.9710415073433595,61.111111111111114,0.9999999999836364,1.01556420233463,2.0613892104393017e-07,0.9985862812645416,0
13,9.897222222222222,0.7249999999999996,0.7555555555555564,0.7194444444444443,1.0077220077220075,0.03619902770314738,1.0488224255058582,61.111111111111114,0.9999999999836364,1.0501930501930516,3.2676714454282774e-06,0.9979129413261305,0
14,10.652777777777779,0.7555555555555564,0.7388888888888889,0.7263888888888888,1.0401529636711295,0.037942350880129684,1.0993330761762954,66.66666666666667,1.0909090908912398,1.0172084130019123,2.0491248506004922e-05,0.9988246254451637,0
15,11.391666666666667,0.7388888888888889,0.7472222222222218,0.7305555555555556,1.0114068441064639,0.03769145644109656,1.0920637175556556,66.66666666666667,1.0909090908912398,1.022813688212927,2.7699350539478473e-05,0.9988337406490893,0
16,12.13888888888889,0.7472222222222218,0.7361111111111107,0.7361111111111112,1.0150943396226408,0.0364897314599917,1.0572452102794563,63.888888888888886,1.045454545437438,0.9999999999999994,1.2936611710756551e-06,0.9994161120655483,0
17,12.875,0.7361111111111107,0.7361111111111107,0.734722222222222,1.0018903591682418,0.03628098910844179,1.05119715668935,63.888888888888886,1.045454545437438,1.0018903591682418,1.5362045360234333e-06,0.9993555116753319,0
18,13.61111111111111,0.7361111111111107,0.7055555555555557,0.734722222222222,1.0018903591682418,0.03519029585051019,1.0195956573991567,63.888888888888886,1.045454545437438,0.9603024574669191,3.363763028119138e-07,0.9994310623857016,0
19,14.316666666666666,0.7055555555555557,0.7027777777777775,0.7305555555555552,0.9657794676806091,0.03584968835765271,1.0387007464742832,61.111111111111114,0.9999999999836364,0.9619771863117872,8.035164569264452e-07,0.9995324440955637,0
20,15.019444444444444,0.7027777777777775,0.43055555555555536,0.7305555555555552,0.9619771863117872,0.03355812960831307,0.9723056425675946,58.333333333333336,0.9545454545298347,0.5893536121673004,3.1334998595866637e-08,0.9984867628186125,0
21,15.45,0.43055555555555536,1.0,0.7305555555555552,0.5893536121673004,0.037944573401681,1.0993974710120713,66.66666666666667,1.0909090908912398,1.368821292775666,0.7730212211608887,0.9850658842268121,1
22,16.45,1.0,0.7555555555555564,0.7361111111111107,1.3584905660377367,0.03557626852507373,1.0307787422055896,61.111111111111114,0.9999999999836364,1.0264150943396244,2.7482177644699846e-10,0.9994756476521904,0
23,17.205555555555556,0.7555555555555564,0.7611111111111093,0.7374999999999998,1.0244821092278733,0.03697966618505938,1.0714404679780587,66.66666666666667,1.0909090908912398,1.032015065913369,7.882599675212987e-06,0.9987966876750035,0
24,17.966666666666665,0.7611111111111093,0.7444444444444471,0.7374999999999998,1.032015065913369,0.03735628740632307,1.0823526058957416,66.66666666666667,1.0909090908912398,1.0094161958568777,8.039723979891278e-06,0.99879235146627,0
25,18.711111111111112,0.7444444444444471,0.719444444444445,0.7402777777777789,1.005628517823642,0.03515969239677905,1.0187089598658867,61.111111111111114,0.9999999999836364,0.9718574108818003,9.531427735964826e-08,0.9998465354644727,0
26,19.430555555555557,0.719444444444445,0.6972222222222193,0.7361111111111107,0.977358490566039,0.033469289315339136,0.9697316040513205,58.333333333333336,0.9545454545298347,0.9471698113207513,2.4876738891066452e-08,0.9984921741900923,0
27,20.127777777777776,0.6972222222222193,0.722222222222225,0.7277777777777779,0.9580152671755684,0.034868237470569954,1.0102644108813381,61.111111111111114,0.9999999999836364,0.9923664122137441,5.274166028357286e-07,0.999151871782251,0
28,20.85,0.722222222222225,0.7222222222222214,0.720833333333335,1.0019267822736047,0.036581706383605805,1.059910070873551,61.111111111111114,0.9999999999836364,1.0019267822735998,2.4122323338815477e-06,0.998739783483901,0
29,21.572222222222223,0.7222222222222214,0.43611111111111,0.7222222222222232,0.9999999999999976,0.0348449104164832,1.009588538102439,61.111111111111114,0.9999999999836364,0.6038461538461515,1.6807378244720894e-07,0.999751564468442,0
30,22.008333333333333,0.43611111111111,1.0194444444444457,0.7222222222222232,0.6038461538461515,0.03898731261339169,1.1296095606340637,72.22222222222223,1.1818181817988431,1.4115384615384614,0.9054471254348755,0.9809624348590572,1
31,23.02777777777778,1.0194444444444457,0.7583333333333329,0.7333333333333361,1.3901515151515118,0.03622993206202225,1.0497178413965735,63.888888888888886,1.045454545437438,1.0340909090909045,1.9813679585922728e-09,0.9993764920330848,0
32,23.78611111111111,0.7583333333333329,0.7388888888888872,0.7333333333333361,1.0340909090909045,0.03646954783896518,1.0566604146177019,63.888888888888886,1.045454545437438,1.0075757575757516,1.185318069474306e-06,0.9990080565904391,0
33,24.525,0.7388888888888872,0.7333333333333343,0.7305555555555561,1.0114068441064608,0.03596859997944927,1.0421460648573142,63.888888888888886,1.045454545437438,1.0038022813688219,1.0268919368172647e-06,0.9993986379927013,0
34,25.258333333333333,0.7333333333333343,0.7111111111111121,0.7277777777777796,1.0076335877862583,0.03558889446477817,1.0311445633213858,63.888888888888886,1.045454545437438,0.9770992366412203,9.335505524177279e-07,0.9985906549587144,0
35,25.969444444444445,0.7111111111111121,0.6972222222222229,0.7222222222222232,0.9846153846153847,0.03487583272350923,1.0104844740188188,61.111111111111114,0.9999999999836364,0.965384615384615,3.6983965401304886e-07,0.998617060924547,0
36,26.666666666666668,0.6972222222222229,0.6805555555555536,0.7222222222222232,0.965384615384615,0.03491005448716208,1.0114760076438047,63.888888888888886,1.045454545437438,0.9423076923076883,1.7172737898363266e-06,0.9976346375561633,0
37,27.34722222222222,0.6805555555555536,0.719444444444445,0.7222222222222232,0.9423076923076883,0.03334599243085535,0.9661592280609467,61.111111111111114,0.9999999999836364,0.9961538461538456,2.0241941456333734e-07,0.9988988291311063,0
38,28.066666666666666,0.719444444444445,0.7666666666666657,0.7208333333333332,0.9980732177263979,0.03652206410666157,1.0581820090570755,66.66666666666667,1.0909090908912398,1.0635838150289005,3.579477561288513e-05,0.9976409122478883,0
39,28.833333333333332,0.7666666666666657,0.7333333333333343,0.7263888888888896,1.0554493307839363,0.03624021476067606,1.0500157699771773,63.888888888888886,1.045454545437438,1.009560229445507,8.792155767878285e-07,0.9990737524808342,0
40,29.566666666666666,0.7333333333333343,0.7305555555555543,0.7333333333333343,1.0,0.0381606917635501,1.105659235453667,66.66666666666667,1.0909090908912398,0.9962121212121182,6.773898348910734e-05,0.9977238076767453,0
41,30.29722222222222,0.7305555555555543,0.7250000000000014,0.7319444444444443,0.9981024667931674,0.036393992476532765,1.0544712906684017,66.66666666666667,1.0909090908912398,0.9905123339658466,4.110701866011368e-06,0.9996242228126281,0
42,31.022222222222222,0.7250000000000014,0.7083333333333321,0.7277777777777779,0.996183206106872,0.035342618130001946,1.0240090086069635,61.111111111111114,0.9999999999836364,0.9732824427480898,2.2436040580942063e-07,0.999946548362014,0
43,31.730555555555554,0.7083333333333321,0.7000000000000028,0.7222222222222232,0.9807692307692278,0.034235217561146974,0.9919234354761678,61.111111111111114,0.9999999999836364,0.9692307692307719,3.114421645022958e-07,0.9976466961675485,0
44,32.43055555555556,0.7000000000000028,0.7083333333333286,0.7152777777777786,0.978640776699032,0.03559495391438986,1.0313201284412856,58.333333333333336,0.9545454545298347,0.9902912621359146,4.4749276639777236e-07,0.999729368414787,0
45,33.138888888888886,0.7083333333333286,0.7111111111111157,0.7138888888888886,0.9922178988326786,0.03607405542292248,1.0452015069789475,63.888888888888886,1.045454545437438,0.9961089494163493,4.089313733857125e-06,0.9990068068683199,0
46,33.85,0.7111111111111157,0.7277777777777743,0.7152777777777803,0.9941747572815562,0.035739700975082875,1.03551399697626,61.111111111111114,0.9999999999836364,1.0174757281553313,9.837069683271693e-07,0.9997971663896519,0
47,34.577777777777776,0.7277777777777743,0.49444444444444713,0.7222222222222232,1.0076923076923014,0.03639793569088332,1.0545855404674118,63.888888888888886,1.045454545437438,0.6846153846153874,4.05745959142223e-06,0.9975970909859446,0
48,35.07222222222222,0.49444444444444713,1.00277777777778,0.7180555555555586,0.6885880077369447,0.038735499316699326,1.12231357923983,66.66666666666667,1.0909090908912398,1.3965183752417767,0.9182729721069336,0.9864788213312083,1
49,36.075,1.00277777777778,0.7361111111111072,0.7180555555555586,1.3965183752417767,0.03709225770610507,1.0747026691941501,63.888888888888886,1.045454545437438,1.0251450676982494,1.9577363730149955e-08,0.9983862152183012,0
50,36.81111111111111,0.7361111111111072,0.7083333333333357,0.7180555555555586,1.0251450676982494,0.03605699224055693,1.0447071221998248,63.888888888888886,1.045454545437438,0.986460348162475,1.0778599062177818e-06,0.9998770556800586,0
51,37.519444444444446,0.7083333333333357,0.68888888888889,0.7097222222222257,0.9980430528375719,0.03429028891718483,0.9935190604661313,58.333333333333336,0.9545454545298347,0.9706457925635976,1.4201945930381044e-07,0.9984546274335291,0
52,38.208333333333336,0.68888888888889,0.6944444444444429,0.7083333333333339,0.9725490196078439,0.03533192760651315,1.0236992638020093,61.111111111111114,0.9999999999836364,0.9803921568627421,1.0120808155988925e-06,0.9997050784181594,0
53,38.90277777777778,0.6944444444444429,0.68611111111111,0.7083333333333321,0.9803921568627445,0.03569373068781866,1.0341820642905248,63.888888888888886,1.045454545437438,0.9686274509803923,5.025516202294966e-06,0.9981646349744923,0
54,39.58888888888889,0.68611111111111,0.7333333333333343,0.7083333333333321,0.9686274509803923,0.036370304663108505,1.0537849653302103,63.888888888888886,1.045454545437438,1.0352941176470618,2.7010302801500075e-05,0.9980261357262366,0
55,40.32222222222222,0.7333333333333343,0.75,0.7097222222222257,1.0332681017612486,0.036449744976310365,1.0560866509627247,63.888888888888886,1.045454545437438,1.0567514677103667,5.8783111853699666e-06,0.9987727564300308,0
56,41.07222222222222,0.75,0.7388888888888872,0.718055555555555,1.0444874274661518,0.036093415045501905,1.0457624282964244,61.111111111111114,0.9999999999836364,1.0290135396518358,1.1529502899065847e-06,0.9980846157954661,0
57,41.81111111111111,0.7388888888888872,0.7194444444444485,0.720833333333335,1.0250481695568354,0.03938142133228623,1.141028377345211,66.66666666666667,1.0909090908912398,0.9980732177264003,0.0021682006772607565,0.9930190348286211,0
58,42.53055555555556,0.7194444444444485,0.7305555555555543,0.7263888888888914,0.9904397705544955,0.0359176881280831,1.0406709564131111,63.888888888888886,1.045454545437438,1.0057361376672989,2.2034666926629143e-06,0.9990815705432352,0
59,43.26111111111111,0.7305555555555543,0.7194444444444414,0.7250000000000014,1.0076628352490384,0.036322493638432034,1.0523996995358273,63.888888888888886,1.045454545437438,0.9923371647509518,1.6503968254255597e-06,0.9997443745604879,0
60,43.980555555555554,0.7194444444444414,0.6944444444444429,0.719444444444445,0.9999999999999951,0.0349490278805738,1.012605213912644,61.111111111111114,0.9999999999836364,0.9652509652509623,2.1623064583309315e-07,0.9996059871548564,0
61,44.675,0.6944444444444429,0.7000000000000028,0.719444444444445,0.9652509652509623,0.03432695036318407,0.9945812808945581,61.111111111111114,0.9999999999836364,0.9729729729729761,2.516244990147243e-07,0.9995325124848825,0
62,45.375,0.7000000000000028,0.7055555555555557,0.719444444444445,0.9729729729729761,0.03442341360607848,0.9973761850343695,61.111111111111114,0.9999999999836364,0.9806949806949802,4.040335852550925e-07,0.9984122341562205,0
63,46.080555555555556,0.7055555555555557,0.7333333333333343,0.719444444444445,0.9806949806949802,0.03609160678024538,1.045710036028658,61.111111111111114,0.9999999999836364,1.01930501930502,2.229887059002067e-06,0.9992011794936418,0
64,46.81388888888889,0.7333333333333343,0.7611111111111128,0.7250000000000014,1.0114942528735626,0.0352115397843277,1.0202111743234366,63.888888888888886,1.045454545437438,1.0498084291187744,1.0192426316280034e-06,0.9989320592574362,0
65,47.575,0.7611111111111128,0.7527777777777729,0.7250000000000014,1.0498084291187744,0.036550039899386155,1.0589925733358034,63.888888888888886,1.045454545437438,1.038314176245202,2.3599334326718235e-06,0.9984817957595331,0
66,48.327777777777776,0.7527777777777729,0.7250000000000014,0.7250000000000014,1.038314176245202,0.03528074009742238,1.022216168513361,61.111111111111114,0.9999999999836364,1.0,1.4943189796667866e-07,0.9996584901813031,0
67,49.05277777777778,0.7250000000000014,0.7111111111111086,0.722222222222225,1.003846153846152,0.0356778725841396,1.0337225951881779,63.888888888888886,1.045454545437438,0.9846153846153773,1.2254669172762078e-06,0.9990783813127279,0
68,49.763888888888886,0.7111111111111086,0.7027777777777828,0.7222222222222214,0.9846153846153822,0.03511050968905152,1.0172839512376233,58.333333333333336,0.9545454545298347,0.9730769230769312,3.891011601808714e-07,0.997539834402958,0
69,50.46666666666667,0.7027777777777828,0.7166666666666615,0.715277777777775,0.9825242718446711,0.03516171934746334,1.01876768827568,61.111111111111114,0.9999999999836364,1.001941747572812,6.78509763929469e-07,0.999436103866358,0
70,51.18333333333333,0.7166666666666615,0.7111111111111157,0.713888888888885,1.0038910505836558,0.03557734662197182,1.030809978740804,61.111111111111114,0.9999999999836364,0.9961089494163542,6.088163786444056e-07,0.9996951359304982,0
71,51.894444444444446,0.7111111111111157,0.7333333333333343,0.7138888888888886,0.9961089494163493,0.03707329093613593,1.0741531302991782,66.66666666666667,1.0909090908912398,1.0272373540856048,3.6305427784100175e-05,0.9988646758834687,0
72,52.62777777777778,0.7333333333333343,0.7388888888888872,0.7208333333333314,1.0173410404624317,0.035520494191560816,1.0291627493055675,61.111111111111114,0.9999999999836364,1.0250481695568403,3.6955302107344323e-07,0.9998661791306258,0
73,53.36666666666667,0.7388888888888872,0.75277777777778,0.7291666666666679,1.0133333333333292,0.035748939619458416,1.0357816753648013,61.111111111111114,0.9999999999836364,1.0323809523809537,4.161757658494025e-07,0.9997304168401573,0
74,54.11944444444445,0.75277777777778,0.7305555555555543,0.7291666666666679,1.0323809523809537,0.03659420731685891,1.0602722700807543,66.66666666666667,1.0909090908912398,1.0019047619047585,3.8343014239217155e-06,0.9989912187763941,0
75,54.85,0.7305555555555543,0.7250000000000014,0.7277777777777779,1.003816793893128,0.036603900084943033,1.0605531061467177,66.66666666666667,1.0909090908912398,0.996183206106872,1.2704877008218318e-05,0.9977879202672839,0
76,55.575,0.7250000000000014,0.7055555555555557,0.7250000000000014,1.0,0.03685539119022178,1.0678397524399459,63.888888888888886,1.045454545437438,0.9731800766283508,5.382609742810018e-06,0.9985374235771654,0
77,56.28055555555556,0.7055555555555557,0.7027777777777757,0.7208333333333314,0.9788053949903689,0.034097445609119766,0.9879316621590273,58.333333333333336,0.9545454545298347,0.9749518304431596,1.428941089898217e-07,0.9976960869271714,0
78,56.983333333333334,0.7027777777777757,0.6944444444444429,0.7208333333333314,0.9749518304431596,0.03517023788673507,1.0190145025021287,61.111111111111114,0.9999999999836364,0.9633911368015418,4.0123936173586117e-07,0.9997810115811556,0
79,57.67777777777778,0.6944444444444429,0.7388888888888872,0.7208333333333314,0.9633911368015418,0.03358121885271471,0.9729746251025679,58.333333333333336,0.9545454545298347,1.0250481695568403,1.8571613225049077e-07,0.9975817379009274,0
80,58.416666666666664,0.7388888888888872,0.4777777777777814,0.7277777777777779,1.0152671755725167,0.037034157422317464,1.0730192847379596,66.66666666666667,1.0909090908912398,0.6564885496183255,6.008918717270717e-06,0.9993494053488725,0
81,58.894444444444446,0.4777777777777814,1.0361111111111114,0.7277777777777779,0.6564885496183255,0.038647242016672884,1.119756432229103,66.66666666666667,1.0909090908912398,1.423664122137405,0.9316404461860657,0.9826512539161498,1
82,59.93055555555556,1.0361111111111114,0.7277777777777743,0.7277777777777779,1.423664122137405,0.0364919179374882,1.0573085607829558,63.888888888888886,1.045454545437438,0.9999999999999951,4.328968739031325e-09,0.9971085529134498,0
83,60.65833333333333,0.7277777777777743,0.7305555555555543,0.7263888888888879,1.001912045889098,0.03370380179986597,0.9765263156344566,58.333333333333336,0.9545454545298347,1.0057361376673037,1.9680021523527103e-06,0.9901608370827464,0
84,61.388888888888886,0.7305555555555543,0.6972222222222229,0.7263888888888879,1.0057361376673037,0.03763788830942105,1.090511646647717,66.66666666666667,1.0909090908912398,0.9598470363288741,2.8189631848363206e-05,0.9980119033986694,0
85,62.08611111111111,0.6972222222222229,0.7000000000000028,0.7152777777777786,0.9747572815533979,0.03674071028187307,1.064517013789619,69.44444444444444,1.1363636363450413,0.978640776699032,0.00013612276234198362,0.9970251343061676,0
86,62.78611111111111,0.7000000000000028,0.7111111111111086,0.7041666666666657,0.9940828402366918,0.03461066418345543,1.0028015408299007,61.111111111111114,0.9999999999836364,1.0098619329388538,7.070297556310834e-07,0.9985696970556115,0
87,63.49722222222222,0.7111111111111086,0.7083333333333286,0.7069444444444422,1.0058939096267188,0.03864978131928846,1.119830005407648,66.66666666666667,1.0909090908912398,1.0019646365422363,0.0005728009273298085,0.9964019038913545,0
88,64.20555555555555,0.7083333333333286,0.7250000000000085,0.7097222222222186,0.9980430528375718,0.03696598381649158,1.0710440381317758,63.888888888888886,1.045454545437438,1.02152641878671,1.7202035451191477e-05,0.9986812810876222,0
89,64.93055555555556,0.7250000000000085,0.7361111111111143,0.7180555555555586,1.0096711798839535,0.03684897960045605,1.0676539844910224,66.66666666666667,1.0909090908912398,1.0251450676982592,1.3686066267837305e-05,0.999348124393564,0
90,65.66666666666667,0.7361111111111143,0.7666666666666657,0.7180555555555586,1.0251450676982592,0.037301798158653365,1.0807738467817236,66.66666666666667,1.0909090908912398,1.0676982591876152,4.2872845369856805e-05,0.998231032081909,0
91,66.43333333333334,0.7666666666666657,0.7333333333333343,0.7263888888888914,1.0554493307839339,0.03781811130480312,1.095733386875069,69.44444444444444,1.1363636363450413,1.0095602294455044,3.944777563447133e-05,0.9981367499834821,0
92,67.16666666666667,0.7333333333333343,0.6916666666666629,0.7263888888888914,1.0095602294455044,0.03668444183179185,1.0628867044681198,63.888888888888886,1.045454545437438,0.952198852772458,2.0455397589103086e-06,0.9995235127803019,0
93,67.85833333333333,0.6916666666666629,0.6861111111111171,0.7180555555555586,0.9632495164409965,0.03404061987888517,0.9862852063286511,58.333333333333336,0.9545454545298347,0.9555125725338535,1.4552358607033966e-07,0.9982397644689927,0
94,68.54444444444445,0.6861111111111171,0.4638888888888886,0.7097222222222186,0.9667318982387609,0.03496857523439661,1.0131715745126242,63.888888888888886,1.045454545437438,0.6536203522504921,1.2727001603707322e-06,0.9985675904834208,0
95,69.00833333333334,0.4638888888888886,0.9666666666666544,0.7097222222222186,0.6536203522504921,0.03750587235579692,1.086686646323924,61.111111111111114,0.9999999999836364,1.3620352250489134,0.7354786992073059,0.9879273966069385,1
96,69.975,0.9666666666666544,0.75277777777778,0.7180555555555586,1.3462282398452383,0.03660383809903618,1.0605513101810995,66.66666666666667,1.0909090908912398,1.048355899419728,7.326448780986539e-08,0.9987340812761517,0
97,70.72777777777777,0.75277777777778,0.75,0.7291666666666714,1.0323809523809486,0.03839405840834107,1.112420747735958,69.44444444444444,1.1363636363450413,1.0285714285714218,0.00017167217447422445,0.997655609272713,0
98,71.47777777777777,0.75,0.7361111111111143,0.7347222222222243,1.0207939508506587,0.03630490847988615,1.0518901911371419,63.888888888888886,1.045454545437438,1.0018903591682435,1.0735021760410746e-06,0.9992350038436795,0
99,72.21388888888889,0.7361111111111143,0.7111111111111086,0.7361111111111143,1.0,0.03709064051014992,1.0746558129250232,63.888888888888886,1.045454545437438,0.9660377358490491,3.08092648992897e-06,0.9993832215817126,0
100,72.925,0.7111111111111086,0.7305555555555543,0.7347222222222243,0.9678638941398804,0.03657001475557578,1.0595713202924824,63.888888888888886,1.045454545437438,0.9943289224952696,5.4967808864603285e-06,0.9988826618059692,0
101,73.65555555555555,0.7305555555555543,0.7083333333333428,0.7319444444444443,0.9981024667931674,0.036580633733317144,1.0598789921471636,63.888888888888886,1.045454545437438,0.9677419354838841,2.1167427348700585e-06,0.9993627793630471,0
102,74.3638888888889,0.7083333333333428,0.6888888888888829,0.7208333333333314,0.982658959537588,0.03497359160578161,1.013316917720359,61.111111111111114,0.9999999999836364,0.9556840077071233,5.140202006259642e-07,0.9982235549323415,0
103,75.05277777777778,0.6888888888888829,0.7027777777777828,0.7208333333333314,0.9556840077071233,0.03564844651892935,1.0328700110431008,61.111111111111114,0.9999999999836364,0.9749518304431695,3.92891433875775e-06,0.9971053658389151,0
104,75.75555555555556,0.7027777777777828,0.7138888888888886,0.7208333333333314,0.9749518304431695,0.036228470447678615,1.0496754929138017,63.888888888888886,1.045454545437438,0.9903660886319867,4.144444119447144e-06,0.9994739868875866,0
105,76.46944444444445,0.7138888888888886,0.7361111111111001,0.7222222222222214,0.9884615384615391,0.03576036496949364,1.0361127108675907,63.888888888888886,1.045454545437438,1.019230769230755,2.0351917555672117e-06,0.9996067031974788,0
106,77.20555555555555,0.7361111111111001,0.75277777777778,0.7222222222222214,1.019230769230755,0.0357897032656487,1.036962752011952,63.888888888888886,1.045454545437438,1.0423076923076966,1.5934439261400257e-06,0.9991371223028933,0
107,77.95833333333333,0.75277777777778,0.74722222222222,0.7222222222222214,1.0423076923076966,0.03630564606197602,1.0519115616734682,63.888888888888886,1.045454545437438,1.0346153846153827,1.3943312069386593e-06,0.9995360011053873,0
108,78.70555555555555,0.74722222222222,0.7083333333333428,0.7222222222222214,1.0346153846153827,0.03618868957289121,1.0485228908625692,63.888888888888886,1.045454545437438,0.9807692307692449,1.0970672974508489e-06,0.9992814210957213,0
109,79.41388888888889,0.7083333333333428,0.6833333333333371,0.7124999999999986,0.994152046783641,0.036870152143872015,1.068267432965986,63.888888888888886,1.045454545437438,0.9590643274853874,7.290821940841852e-06,0.9991061552547928,0
110,80.09722222222223,0.6833333333333371,0.7055555555555486,0.7111111111111157,0.9609374999999991,0.036403604773606775,1.054749795185554,63.888888888888886,1.045454545437438,0.9921874999999838,1.1417792848078534e-05,0.9993018794887958,0
111,80.80277777777778,0.7055555555555486,0.7194444444444485,0.7083333333333428,0.9960784313725259,0.036478007080535724,1.056905510765994,63.888888888888886,1.045454545437438,1.015686274509796,1.2017323570034932e-05,0.998354531569302,0
112,81.52222222222223,0.7194444444444485,0.7111111111111086,0.7111111111111157,1.0117187499999993,0.0365643636417325,1.0594075862006023,66.66666666666667,1.0909090908912398,0.99999999999999,1.0380841558799148e-05,0.9992464653454736,0
113,82.23333333333333,0.7111111111111086,0.7361111111111143,0.7124999999999986,0.998050682261207,0.03838682078470559,1.1122110464688821,69.44444444444444,1.1363636363450413,1.0331384015594607,0.0009897655108943582,0.9968547595788486,0
114,82.96944444444445,0.7361111111111143,0.74166666666666,0.7166666666666686,1.027131782945738,0.03753805449561458,1.0876190843501141,66.66666666666667,1.0909090908912398,1.0348837209302206,3.3031807106453925e-05,0.9986470936908971,0
115,83.71111111111111,0.74166666666666,0.7361111111111143,0.7277777777777743,1.0190839694656446,0.03730389525349981,1.0808346075325759,66.66666666666667,1.0909090908912398,1.0114503816793985,2.5202647520927712e-05,0.99759356472702,0
116,84.44722222222222,0.7361111111111143,0.7222222222222285,0.7277777777777814,1.0114503816793885,0.03637725832456347,1.0539864391414173,61.111111111111114,0.9999999999836364,0.9923664122137442,1.617557131794456e-06,0.997781302682655,0
117,85.16944444444445,0.7222222222222285,0.7083333333333286,0.7208333333333385,1.0019267822736047,0.03532937160643843,1.0236252068350669,63.888888888888886,1.045454545437438,0.9826589595375586,1.3443764146359172e-06,0.9981829306175272,0
118,85.87777777777778,0.7083333333333286,0.6916666666666629,0.7152777777777786,0.9902912621359146,0.03283462962594009,0.9513431180327188,55.55555555555556,0.9090909090760331,0.9669902912621295,4.223321781182676e-08,0.995595770105804,0
119,86.56944444444444,0.6916666666666629,0.6944444444444429,0.7152777777777786,0.9669902912621295,0.03429376083916278,0.9936196551467382,61.111111111111114,0.9999999999836364,0.9708737864077637,1.5224338767438894e-06,0.9956341030348732,0
120,87.26388888888889,0.6944444444444429,0.7027777777777828,0.7152777777777786,0.9708737864077637,0.03671684242290035,1.063825471852507,63.888888888888886,1.045454545437438,0.9825242718446662,1.973315011127852e-05,0.9978295167792177,0
121,87.96666666666667,0.7027777777777828,0.73888888888888,0.7152777777777786,0.9825242718446662,0.03536290194498604,1.0245967072657396,61.111111111111114,0.9999999999836364,1.0330097087378505,1.027006533149688e-06,0.999625821252399,0
122,88.70555555555555,0.73888888888888,0.75833333333334,0.7166666666666686,1.0310077519379695,0.038127965410785176,1.1047110295248683,69.44444444444444,1.1363636363450413,1.0581395348837275,0.0003506290668155998,0.9970619388749733,0
123,89.46388888888889,0.75833333333334,0.74722222222222,0.7291666666666714,1.0400000000000023,0.03830036464089121,1.1097060857500782,66.66666666666667,1.0909090908912398,1.024761904761895,5.352393418434076e-05,0.9975420431852989,0
124,90.21111111111111,0.74722222222222,0.7166666666666686,0.7291666666666714,1.024761904761895,0.03571588647893462,1.0348240011615315,63.888888888888886,1.045454545437438,0.9828571428571391,6.993499823693128e-07,0.9987677963229593,0
125,90.92777777777778,0.7166666666666686,0.6972222222222229,0.7194444444444485,0.996138996138993,0.0366623670578626,1.0622471149707213,63.888888888888886,1.045454545437438,0.9691119691119645,6.564483101101359e-06,0.9982513485718181,0
126,91.625,0.6972222222222229,0.6916666666666629,0.7124999999999986,0.9785575048732972,0.03465020407797771,1.0039471607735408,61.111111111111114,0.9999999999836364,0.9707602339181253,3.1482920803682646e-07,0.9997443483083106,0
127,92.31666666666666,0.6916666666666629,0.7111111111111086,0.7055555555555557,0.9803149606299156,0.035135303697037525,1.0180023272063687,61.111111111111114,0.9999999999836364,1.0078740157480277,1.800209361135785e-06,0.9983383654485728,0
128,93.02777777777777,0.7111111111111086,0.7166666666666686,0.7069444444444457,1.0058939096267137,0.03497490519395889,1.0133549773265316,61.111111111111114,0.9999999999836364,1.0137524557956787,7.84035137257888e-07,0.9985705128928207,0
129,93.74444444444444,0.7166666666666686,0.7277777777777885,0.7138888888888886,1.0038910505836607,0.03468072268091153,1.0048313998590375,63.888888888888886,1.045454545437438,1.0194552529183034,9.518307138023374e-07,0.9985685473691077,0
130,94.47222222222223,0.7277777777777885,0.7305555555555543,0.7166666666666686,1.0155038759690045,0.036496344890761756,1.0574368263238993,63.888888888888886,1.045454545437438,1.019379844961236,4.092325525562046e-06,0.999099793871276,0
131,95.20277777777778,0.7305555555555543,0.74722222222222,0.7222222222222285,1.0115384615384508,0.03764954943111298,1.0908495133450589,63.888888888888886,1.045454545437438,1.0346153846153725,2.3936334400787018e-05,0.9982361362025916,0
132,95.95,0.74722222222222,0.7666666666666657,0.7222222222222285,1.0346153846153725,0.03715001186137253,1.0763760250010355,66.66666666666667,1.0909090908912398,1.0615384615384509,1.6434076314908452e-05,0.9989729756848229,0
133,96.71666666666667,0.7666666666666657,0.7138888888888886,0.7222222222222285,1.0615384615384509,0.03668217692385563,1.062821081538833,63.888888888888886,1.045454545437438,0.9884615384615294,1.5334863974203472e-06,0.9988778026352316,0
134,97.43055555555556,0.7138888888888886,0.6833333333333371,0.7166666666666686,0.9961240310077488,0.03769313138731587,1.0921122470678497,63.888888888888886,1.045454545437438,0.9534883720930261,1.67949383467203e-05,0.9987975484605093,0
135,98.1138888888889,0.6833333333333371,0.6944444444444429,0.7152777777777786,0.9553398058252469,0.03445307227913861,0.9982355087065771,58.333333333333336,0.9545454545298347,0.9708737864077637,3.8166842841746984e-07,0.9979896904705191,0
136,98.80833333333334,0.6944444444444429,0.7194444444444343,0.7152777777777786,0.9708737864077637,0.03451522558158086,1.0000363244068013,61.111111111111114,0.9999999999836364,1.0058252427184313,8.276726362055342e-07,0.9980159655740859,0
137,99.52777777777777,0.7194444444444343,0.7305555555555685,0.7180555555555515,1.0019342359767809,0.03364948019613732,0.9749524137979965,58.333333333333336,0.9545454545298347,1.0174081237911263,5.408649528249043e-08,0.9986356435535709,0
138,100.25833333333334,0.7305555555555685,0.7555555555555458,0.7236111111111114,1.009596928982743,0.036907957213495254,1.0693627884861348,66.66666666666667,1.0909090908912398,1.0441458733205236,1.696788785920944e-05,0.999018411384174,0
139,101.01388888888889,0.7555555555555458,0.7416666666666742,0.7291666666666714,1.0361904761904561,0.03814925610303454,1.1053279012173567,69.44444444444444,1.1363636363450413,1.017142857142861,0.00021741254022344947,0.9960596509291856,0
140,101.75555555555556,0.7416666666666742,0.44999999999998863,0.7305555555555614,1.0152091254752875,0.03764213898301951,1.0906348047013015,63.888888888888886,1.045454545437438,0.6159695817490289,7.011470188444946e-06,0.9985852411339697,0
141,102.20555555555555,0.44999999999998863,0.9916666666666742,0.7250000000000014,0.6206896551723969,0.03820133792116862,1.106836908013564,69.44444444444444,1.1363636363450413,1.3678160919540308,0.9071030616760254,0.9817717260511718,1
142,103.19722222222222,0.9916666666666742,0.7249999999999943,0.7250000000000014,1.3678160919540308,0.0358406261978926,1.0384381815109958,63.888888888888886,1.045454545437438,0.9999999999999902,4.401897957251322e-09,0.9987516694606577,0
143,103.92222222222222,0.7249999999999943,0.7027777777777828,0.7222222222222143,1.003846153846157,0.03886470474877398,1.1260571481491488,66.66666666666667,1.0909090908912398,0.9730769230769407,0.0002019266103161499,0.9973725658085467,0
144,104.625,0.7027777777777828,0.6916666666666629,0.7222222222222143,0.9730769230769407,0.03524581015212593,1.0212041161939165,61.111111111111114,0.9999999999836364,0.957692307692313,6.785194841540942e-07,0.9986839307608223,0
145,105.31666666666666,0.6916666666666629,0.6972222222222229,0.7222222222222143,0.957692307692313,0.03325246704407648,0.9634494446984709,55.55555555555556,0.9090909090760331,0.9653846153846268,2.859496461837807e-08,0.9982033987161101,0
146,106.01388888888889,0.6972222222222229,0.7333333333333343,0.7222222222222143,0.9653846153846268,0.03485492432845268,1.0098786789185614,61.111111111111114,0.9999999999836364,1.0153846153846278,8.931888828556112e-07,0.9985339260062758,0
147,106.74722222222222,0.7333333333333343,0.7277777777777743,0.7277777777777814,1.007633587786256,0.03588229704284231,1.0396455431294191,63.888888888888886,1.045454545437438,0.9999999999999902,1.3859763612344977e-06,0.9989016632480547,0
148,107.475,0.7277777777777743,0.7416666666666742,0.7263888888888843,1.0019120458891029,0.03645008544852038,1.0560965157273823,66.66666666666667,1.0909090908912398,1.0210325047801316,1.6031159248086624e-05,0.9976364117780858,0
149,108.21666666666667,0.7416666666666742,0.74166666666666,0.7263888888888843,1.0210325047801316,0.03595807993034525,1.0418412593385526,63.888888888888886,1.045454545437438,1.021032504780112,2.537785348977195e-06,0.9976163587700339,0
150,108.95833333333333,0.74166666666666,0.7000000000000028,0.7263888888888843,1.021032504780112,0.036804609342188314,1.0663684106828442,63.888888888888886,1.045454545437438,0.9636711281070846,2.009211129916366e-06,0.9995027428045586,0
151,109.65833333333333,0.7000000000000028,0.6749999999999972,0.7263888888888843,0.9636711281070846,0.03451639389782041,1.0000701749367704,61.111111111111114,0.9999999999836364,0.9292543021032524,3.385376601272583e-07,0.9983167741467542,0
152,110.33333333333333,0.6749999999999972,0.7083333333333428,0.7138888888888886,0.9455252918287902,0.034752390265265616,1.0069078802073166,61.111111111111114,0.9999999999836364,0.9922178988326985,1.368096945952857e-06,0.9986270587926117,0
153,111.04166666666667,0.7083333333333428,0.7111111111111086,0.7055555555555628,1.0039370078740188,0.035932143525653625,1.0410897838265405,63.888888888888886,1.045454545437438,1.0078740157480175,3.6652122616942506e-06,0.999321862908876,0
154,111.75277777777778,0.7111111111111086,0.7138888888888886,0.7097222222222257,1.0019569471624181,0.03506139038424387,1.0158607796311925,61.111111111111114,0.9999999999836364,1.0058708414872746,6.472910172306001e-07,0.9989427138682692,0
155,112.46666666666667,0.7138888888888886,0.7111111111111086,0.7124999999999986,1.001949317738793,0.03636636612479614,1.0536708510136714,63.888888888888886,1.045454545437438,0.998050682261207,6.287389624048956e-06,0.9984829491773581,0
156,113.17777777777778,0.7111111111111086,0.7361111111111143,0.7124999999999986,0.998050682261207,0.03589979610707267,1.0401525570509167,66.66666666666667,1.0909090908912398,1.0331384015594607,1.3571469935413916e-05,0.9981539777756088,0
157,113.91388888888889,0.7361111111111143,0.7277777777777743,0.7124999999999986,1.0331384015594607,0.03614902063397844,1.0473735320160023,63.888888888888886,1.045454545437438,1.0214424951267027,2.8750775982189225e-06,0.9987449652217284,0
158,114.64166666666667,0.7277777777777743,0.7083333333333286,0.7124999999999986,1.0214424951267027,0.03526133955637966,1.0216540616336014,61.111111111111114,0.9999999999836364,0.994152046783621,4.865090659222915e-07,0.998889275512938,0
159,115.35,0.7083333333333286,0.7083333333333428,0.7111111111111086,0.9960937499999969,0.03668407717668769,1.0628761390337675,63.888888888888886,1.045454545437438,0.9960937500000169,2.1312875105650164e-05,0.9969751926284636,0
160,116.05833333333334,0.7083333333333428,0.6805555555555571,0.7097222222222257,0.9980430528375819,0.03306858655763105,0.9581217331538836,61.111111111111114,0.9999999999836364,0.9589041095890386,6.622784809451332e-08,0.9986299861636228,0
161,116.7388888888889,0.6805555555555571,0.6861111111111029,0.7097222222222257,0.9589041095890386,0.03390610695121375,0.9823878592446585,58.333333333333336,0.9545454545298347,0.9667318982387313,3.0256825311880675e-07,0.997370380535342,0
162,117.425,0.6861111111111029,0.6944444444444429,0.7097222222222257,0.9667318982387313,0.034351871511267236,0.9953033405916671,61.111111111111114,0.9999999999836364,0.9784735812133002,1.2662450217248988e-06,0.9968539825746745,0
163,118.11944444444444,0.6944444444444429,0.74722222222222,0.7097222222222257,0.9784735812133002,0.035066105358362236,1.015997390222824,63.888888888888886,1.045454545437438,1.0528375733855104,4.307287326810183e-06,0.9984943574877841,0
164,118.86666666666666,0.74722222222222,0.7361111111111143,0.7097222222222257,1.0528375733855104,0.035338820869866734,1.023898987652314,63.888888888888886,1.045454545437438,1.037181996086105,9.54627921601059e-07,0.9990000005517108,0
165,119.60277777777777,0.7361111111111143,0.7333333333333343,0.7097222222222257,1.037181996086105,0.036030684359369194,1.0439448836119953,63.888888888888886,1.045454545437438,1.0332681017612486,2.222842113042134e-06,0.9993455442578759,0
166,120.33611111111111,0.7333333333333343,0.7000000000000028,0.7180555555555586,1.0212765957446779,0.03455839513820136,1.001287109357547,61.111111111111114,0.9999999999836364,0.9748549323017407,3.823124927748722e-07,0.9968292089080099,0
167,121.03611111111111,0.7000000000000028,0.6833333333333371,0.7083333333333357,0.9882352941176478,0.03518563899036536,1.0194607305886245,61.111111111111114,0.9999999999836364,0.9647058823529433,5.194482923798205e-07,0.9997823673644546,0
168,121.71944444444445,0.6833333333333371,0.6722222222222172,0.7041666666666657,0.9704142011834387,0.03573621194559492,1.0354129066265347,63.888888888888886,1.045454545437438,0.9546351084812564,5.24971528648166e-06,0.9988140283424296,0
169,122.39166666666667,0.6722222222222172,0.6972222222222229,0.6972222222222229,0.9641434262948126,0.03447964455508253,0.9990054078081569,61.111111111111114,0.9999999999836364,1.0,1.551404238853138e-06,0.9984031961141624,0
170,123.08888888888889,0.6972222222222229,0.7083333333333286,0.6958333333333329,1.0019960079840335,0.03539712526888766,1.0255882860970196,63.888888888888886,1.045454545437438,1.0179640718562812,8.946433808887377e-06,0.9972315747406851,0
171,123.79722222222222,0.7083333333333286,0.6888888888888971,0.6986111111111128,1.0139165009940265,0.03479405233470539,1.008114987566104,58.333333333333336,0.9545454545298347,0.9860834990059735,2.933428220330825e-07,0.9988586568637692,0
172,124.48611111111111,0.6888888888888971,0.7222222222222143,0.6986111111111128,0.9860834990059735,0.03605220635845092,1.0445684571362275,66.66666666666667,1.0909090908912398,1.0337972166997873,5.173917452339083e-05,0.9974160013895228,0
173,125.20833333333333,0.7222222222222143,0.7305555555555543,0.7041666666666657,1.0256410256410158,0.036155907746089705,1.047573077641606,63.888888888888886,1.045454545437438,1.0374753451676524,4.417891886987491e-06,0.9992113516546184,0
174,125.93888888888888,0.7305555555555543,0.75,0.7041666666666657,1.0374753451676524,0.035545933993947336,1.0298998363749283,63.888888888888886,1.045454545437438,1.0650887573964511,3.1567446967528667e-06,0.9984301867085477,0
175,126.68888888888888,0.75,0.4333333333333371,0.7041666666666657,1.0650887573964511,0.03598570646280466,1.0426417042295042,66.66666666666667,1.0909090908912398,0.6153846153846216,2.571973936937866e-06,0.9994482409974004,0
176,127.12222222222222,0.4333333333333371,0.9388888888888829,0.6986111111111128,0.6202783300198846,0.037555818781617255,1.08813378274714,63.888888888888886,1.045454545437438,1.3439363817097296,0.7143849730491638,0.9848346446156334,1
177,128.0611111111111,0.9388888888888829,0.6777777777777771,0.7027777777777757,1.3359683794466357,0.033495946340305935,0.9705039586518839,58.333333333333336,0.9545454545298347,0.9644268774703576,8.938138562619713e-10,0.9941154739958185,0
178,128.73888888888888,0.6777777777777771,0.6888888888888971,0.7027777777777757,0.9644268774703576,0.03424280185965938,0.9921431812225667,61.111111111111114,0.9999999999836364,0.9802371541502122,8.332355037055095e-07,0.9982859960480194,0
179,129.42777777777778,0.6888888888888971,0.6944444444444571,0.7027777777777757,0.9802371541502122,0.03496937853686173,1.01319484921621,61.111111111111114,0.9999999999836364,0.9881422924901394,1.335542378910759e-06,0.9984615121787543,0
180,130.12222222222223,0.6944444444444571,0.7277777777777601,0.7013888888888928,0.9900990099010025,0.03720456756903169,1.077956709711727,69.44444444444444,1.1363636363450413,1.0376237623762066,0.00025143165839836,0.9981460911502782,0
181,130.85,0.7277777777777601,0.7361111111111143,0.7083333333333357,1.0274509803921286,0.03644149435889679,1.0558475994434797,66.66666666666667,1.0909090908912398,1.0392156862745108,1.060671274899505e-05,0.9991469470426813,0
182,131.5861111111111,0.7361111111111143,0.7305555555555543,0.7249999999999872,1.0153256704981066,0.03641272050160279,1.0550139122227693,63.888888888888886,1.045454545437438,1.0076628352490582,1.7092467032853165e-06,0.9998026854707133,0
183,132.31666666666666,0.7305555555555543,0.7055555555555486,0.7291666666666572,1.0019047619047732,0.03545854313407904,1.0273677934049967,61.111111111111114,0.9999999999836364,0.9676190476190507,2.392690419128485e-07,0.9996152597135417,0
184,133.0222222222222,0.7055555555555486,0.700000000000017,0.7166666666666544,0.9844961240310149,0.03514816590522592,1.0183749939116773,61.111111111111114,0.9999999999836364,0.9767441860465522,5.376261356104806e-07,0.9992051487531536,0
185,133.72222222222223,0.700000000000017,0.7027777777777828,0.7027777777777828,0.9960474308300566,0.03525717103927266,1.0215332839635827,63.888888888888886,1.045454545437438,1.0,2.4640401079523144e-06,0.9989865863727139,0
186,134.425,0.7027777777777828,0.6916666666666629,0.7041666666666657,0.9980276134122373,0.03502221465013756,1.0147257107889212,58.333333333333336,0.9545454545298347,0.9822485207100551,3.366426710726955e-07,0.9990407072352034,0
187,135.11666666666667,0.6916666666666629,0.6833333333333371,0.7013888888888999,0.9861386138613651,0.0354597875343403,1.0274038483761694,61.111111111111114,0.9999999999836364,0.9742574257425644,1.2175432857475244e-06,0.9995079164601455,0
188,135.8,0.6833333333333371,0.7111111111111086,0.7013888888888999,0.9742574257425644,0.034199564663150904,0.9908904364890347,61.111111111111114,0.9999999999836364,1.0138613861385943,5.551049753194093e-07,0.9993073300203887,0
189,136.51111111111112,0.7111111111111086,0.73888888888888,0.7041666666666657,1.0098619329388538,0.03676435439076929,1.065202072842719,66.66666666666667,1.0909090908912398,1.049309664694269,3.3170257665915415e-05,0.9989287963865683,0
190,137.25,0.73888888888888,0.74444444444444,0.7083333333333286,1.0431372549019553,0.03585354889222975,1.0388126007282714,61.111111111111114,0.9999999999836364,1.0509803921568635,7.92168066254817e-07,0.9997470506911199,0
191,137.99444444444444,0.74444444444444,0.7333333333333485,0.7083333333333286,1.0509803921568635,0.03633613781927309,1.0527950229395693,63.888888888888886,1.045454545437438,1.0352941176470871,2.3907728063932154e-06,0.9996136322894961,0
192,138.7277777777778,0.7333333333333485,0.7111111111111086,0.7083333333333286,1.0352941176470871,0.037500199494636524,1.0865222821302059,66.66666666666667,1.0909090908912398,1.003921568627454,3.411754732951522e-05,0.9982593176461638,0
193,139.4388888888889,0.7111111111111086,0.6944444444444287,0.7083333333333286,1.003921568627454,0.03533604881712277,1.0238186708242931,61.111111111111114,0.9999999999836364,0.9803921568627294,9.234526032741996e-07,0.9985384634105321,0
194,140.13333333333333,0.6944444444444287,0.6750000000000114,0.7069444444444457,0.9823182711198187,0.03412502484176078,0.9887307365957594,58.333333333333336,0.9545454545298347,0.9548133595285017,1.3151750977158372e-07,0.9989258200744279,0
195,140.80833333333334,0.6750000000000114,0.7166666666666686,0.7069444444444457,0.9548133595285017,0.03505560834983829,1.0156932522766084,61.111111111111114,0.9999999999836364,1.0137524557956787,1.5087633755683783e-06,0.9997574327731409,0
196,141.525,0.7166666666666686,0.7166666666666686,0.7111111111111086,1.0078125000000062,0.037064827443999214,1.0739079109959453,63.888888888888886,1.045454545437438,1.0078125000000062,1.3382248653215356e-05,0.9986113675010109,0
197,142.24166666666667,0.7166666666666686,0.7361111111111143,0.7138888888888886,1.0038910505836607,0.036106007476885464,1.0461272785497249,66.66666666666667,1.0909090908912398,1.0311284046692655,7.241836101457011e-06,0.9996182059392243,0
198,142.9777777777778,0.7361111111111143,0.7305555555555543,0.7166666666666686,1.027131782945738,0.03467480693891103,1.0046599984908982,61.111111111111114,0.9999999999836364,1.019379844961236,2.4008940613384766e-07,0.9987190323913946,0
199,143.70833333333334,0.7305555555555543,0.73888888888888,0.7236111111111114,1.0095969289827234,0.03498751379692078,1.0137202961314777,63.888888888888886,1.045454545437438,1.0211132437619834,5.904425393055135e-07,0.9992240097289353,0
200,144.44722222222222,0.73888888888888,0.7083333333333428,0.7236111111111114,1.0211132437619834,0.03615277391611997,1.0474822787622289,66.66666666666667,1.0909090908912398,0.9788867562380165,2.3250747744896216e-06,0.9996590147417939,0
201,145.15555555555557,0.7083333333333428,0.7111111111111086,0.7166666666666686,0.9883720930232665,0.035425654077563894,1.0264148733346101,61.111111111111114,0.9999999999836364,0.9922480620154978,6.865248565190996e-07,0.9994717816950034,0
202,145.86666666666667,0.7111111111111086,0.7138888888888744,0.7138888888888886,0.9961089494163393,0.03550526255599594,1.0287214313483952,63.888888888888886,1.045454545437438,0.9999999999999801,1.8861729813579586e-06,0.9991575653478991,0
203,146.58055555555555,0.7138888888888744,0.6972222222222229,0.7152777777777715,0.9980582524271729,0.03513341740421555,1.017947674185603,61.111111111111114,0.9999999999836364,0.9747572815534076,4.5958555006109236e-07,0.9989856746073145,0
204,147.27777777777777,0.6972222222222229,0.6972222222222229,0.7152777777777715,0.9747572815534076,0.03527704597904903,1.0221091359647463,58.333333333333336,0.9545454545298347,0.9747572815534076,3.001165964633401e-07,0.9997025437345055,0
205,147.975,0.6972222222222229,0.7388888888889085,0.7152777777777715,0.9747572815534076,0.03591972580540669,1.040729995614121,63.888888888888886,1.045454545437438,1.0330097087379007,5.015519036533078e-06,0.9996269019681145,0
206,148.7138888888889,0.7388888888889085,0.7694444444444173,0.7152777777777715,1.0330097087379007,0.037362484790856194,1.0825321675107973,69.44444444444444,1.1363636363450413,1.0757281553397773,0.00011052851186832413,0.9981677538106355,0
207,149.48333333333332,0.7694444444444173,0.7333333333333485,0.7222222222222143,1.0653846153845894,0.035906339770465666,1.0403421516711873,63.888888888888886,1.045454545437438,1.0153846153846475,4.6815102905384265e-07,0.9998144128492108,0
208,150.21666666666667,0.7333333333333485,0.7055555555555486,0.7222222222222143,1.0153846153846475,0.036537958406731436,1.0586425269054471,66.66666666666667,1.0909090908912398,0.976923076923078,5.7780662245932035e-06,0.9988774852735375,0
209,150.92222222222222,0.7055555555555486,0.7083333333333428,0.7124999999999915,0.9902534113060449,0.03598395317548031,1.042590904879886,63.888888888888886,1.045454545437438,0.9941520467836509,4.222760708216811e-06,0.9988976905759543,0
210,151.63055555555556,0.7083333333333428,0.6944444444444287,0.7097222222222257,0.9980430528375819,0.035421325126224854,1.0262894472795088,63.888888888888886,1.045454545437438,0.9784735812132802,1.695306423243892e-06,0.99907849625318,0
211,152.325,0.6944444444444287,0.7027777777777828,0.7097222222222257,0.9784735812132802,0.03404344907159042,0.9863671787169617,58.333333333333336,0.9545454545298347,0.9902152641878692,2.2491333595553442e-07,0.997849832450548,0
212,153.02777777777777,0.7027777777777828,0.7166666666666686,0.7069444444444457,0.9941060903732863,0.03436468964088146,0.9956747301743568,61.111111111111114,0.9999999999836364,1.0137524557956787,3.9316023503488395e-07,0.9990556462759359,0
213,153.74444444444444,0.7166666666666686,0.7194444444444628,0.7069444444444457,1.0137524557956787,0.03638303025152873,1.054153673645316,63.888888888888886,1.045454545437438,1.0176817288801812,6.018617114023073e-06,0.9989435761356363,0
214,154.4638888888889,0.7194444444444628,0.7361111111110858,0.7125000000000057,1.0097465886939747,0.03623155271673831,1.0497647978790554,63.888888888888886,1.045454545437438,1.0331384015594105,3.559744300218881e-06,0.9996836533598157,0
215,155.2,0.7361111111110858,0.7416666666666742,0.7180555555555657,1.0251450676982097,0.03619743994937746,1.048776422287934,63.888888888888886,1.045454545437438,1.0328820116054118,2.2120486846688436e-06,0.9993464148084907,0
216,155.94166666666666,0.7416666666666742,0.76111111111112,0.7180555555555657,1.0328820116054118,0.03651035480198515,1.0578427463168598,66.66666666666667,1.0909090908912398,1.0599613152804617,7.451747933373554e-06,0.9994499183352656,0
217,156.70277777777778,0.76111111111112,0.7055555555555486,0.7180555555555657,1.0599613152804617,0.03668079525262605,1.0627810493097316,63.888888888888886,1.045454545437438,0.982591876208874,2.0214019968989305e-06,0.9987082479200979,0
218,157.40833333333333,0.7055555555555486,0.6972222222222229,0.7125000000000057,0.9902534113060253,0.03466157507242002,1.0042766213896988,61.111111111111114,0.9999999999836364,0.9785575048732874,3.426010835028137e-07,0.999121089816936,0
219,158.10555555555555,0.6972222222222229,0.6861111111111029,0.7125000000000057,0.9785575048732874,0.03521553845878495,1.02032703101101,58.333333333333336,0.9545454545298347,0.9629629629629437,6.070376343814132e-07,0.9978599566142085,0
220,158.79166666666666,0.6861111111111029,0.4166666666666856,0.7111111111111086,0.9648437499999919,0.03551428458569729,1.0289828335924542,58.333333333333336,0.9545454545298347,0.5859375000000288,7.286861887223495e-07,0.9983103885685235,0
221,159.20833333333334,0.4166666666666856,0.9749999999999943,0.7111111111111086,0.5859375000000288,0.03828312731002296,1.1092066552317024,69.44444444444444,1.1363636363450413,1.371093749999997,0.7438786625862122,0.9858263006680799,1
222,160.18333333333334,0.9749999999999943,0.76111111111112,0.7180555555555657,1.3578336557059691,0.035557729111589,1.0302415854405524,63.888888888888886,1.045454545437438,1.0599613152804617,4.243409179593982e-09,0.9996943705450936,0
223,160.94444444444446,0.76111111111112,0.7472222222222058,0.7277777777777743,1.0458015267175744,0.03665320414207837,1.0619816307252237,63.888888888888886,1.045454545437438,1.0267175572518907,2.3820971364330035e-06,0.9983741428890589,0
224,161.69166666666666,0.7472222222222058,0.7305555555555543,0.73888888888888,1.0112781954887118,0.034270503969076486,0.9929458158631637,61.111111111111114,0.9999999999836364,0.9887218045112883,4.556338240035984e-08,0.999314045918549,0
225,162.42222222222222,0.7305555555555543,0.7138888888889028,0.7361111111111143,0.9924528301886733,0.03674522481851405,1.0646478169512026,66.66666666666667,1.0909090908912398,0.9698113207547316,5.719907221646281e-06,0.9994284223132155,0
226,163.13611111111112,0.7138888888889028,0.7083333333333144,0.7222222222222285,0.988461538461549,0.035542654725503116,1.0298048235941497,61.111111111111114,0.9999999999836364,0.980769230769196,6.445264943977236e-07,0.9991637880998174,0
227,163.84444444444443,0.7083333333333144,0.7083333333333428,0.7111111111111086,0.9960937499999769,0.035223073440348446,1.020545347859307,63.888888888888886,1.045454545437438,0.9960937500000169,2.0410247998370323e-06,0.9984565774597106,0
228,164.55277777777778,0.7083333333333428,0.7027777777777828,0.7111111111111228,0.996093749999997,0.03485785836183321,1.0099636889368393,58.333333333333336,0.9545454545298347,0.9882812499999909,2.1059933885680948e-07,0.9991039507203714,0
229,165.25555555555556,0.7027777777777828,0.6944444444444287,0.7111111111111228,0.9882812499999909,0.035327051621578655,1.023557988119478,63.888888888888886,1.045454545437438,0.9765624999999617,3.108272494500852e-06,0.997802828977673,0
230,165.95,0.6944444444444287,0.7222222222222285,0.7111111111111228,0.9765624999999617,0.035610553813694046,1.0317721163885873,63.888888888888886,1.045454545437438,1.0156249999999922,4.079995960637461e-06,0.9992450978267471,0
231,166.67222222222222,0.7222222222222285,0.74444444444444,0.7180555555555657,1.0058027079303622,0.03662853404147773,1.0612668448209828,66.66666666666667,1.0909090908912398,1.0367504835589734,1.708372110442724e-05,0.9987384649149702,0
232,167.41666666666666,0.74444444444444,0.7583333333333542,0.7180555555555657,1.0367504835589734,0.035760510998928886,1.0361169418913554,63.888888888888886,1.045454545437438,1.0560928433269001,2.2066735709813656e-06,0.9981791966326647,0
233,168.175,0.7583333333333542,0.7361111111110858,0.7180555555555657,1.0560928433269001,0.036490458672353294,1.0572662803656254,63.888888888888886,1.045454545437438,1.0251450676982097,1.6772246453911066e-06,0.9993773229731998,0
234,168.9111111111111,0.7361111111110858,0.7027777777777828,0.7180555555555657,1.0251450676982097,0.037140146430172216,1.0760901862330712,66.66666666666667,1.0909090908912398,0.9787234042553125,9.568751011101995e-06,0.9991875609800203,0
235,169.61388888888888,0.7027777777777828,0.6916666666666629,0.7111111111111228,0.9882812499999909,0.0353368364684439,1.0238414920551795,63.888888888888886,1.045454545437438,0.9726562499999787,2.21800769395486e-06,0.9984974138680408,0
236,170.30555555555554,0.6916666666666629,0.6888888888888971,0.7083333333333286,0.9764705882352953,0.03427507416451676,0.993078231670185,58.333333333333336,0.9545454545298347,0.9725490196078612,2.147309032807243e-07,0.998454761780176,0
237,170.99444444444444,0.6888888888888971,0.7222222222222285,0.7055555555555628,0.9763779527559071,0.03418857845711814,0.990572124645057,61.111111111111114,0.9999999999836364,1.023622047244093,5.363760351428937e-07,0.9990611047697981,0
238,171.71666666666667,0.7222222222222285,0.7277777777777885,0.7125000000000057,1.0136452241715408,0.036357310713991814,1.0534084815930993,66.66666666666667,1.0909090908912398,1.0214424951267125,8.133562914736103e-06,0.9994375362170294,0
239,172.44444444444446,0.7277777777777885,0.74444444444444,0.7222222222222285,1.0076923076923137,0.0360507313516133,1.0445257206223697,63.888888888888886,1.045454545437438,1.0307692307692156,2.567085175542161e-06,0.9990929249223768,0
240,173.1888888888889,0.74444444444444,0.7249999999999943,0.7250000000000085,1.0268199233716293,0.03558501829766549,1.0310322561338523,63.888888888888886,1.045454545437438,0.9999999999999803,8.006471716726082e-07,0.99876463968727,0
241,173.9138888888889,0.7249999999999943,0.7416666666666742,0.7263888888888914,0.9980879541108874,0.034079641504743706,0.9874158100734743,61.111111111111114,0.9999999999836364,1.0210325047801216,3.0442325282820093e-07,0.9970522285457493,0
242,174.65555555555557,0.7416666666666742,0.7027777777777544,0.7263888888888914,1.0210325047801216,0.036173874163444614,1.0480936325466257,61.111111111111114,0.9999999999836364,0.9674952198852417,7.415256391141156e-07,0.9985034036448557,0
243,175.35833333333332,0.7027777777777544,0.7027777777777828,0.7236111111111114,0.9712092130517906,0.0354933984911284,1.0283776846214727,63.888888888888886,1.045454545437438,0.97120921305183,1.7187059029311058e-06,0.9991218204032957,0
244,176.0611111111111,0.7027777777777828,0.7027777777777828,0.7125000000000057,0.9863547758284592,0.03635891231101119,1.0534548859021962,63.888888888888886,1.045454545437438,0.9863547758284592,5.388289991969941e-06,0.9993515237237747,0
245,176.76388888888889,0.7027777777777828,0.6972222222222229,0.7125000000000057,0.9863547758284592,0.03305354933543111,0.9576860480854904,58.333333333333336,0.9545454545298347,0.9785575048732874,6.637390725927617e-08,0.9973083679930406,0
246,177.4611111111111,0.6972222222222229,0.6888888888888971,0.7125000000000057,0.9785575048732874,0.034457195935656014,0.9983549865960388,61.111111111111114,0.9999999999836364,0.9668615984405496,5.725320306737558e-07,0.9978108311959792,0
247,178.15,0.6888888888888971,0.7361111111111143,0.7125000000000057,0.9668615984405496,0.03396220676262781,0.9840132824676309,58.333333333333336,0.9545454545298347,1.0331384015594505,2.3427847395396384e-07,0.9986269017412375,0
248,178.88611111111112,0.7361111111111143,0.7638888888888857,0.7138888888888886,1.0311284046692655,0.036601713474562945,1.0604897517930791,63.888888888888886,1.045454545437438,1.0700389105058326,6.76516538078431e-06,0.9988649693656448,0
249,179.65,0.7638888888888857,0.7277777777777601,0.7138888888888886,1.0700389105058326,0.03527000695468496,1.0219051888679553,63.888888888888886,1.045454545437438,1.0194552529182637,3.532428536345833e-07,0.999682009236855,0
250,180.37777777777777,0.7277777777777601,0.6972222222222229,0.7138888888888886,1.0194552529182637,0.03561400503827691,1.0318721113875593,63.888888888888886,1.045454545437438,0.9766536964980558,2.8389436010911595e-06,0.997163808170846,0
251,181.075,0.6972222222222229,0.6944444444444571,0.7027777777777828,0.9920948616600728,0.03589477759853292,1.0400071519217446,61.111111111111114,0.9999999999836364,0.9881422924901294,1.98728275790927e-06,0.9993488638029991,0
252,181.76944444444445,0.6944444444444571,0.6888888888888971,0.7027777777777686,0.9881422924901494,0.03539175575828501,1.0254327111136186,61.111111111111114,0.9999999999836364,0.9802371541502221,1.796899027795007e-06,0.9983521520812364,0
253,182.45833333333334,0.6888888888888971,0.6888888888888687,0.7000000000000028,0.9841269841269918,0.03329639716194964,0.9647222659785982,55.55555555555556,0.9090909090760331,0.9841269841269512,1.3110050645082083e-07,0.996136479107679,0
254,183.1472222222222,0.6888888888888687,0.7083333333333428,0.6972222222222229,0.9880478087649104,0.03439600009271551,0.9965819121104456,61.111111111111114,0.9999999999836364,1.0159362549800923,6.319185672509775e-07,0.9992896183830042,0
255,183.85555555555555,0.7083333333333428,0.7111111111111086,0.6972222222222229,1.0159362549800923,0.03636202478505438,1.0535450660197971,63.888888888888886,1.045454545437438,1.0199203187250951,2.443017547193449e-05,0.9967654430399899,0
256,184.56666666666666,0.7111111111111086,0.7249999999999943,0.7027777777777828,1.0118577075098705,0.03832377497566572,1.110384371484752,66.66666666666667,1.0909090908912398,1.0316205533596683,0.00020206566841807216,0.9985997910661115,0
257,185.29166666666666,0.7249999999999943,0.45277777777778283,0.7097222222222257,1.0215264187866797,0.03607762763864058,1.0453050075476538,63.888888888888886,1.045454545437438,0.6379647749510803,2.1557843865593895e-06,0.9990137993974186,0
258,185.74444444444444,0.45277777777778283,1.0,0.7027777777777828,0.6442687747035599,0.03926304351823239,1.1375985253867498,66.66666666666667,1.0909090908912398,1.4229249011857605,0.8508751392364502,0.9856909246429757,1
259,186.74444444444444,1.0,0.7166666666666686,0.7027777777777828,1.4229249011857605,0.03694334764217983,1.0703881827469155,66.66666666666667,1.0909090908912398,1.0197628458497978,1.4255221003622864e-07,0.997367247656824,0
260,187.4611111111111,0.7166666666666686,0.6916666666666629,0.7027777777777828,1.0197628458497978,0.03419781584367781,0.9908397665899262,55.55555555555556,0.9090909090760331,0.9841897233201456,1.247188805564292e-07,0.9970213872724611,0
261,188.15277777777777,0.6916666666666629,0.6750000000000114,0.7013888888888999,0.9861386138613651,0.03456046551642448,1.0013470960270094,61.111111111111114,0.9999999999836364,0.9623762376237635,1.717164195724763e-06,0.9963686435853663,0
262,188.82777777777778,0.6750000000000114,0.6861111111111029,0.7000000000000028,0.9642857142857266,0.03634591943178561,1.0530784331638678,63.888888888888886,1.045454545437438,0.9801587301587145,2.0487341316766106e-05,0.9984768112087632,0
263,189.51388888888889,0.6861111111111029,0.6944444444444571,0.7000000000000028,0.9801587301587145,0.03612494409246903,1.0466759437583624,61.111111111111114,0.9999999999836364,0.9920634920635061,4.1959533518820535e-06,0.9991934936558109,0
264,190.20833333333334,0.6944444444444571,0.7361111111111143,0.7013888888888999,0.9900990099009925,0.036054769743735726,1.0446427280805735,63.888888888888886,1.045454545437438,1.0495049504950376,8.932793207350187e-06,0.9995093609393901,0
265,190.94444444444446,0.7361111111111143,0.74444444444444,0.7027777777777828,1.0474308300395228,0.036541239458427674,1.0587375913537653,66.66666666666667,1.0909090908912398,1.0592885375493932,1.7085252693505026e-05,0.9985193550377234,0
266,191.6888888888889,0.74444444444444,0.7222222222222001,0.7055555555555628,1.0551181102362033,0.03572440126120859,1.0350707065335785,63.888888888888886,1.045454545437438,1.0236220472440527,2.171022970287595e-06,0.9983097446138158,0
267,192.4111111111111,0.7222222222222001,0.705555555555577,0.7055555555555628,1.0236220472440527,0.03727635470705473,1.080036653980918,66.66666666666667,1.0909090908912398,1.0000000000000202,2.9083552362862974e-05,0.9987343276796193,0
268,193.11666666666667,0.705555555555577,0.6916666666666629,0.7111111111111228,0.9921875000000139,0.03585384040481907,1.0388210469479742,58.333333333333336,0.9545454545298347,0.9726562499999787,9.464359891353524e-07,0.998147693572111,0
269,193.80833333333334,0.6916666666666629,0.7111111111111086,0.700000000000017,0.9880952380952086,0.03574583093270518,1.0356916049792815,61.111111111111114,0.9999999999836364,1.0158730158729876,2.5910708245646674e-06,0.9993687858628404,0
270,194.51944444444445,0.7111111111111086,0.6805555555555429,0.700000000000017,1.0158730158729876,0.03467602469132368,1.0046952813733439,58.333333333333336,0.9545454545298347,0.9722222222221805,1.6878422570698604e-07,0.9994396677896411,0
271,195.2,0.6805555555555429,0.6972222222222229,0.700000000000017,0.9722222222221805,0.03433435453297878,0.9947958076323099,58.333333333333336,0.9545454545298347,0.9960317460317226,5.615658551505476e-07,0.9978482352072332,0
272,195.8972222222222,0.6972222222222229,0.7138888888889028,0.7013888888888999,0.9940594059405793,0.0351428825958218,1.0182219165022683,61.111111111111114,0.9999999999836364,1.0178217821782216,2.1236537577351555e-06,0.9979019161872869,0
273,196.61111111111111,0.7138888888889028,0.73888888888888,0.7083333333333428,1.0078431372549082,0.0345969552781971,1.0024043421155602,58.333333333333336,0.9545454545298347,1.0431372549019344,2.515848791517783e-07,0.9987285074155945,0
274,197.35,0.73888888888888,0.7333333333333485,0.7125000000000057,1.0370370370370163,0.03659861690881458,1.0604000325988077,66.66666666666667,1.0909090908912398,1.0292397660818844,7.666836609132588e-06,0.9992947691465704,0
275,198.08333333333334,0.7333333333333485,0.74444444444444,0.7125000000000057,1.0292397660818844,0.03800249470732364,1.1010756697960487,66.66666666666667,1.0909090908912398,1.0448343079921882,7.84194198786281e-05,0.9984583901147681,0
276,198.82777777777778,0.74444444444444,0.7027777777777828,0.7125000000000057,1.0448343079921882,0.03760086708793808,1.089439002165954,63.888888888888886,1.045454545437438,0.9863547758284592,1.2510508895502426e-05,0.9980835841121489,0
277,199.53055555555557,0.7027777777777828,0.6861111111111029,0.7083333333333428,0.9921568627450918,0.03416068496984511,0.9897639450658311,58.333333333333336,0.9545454545298347,0.9686274509803676,1.405095417794655e-07,0.9984919959970646,0
278,200.21666666666667,0.6861111111111029,0.6888888888888971,0.7069444444444457,0.9705304518663914,0.034805483153612864,1.0084461815227586,58.333333333333336,0.9545454545298347,0.974459724950894,5.900974997530284e-07,0.997985672631319,0
279,200.90555555555557,0.6888888888888971,0.44444444444442865,0.7069444444444457,0.974459724950894,0.036423804859059154,1.0553350678838522,61.111111111111114,0.9999999999836364,0.628683693516676,2.262981524836505e-06,0.9996977900840827,0
280,201.35,0.44444444444442865,0.9972222222222342,0.7000000000000028,0.6349206349206098,0.0387000176480297,1.1212855414123988,63.888888888888886,1.045454545437438,1.424603174603186,0.7524696588516235,0.9863146901404887,1
281,202.34722222222223,0.9972222222222342,0.75555555555556,0.7083333333333428,1.4078431372549,0.034741666048337165,1.0065971591762772,61.111111111111114,0.9999999999836364,1.0666666666666587,1.6624150944721805e-09,0.995345821619398,0
282,203.1027777777778,0.75555555555556,0.7249999999999943,0.7236111111111256,1.0441458733205227,0.03585415312243734,1.0388301075573798,63.888888888888886,1.045454545437438,1.0019193857965172,9.205949140778102e-07,0.998642658788415,0
283,203.82777777777778,0.7249999999999943,0.7361111111111143,0.7291666666666714,0.9942857142857,0.03796803831990029,1.1000773382351048,69.44444444444444,1.1363636363450413,1.0095238095238073,0.00017798817134462297,0.9981506886046612,0
284,204.5638888888889,0.7361111111111143,0.7194444444444343,0.7291666666666714,1.0095238095238073,0.037044542367337695,1.0733201757816135,66.66666666666667,1.0909090908912398,0.9866666666666464,1.4412958080356475e-05,0.9979595090813371,0
285,205.28333333333333,0.7194444444444343,0.7138888888889028,0.7222222222222143,0.9961538461538431,0.037025055256268986,1.0727555606415389,63.888888888888886,1.045454545437438,0.9884615384615685,1.1844991604448296e-05,0.9979405012814448,0
286,205.99722222222223,0.7138888888889028,0.3916666666666515,0.7166666666666686,0.9961240310077687,0.03728531520710214,1.0802962734787271,63.888888888888886,1.045454545437438,0.5465116279069542,6.762365956092253e-06,0.9993168137073196,0
287,206.38888888888889,0.3916666666666515,0.99444444444444,0.7166666666666686,0.5465116279069542,0.0376423480561075,1.090640862337574,66.66666666666667,1.0909090908912398,1.3875968992247965,0.7125145196914673,0.9784401950874935,1
288,207.38333333333333,0.99444444444444,0.7166666666666686,0.7222222222222143,1.3769230769230858,0.03591461195095054,1.0405818279539734,61.111111111111114,0.9999999999836364,0.9923076923077058,3.1380797960167683e-09,0.9963468419941804,0
289,208.1,0.7166666666666686,0.7416666666666742,0.7222222222222143,0.9923076923077058,0.03701380787744984,1.0724296816364334,63.888888888888886,1.045454545437438,1.0269230769230986,2.005706846830435e-05,0.9977749544145214,0
290,208.84166666666667,0.7416666666666742,0.7666666666666515,0.7305555555555543,1.0152091254752973,0.03875583018845273,1.122902641310776,66.66666666666667,1.0909090908912398,1.0494296577946578,0.00018158595776185393,0.9978180318366219,0
291,209.60833333333332,0.7666666666666515,0.7444444444444684,0.7305555555555543,1.0494296577946578,0.03709854733389124,1.0748849034443162,66.66666666666667,1.0909090908912398,1.0190114068441412,5.510884420800721e-06,0.9989462350016081,0
292,210.3527777777778,0.7444444444444684,0.7083333333333144,0.7305555555555543,1.0190114068441412,0.03524076085919608,1.0210578191248016,63.888888888888886,1.045454545437438,0.9695817490494054,5.302837848830677e-07,0.9982078570058674,0
293,211.0611111111111,0.7083333333333144,0.6944444444444571,0.7277777777777743,0.9732824427480702,0.03464420835325764,1.00377344200421,61.111111111111114,0.9999999999836364,0.9541984732824647,2.1367154090512486e-07,0.9992094888537166,0
294,211.75555555555556,0.6944444444444571,0.6999999999999886,0.7180555555555515,0.9671179883946073,0.03459646974797643,1.0023902744729738,58.333333333333336,0.9545454545298347,0.9748549323017306,2.3726647668809164e-07,0.9986600691764284,0
295,212.45555555555555,0.6999999999999886,0.700000000000017,0.7152777777777857,0.9786407766990024,0.03358758924957334,0.9731591995375362,58.333333333333336,0.9545454545298347,0.9786407766990421,1.4285923555235058e-07,0.9969886875259872,0
296,213.15555555555557,0.700000000000017,0.7222222222222001,0.7124999999999915,0.9824561403509129,0.035820936673927516,1.0378677017055307,61.111111111111114,0.9999999999836364,1.013645224171521,1.7201045920955949e-06,0.9995354857042299,0
297,213.87777777777777,0.7222222222222001,0.7250000000000227,0.7194444444444343,1.0038610038609872,0.03701937586892175,1.0725910073595621,63.888888888888886,1.045454545437438,1.0077220077220534,8.631745913589839e-06,0.9988694365082071,0
298,214.6027777777778,0.7250000000000227,0.7472222222222058,0.7194444444444343,1.0077220077220534,0.03482555583984786,1.0090277629850026,61.111111111111114,0.9999999999836364,1.0386100386100303,2.618347707539215e-07,0.9997436178666823,0
299,215.35,0.7472222222222058,0.7249999999999943,0.7236111111111114,1.0326295585412437,0.03623615202315134,1.0498980571408048,61.111111111111114,0.9999999999836364,1.0019193857965367,1.1044734264942235e-06,0.9979793400153021,0
300,216.075,0.7249999999999943,0.7444444444444684,0.7236111111110972,1.0019193857965565,0.03799207706380128,1.1007738313534037,66.66666666666667,1.0909090908912398,1.0287907869482296,6.136109004728496e-05,0.9989993906554755,0
301,216.81944444444446,0.7444444444444684,0.7138888888888744,0.7236111111110972,1.0287907869482296,0.03598245175723556,1.0425474031279032,63.888888888888886,1.045454545437438,0.9865642994241831,1.0337887488276465e-06,0.9990561080843221,0
302,217.53333333333333,0.7138888888888744,0.6916666666666629,0.7180555555555372,0.9941972920696376,0.034547330948078485,1.0009665380202146,66.66666666666667,1.0909090908912398,0.9632495164410251,1.5352130731116631e-06,0.9981133871641203,0
303,218.225,0.6916666666666629,0.6833333333333371,0.7180555555555372,0.9632495164410251,0.035772921835631036,1.0364765306615082,63.888888888888886,1.045454545437438,0.9516441005803004,7.520527105953079e-06,0.9971757518810684,0
304,218.90833333333333,0.6833333333333371,0.7083333333333428,0.7180555555555372,0.9516441005803004,0.0355143989961469,1.0289861484948943,61.111111111111114,0.9999999999836364,0.9864603481625142,2.3517218323831912e-06,0.9985725698807284,0
305,219.61666666666667,0.7083333333333428,0.7055555555555486,0.7180555555555372,0.9864603481625142,0.0364042372445987,1.054768120256748,63.888888888888886,1.045454545437438,0.9825918762089129,5.519204933079891e-06,0.9988183788495452,0
306,220.32222222222222,0.7055555555555486,0.7416666666666742,0.7180555555555372,0.9825918762089129,0.03595949395481565,1.041882228963122,63.888888888888886,1.045454545437438,1.0328820116054527,7.284101229743101e-06,0.9982601690434758,0
307,221.0638888888889,0.7416666666666742,0.75555555555556,0.7194444444444343,1.030888030888056,0.03721672719753996,1.0783090200325975,63.888888888888886,1.045454545437438,1.0501930501930712,1.6261665223282762e-05,0.9975797420210819,0
308,221.81944444444446,0.75555555555556,0.7361111111110858,0.7194444444444343,1.0501930501930712,0.037465542204860085,1.085518129670011,66.66666666666667,1.0909090908912398,1.0231660231660025,0.00032740196911618114,0.991827679191634,0
309,222.55555555555554,0.7361111111110858,0.6916666666666913,0.7194444444444343,1.0231660231660025,0.037543349781825476,1.0877725087728087,61.111111111111114,0.9999999999836364,0.9613899613900091,3.296824070275761e-05,0.9941281164586419,0
310,223.24722222222223,0.6916666666666913,0.7083333333333144,0.7111111111111086,0.9726562500000381,0.03381872922974234,0.9798561969436612,61.111111111111114,0.9999999999836364,0.9960937499999769,3.149643248434586e-07,0.9985082392520777,0
311,223.95555555555555,0.7083333333333144,0.7138888888889028,0.7083333333333286,0.9999999999999799,0.03645993655973417,1.056381939591302,63.888888888888886,1.045454545437438,1.0078431372549284,8.722206075617578e-06,0.9986735919248968,0
312,224.66944444444445,0.7138888888889028,0.6916666666666629,0.7083333333333286,1.0078431372549284,0.03461699646292116,1.0029850108601648,61.111111111111114,0.9999999999836364,0.9764705882352953,2.879808960187802e-07,0.9991621614716708,0
313,225.36111111111111,0.6916666666666629,0.6916666666666629,0.7083333333333286,0.9764705882352953,0.03506871866901964,1.0160731076936018,61.111111111111114,0.9999999999836364,0.9764705882352953,6.088999953135499e-07,0.9998931795718171,0
314,226.05277777777778,0.6916666666666629,0.7277777777777885,0.7083333333333286,0.9764705882352953,0.03559771478560674,1.0314001212982746,63.888888888888886,1.045454545437438,1.027450980392179,5.187060196476523e-06,0.9991692076798118,0
315,226.78055555555557,0.7277777777777885,0.7361111111111143,0.7111111111111086,1.0234375000000187,0.03753192550667797,1.0874415044135726,66.66666666666667,1.0909090908912398,1.0351562500000082,8.581951988162473e-05,0.9972110685743614,0
316,227.51666666666668,0.7361111111111143,0.7361111111110858,0.7208333333333456,1.0211946050096208,0.03461197203252289,1.002839434152406,61.111111111111114,0.9999999999836364,1.0211946050095815,1.5185112545168522e-07,0.9993779888222263,0
317,228.25277777777777,0.7361111111110858,0.7361111111111143,0.7208333333333456,1.0211946050095815,0.035567546781516225,1.0305260403842136,63.888888888888886,1.045454545437438,1.0211946050096208,1.051926801665104e-06,0.9990999570648855,0
318,228.98888888888888,0.7361111111111143,0.7027777777777828,0.7208333333333456,1.0211946050096208,0.03691434329623904,1.069547817400385,66.66666666666667,1.0909090908912398,0.9749518304431503,6.4628152358636726e-06,0.9993927190667878,0
319,229.69166666666666,0.7027777777777828,0.6805555555555713,0.7111111111111086,0.9882812500000107,0.03457824703925513,1.001862293839983,58.333333333333336,0.9545454545298347,0.9570312500000256,2.108330505734557e-07,0.9983633183050277,0
320,230.37222222222223,0.6805555555555713,0.6861111111111029,0.7111111111111086,0.9570312500000256,0.03386890879544634,0.9813100883090339,58.333333333333336,0.9545454545298347,0.9648437499999919,2.456960146446363e-07,0.9976702425022959,0
321,231.05833333333334,0.6861111111111029,0.7305555555555543,0.7083333333333428,0.9686274509803676,0.036301760821910195,1.0517989916082462,66.66666666666667,1.0909090908912398,1.0313725490195922,9.641781798563898e-05,0.9966915984104081,0
322,231.7888888888889,0.7305555555555543,0.7166666666666686,0.7152777777777857,1.0213592233009579,0.037939486234433176,1.0992500765810505,66.66666666666667,1.0909090908912398,1.0019417475728072,4.2048737668665126e-05,0.9987371781916852,0
323,232.50555555555556,0.7166666666666686,0.74444444444444,0.7222222222222285,0.9923076923076862,0.03585187838162082,1.0387641997324477,66.66666666666667,1.0909090908912398,1.0307692307692156,9.466937626712024e-06,0.9983028815552588,0
324,233.25,0.74444444444444,0.7249999999999943,0.7291666666666714,1.0209523809523682,0.03662553235789252,1.0611798747210048,63.888888888888886,1.045454545437438,0.9942857142857,2.2737069684808375e-06,0.9987690087094072,0
325,233.975,0.7249999999999943,0.7249999999999943,0.7277777777777743,0.9961832061068672,0.03518703338589782,1.0195011314887943,63.888888888888886,1.045454545437438,0.9961832061068672,7.793743179718149e-07,0.9989216879179454,0
326,234.7,0.7249999999999943,0.705555555555577,0.7249999999999943,1.0,0.036280715152258586,1.0511892191449799,63.888888888888886,1.045454545437438,0.9731800766283898,1.8577685523268883e-06,0.9994197411097316,0
327,235.40555555555557,0.705555555555577,0.7138888888888744,0.7208333333333314,0.9788053949903984,0.03623076586382579,1.049741999781079,63.888888888888886,1.045454545437438,0.9903660886319671,3.4995257465197938e-06,0.9996596436683524,0
328,236.11944444444444,0.7138888888888744,0.7027777777777828,0.7152777777777715,0.9980582524271729,0.03500243194342681,1.0141525311276998,58.333333333333336,0.9545454545298347,0.982524271844676,1.7637866278619185e-07,0.999263088799655,0
329,236.82222222222222,0.7027777777777828,0.6916666666666629,0.7152777777777715,0.982524271844676,0.033912423828598104,0.9825708830185071,55.55555555555556,0.9090909090760331,0.9669902912621392,6.704444643901297e-08,0.9975231639609476,0
330,237.51388888888889,0.6916666666666629,0.7083333333333428,0.7152777777777715,0.9669902912621392,0.03597822900784669,1.0424250541440394,63.888888888888886,1.045454545437438,0.9902912621359443,1.1164986972289626e-05,0.9975601031898582,0
331,238.22222222222223,0.7083333333333428,0.7527777777777658,0.7152777777777715,0.9902912621359443,0.035363243907212724,1.0246066152018023,66.66666666666667,1.0909090908912398,1.052427184466012,3.701059176819399e-05,0.9951232919426497,0
332,238.975,0.7527777777777658,0.76111111111112,0.7152777777777715,1.052427184466012,0.038779130259009885,1.1235777322750036,69.44444444444444,1.1363636363450413,1.0640776699029344,0.0009186565293930471,0.9956410011149581,0
333,239.73611111111111,0.76111111111112,0.7333333333333201,0.7194444444444343,1.057915057915085,0.03867648218942558,1.1206036303682403,69.44444444444444,1.1363636363450413,1.0193050193050153,0.00029791955603286624,0.9964381745276851,0
334,240.46944444444443,0.7333333333333201,0.700000000000017,0.7194444444444343,1.0193050193050153,0.03641046093861688,1.0549484441568615,66.66666666666667,1.0909090908912398,0.9729729729730103,5.501821306097554e-06,0.9987229379411467,0
335,241.16944444444445,0.700000000000017,0.6944444444444287,0.7111111111111086,0.9843750000000275,0.033872459624265064,0.9814129692185642,58.333333333333336,0.9545454545298347,0.9765624999999812,9.364917730181332e-08,0.9987648887554583,0
336,241.86388888888888,0.6944444444444287,0.6861111111111313,0.7069444444444599,0.982318271119799,0.034758225793376174,1.0070769574763863,61.111111111111114,0.9999999999836364,0.9705304518664121,6.444810196626349e-07,0.9987111432762801,0
337,242.55,0.6861111111111313,0.7055555555555486,0.7055555555555628,0.9724409448819084,0.03417710621011265,0.9902397303600786,58.333333333333336,0.9545454545298347,0.9999999999999799,5.187166038922442e-07,0.997201768320588,0
338,243.25555555555556,0.7055555555555486,0.7194444444444343,0.7041666666666657,1.0019723865877628,0.034494446698568215,0.999434281759155,61.111111111111114,0.9999999999836364,1.0216962524654702,5.564199341279163e-07,0.9986961713252482,0
339,243.975,0.7194444444444343,0.7277777777777885,0.7069444444444457,1.017681728880141,0.035455201049829084,1.027270960613298,63.888888888888886,1.045454545437438,1.0294695481336087,4.300597083783941e-06,0.9974249360715266,0
340,244.70277777777778,0.7277777777777885,0.75555555555556,0.7138888888888886,1.0194552529183034,0.03591951370780973,1.0407238503464105,63.888888888888886,1.045454545437438,1.0583657587548705,2.7413498173700646e-06,0.9994005321191792,0
341,245.45833333333334,0.75555555555556,0.7361111111111143,0.7236111111111114,1.044145873320543,0.03616701807341936,1.0478949857479123,63.888888888888886,1.045454545437438,1.0172744721689098,2.201479674113216e-06,0.9977084338764162,0
342,246.19444444444446,0.7361111111111143,0.7527777777777658,0.7236111111111114,1.0172744721689098,0.03507884089384815,1.0163663867419568,63.888888888888886,1.045454545437438,1.0403071017274301,7.259540097948047e-07,0.9989810106853358,0
343,246.94722222222222,0.7527777777777658,0.7111111111111086,0.7236111111111114,1.0403071017274301,0.036549853750135204,1.0589871798895902,66.66666666666667,1.0909090908912398,0.9827255278310901,1.3418055459624156e-05,0.9960188448385443,0
344,247.65833333333333,0.7111111111111086,0.6972222222222229,0.7152777777777715,0.9941747572815587,0.03529314775043617,1.0225756650400488,63.888888888888886,1.045454545437438,0.9747572815534076,2.6756717943499098e-06,0.997331412757768,0
345,248.35555555555555,0.6972222222222229,0.6888888888888971,0.7152777777777715,0.9747572815534076,0.03388109651197191,0.9816632124457526,58.333333333333336,0.9545454545298347,0.9631067961165248,1.299015082167898e-07,0.9978652280567692,0
346,249.04444444444445,0.6888888888888971,0.7111111111111086,0.7152777777777715,0.9631067961165248,0.030680970690636588,0.8889434920880421,44.44444444444444,0.7272727272608265,0.9941747572815587,0.003746386617422104,0.9570243829562128,0
347,249.75555555555556,0.7111111111111086,0.7194444444444343,0.7152777777777715,0.9941747572815587,0.037347369992440975,1.0820942347667224,63.888888888888886,1.045454545437438,1.0058252427184413,9.75391740212217e-05,0.9951896435730907,0
348,250.475,0.7194444444444343,0.7583333333333258,0.7194444444444343,1.0,0.039144921167208746,1.1341760751562342,75.0,1.2272727272526447,1.0540540540540584,0.05420897528529167,0.9934230375583519,0
349,251.23333333333332,0.7583333333333258,0.75,0.7236111111111114,1.0479846449136168,0.03830921484030831,1.1099625094224204,66.66666666666667,1.0909090908912398,1.0364683301343565,7.411863771267235e-05,0.9971552747940636,0
350,251.98333333333332,0.75,0.7388888888889085,0.7277777777777743,1.030534351145043,0.036661293084875514,1.0622159979207697,63.888888888888886,1.045454545437438,1.0152671755725509,3.180835847160779e-06,0.9981694952255411,0
351,252.72222222222223,0.7388888888889085,0.7027777777777828,0.7277777777777743,1.0152671755725509,0.03628090716554041,1.0511947824942949,63.888888888888886,1.045454545437438,0.9656488549618436,1.6213997469094465e-06,0.9987329489600505,0
352,253.425,0.7027777777777828,0.7027777777777544,0.7152777777777715,0.982524271844676,0.037585348658203566,1.088989374699502,66.66666666666667,1.0909090908912398,0.9825242718446362,4.489680941333063e-05,0.9991928291782963,0
353,254.12777777777777,0.7027777777777544,0.7194444444444628,0.7111111111111086,0.9882812499999707,0.037500815690305965,1.0865401356438944,66.66666666666667,1.0909090908912398,1.0117187500000293,6.800252594985068e-05,0.9988555272329726,0
354,254.84722222222223,0.7194444444444628,0.7083333333333144,0.7152777777777715,1.005825242718481,0.034231686730605206,0.9918211339921822,61.111111111111114,0.9999999999836364,0.9902912621359046,2.2228347518193914e-07,0.9983317800331235,0
355,255.55555555555554,0.7083333333333144,0.705555555555577,0.7152777777777715,0.9902912621359046,0.03192598874303648,0.9250163630011772,102.77777777777777,1.681818181790661,0.98640776699033,0.08080532401800156,0.9876673421906375,0
356,256.2611111111111,0.705555555555577,0.7416666666666742,0.7152777777777715,0.98640776699033,0.04097989109496954,1.1873420780153952,61.111111111111114,0.9999999999836364,1.0368932038835148,0.018329543992877007,0.9894203209324302,0
357,257.0027777777778,0.7416666666666742,0.75,0.7194444444444485,1.0308880308880355,0.03547297935137838,1.0277860650935955,61.111111111111114,0.9999999999836364,1.0424710424710366,1.581628907842969e-06,0.996413532860335,0
358,257.7527777777778,0.75,0.7472222222222058,0.7291666666666856,1.0285714285714018,0.03764414502940337,1.0906929274346315,66.66666666666667,1.0909090908912398,1.0247619047618557,0.047340188175439835,0.9791040915044192,0
359,258.5,0.7472222222222058,0.75,0.7291666666666856,1.0247619047618557,0.0362785452109182,1.0511263477563202,61.111111111111114,0.9999999999836364,1.0285714285714018,1.22059846034972e-05,0.9931161970321686,0
360,259.25,0.75,0.7027777777777828,0.7291666666666856,1.0285714285714018,0.035184523140522846,1.0194284002081535,61.111111111111114,0.9999999999836364,0.9638095238095057,1.6615696949884295e-05,0.9887012728037823,0
361,259.9527777777778,0.7027777777777828,0.6805555555555429,0.7138888888888886,0.9844357976653771,0.036824559988943545,1.066946456200857,66.66666666666667,1.0909090908912398,0.9533073929960917,1.4562436263076961e-05,0.9993243494780089,0
362,260.6333333333333,0.6805555555555429,0.7083333333333144,0.7138888888888886,0.9533073929960917,0.0318084999032218,0.9216122679808685,58.333333333333336,0.9545454545298347,0.9922178988326588,1.2164475720055634e-06,0.9900363417230233,0
363,261.34166666666664,0.7083333333333144,0.7527777777777942,0.7138888888888886,0.9922178988326588,0.03631890737725306,1.0522957920171205,63.888888888888886,1.045454545437438,1.0544747081712298,1.8543894839240238e-05,0.9975013506319197,0
364,262.09444444444443,0.7527777777777942,0.7333333333333485,0.7249999999999943,1.0383141762452415,0.037536081379969076,1.0875619157445346,66.66666666666667,1.0909090908912398,1.011494252873592,1.1652839020825922e-05,0.9991424280822374,0
365,262.8277777777778,0.7333333333333485,0.73888888888888,0.7375000000000114,0.994350282485881,0.03753247969294337,1.0874575612808404,66.66666666666667,1.0909090908912398,1.0018832391713473,4.402091144584119e-05,0.9972114571305954,0
366,263.56666666666666,0.73888888888888,0.7527777777777942,0.7402777777777771,0.998123827392109,0.03418471542527421,0.9904601980358236,69.44444444444444,1.1363636363450413,1.0168855534709424,0.00014198978897184134,0.9894145365812891,0
367,264.31944444444446,0.7527777777777942,0.7444444444444116,0.7430555555555429,1.013084112149572,0.03801827281668495,1.1015328211611606,66.66666666666667,1.0909090908912398,1.0018691588784776,5.0613045459613204e-05,0.9967640194182539,0
368,265.06388888888887,0.7444444444444116,0.7138888888889028,0.7416666666666458,1.003745318352044,0.033437653585632145,0.9688149975878533,47.22222222222222,0.772727272714628,0.9625468164794465,0.029355421662330627,0.9392848512761696,0
369,265.77777777777777,0.7138888888889028,0.7083333333333144,0.7361111111111143,0.9698113207547316,0.03877963879545267,1.123592466494656,69.44444444444444,1.1363636363450413,0.9622641509433664,0.001497920136898756,0.9957142873186797,0
370,266.4861111111111,0.7083333333333144,0.7027777777777828,0.7236111111111256,0.978886756237958,0.03728556403184033,1.0803034828703046,63.888888888888886,1.045454545437438,0.9712092130518108,1.720106774882879e-05,0.9981699331573426,0
371,267.18888888888887,0.7027777777777828,0.7138888888889028,0.7236111111111256,0.9712092130518108,0.03591000444332065,1.0404483310720256,63.888888888888886,1.045454545437438,0.9865642994241837,3.5092180041829124e-06,0.9988955953277576,0
372,267.90277777777777,0.7138888888889028,0.7277777777777601,0.7236111111111256,0.9865642994241837,0.03705847506597596,1.07372385863463,63.888888888888886,1.045454545437438,1.0057581573895906,9.807303285924718e-06,0.9991526594133018,0
373,268.63055555555553,0.7277777777777601,0.7722222222222399,0.7305555555555543,0.9961977186311562,0.038920312809592614,1.1276683235018063,66.66666666666667,1.0909090908912398,1.0570342205323455,0.02063925936818123,0.9885241471469055,0
374,269.40277777777777,0.7722222222222399,0.7527777777777942,0.7305555555555543,1.0570342205323455,0.04041659439779516,1.1710212471617394,77.77777777777777,1.2727272727064463,1.0304182509505946,0.044633205980062485,0.9938667266693864,0
375,270.15555555555557,0.7527777777777942,0.73888888888888,0.7333333333333201,1.0265151515151925,0.03618057672595915,1.0482878310740351,63.888888888888886,1.045454545437438,1.0075757575757638,2.9554846605606144e-06,0.9966356888463178,0
376,270.89444444444445,0.73888888888888,0.7083333333333144,0.7333333333333201,1.0075757575757638,0.035342093369060974,1.0239938043023775,61.111111111111114,0.9999999999836364,0.9659090909090825,1.967766252164438e-07,0.9991325213659581,0
377,271.60277777777776,0.7083333333333144,0.7000000000000455,0.7208333333333314,0.9826589595375486,0.03503341669914779,1.0150502764184153,61.111111111111114,0.9999999999836364,0.9710982658960194,4.368340285054728e-07,0.9989692440684617,0
378,272.3027777777778,0.7000000000000455,0.6888888888888687,0.7138888888889028,0.9805447470817567,0.03521892975157814,1.0204252895598893,66.66666666666667,1.0909090908912398,0.9649805447470347,2.9356331197050167e-06,0.9993098726948919,0
379,272.9916666666667,0.6888888888888687,0.7333333333333485,0.7111111111111086,0.968749999999975,0.03566687865812908,1.033404059667314,63.888888888888886,1.045454545437438,1.031250000000025,4.725730832433328e-06,0.9997467218953017,0
380,273.725,0.7333333333333485,0.7416666666666174,0.7208333333333314,1.0173410404624514,0.03605775451623026,1.0447292082024422,63.888888888888886,1.045454545437438,1.0289017341039806,1.7884534599943436e-06,0.9995099913166764,0
381,274.46666666666664,0.7416666666666174,0.7472222222222626,0.7305555555555543,1.0152091254752196,0.03607468738572904,1.045219817326094,61.111111111111114,0.9999999999836364,1.0228136882129848,4.757900740059995e-07,0.9998464355863835,0
382,275.2138888888889,0.7472222222222626,0.73888888888888,0.7361111111111143,1.0150943396226921,0.037915190977396894,1.098546151309299,66.66666666666667,1.0909090908912398,1.0037735849056442,2.5648883820394985e-05,0.998457433259871,0
383,275.9527777777778,0.73888888888888,0.7583333333333258,0.73888888888888,1.0,0.03832563097460207,1.1104381467773408,66.66666666666667,1.0909090908912398,1.0263157894736863,0.00010304884926881641,0.9975772690947357,0
384,276.7111111111111,0.7583333333333258,0.7361111111110858,0.73888888888888,1.0263157894736863,0.03793993704178469,1.0992631381710942,69.44444444444444,1.1363636363450413,0.9962406015037372,5.3296214900910854e-05,0.9979719854251434,0
385,277.4472222222222,0.7361111111110858,0.705555555555577,0.737499999999983,0.9981167608286141,0.035978498111655384,1.0424328510968102,61.111111111111114,0.9999999999836364,0.9566854990584317,3.86465814017356e-07,0.9993394956843102,0
386,278.15277777777777,0.705555555555577,0.6888888888888687,0.7347222222222172,0.9603024574669545,0.035841876440316875,1.0384744057516757,61.111111111111114,0.9999999999836364,0.9376181474479941,6.129725989012513e-07,0.9998989840857486,0
387,278.84166666666664,0.6888888888888687,0.7000000000000455,0.7347222222222172,0.9376181474479941,0.03584951649735586,1.0386957670329882,61.111111111111114,0.9999999999836364,0.9527410207940193,1.1523533203217085e-06,0.9996713835614525,0
388,279.5416666666667,0.7000000000000455,0.7166666666666401,0.7347222222222172,0.9527410207940193,0.037007019094374004,1.0722329849740198,66.66666666666667,1.0909090908912398,0.975425330812825,3.1563886295771226e-05,0.9983817017460932,0
389,280.2583333333333,0.7166666666666401,0.7555555555555884,0.7347222222222172,0.975425330812825,0.037676859271760066,1.0916407824792063,63.888888888888886,1.045454545437438,1.0283553875236813,3.310591637273319e-05,0.9982547287958383,0
390,281.0138888888889,0.7555555555555884,0.7611111111110631,0.737499999999983,1.0244821092279401,0.037418763492207165,1.0841627738502628,66.66666666666667,1.0909090908912398,1.0320150659133298,1.537007665319834e-05,0.9984376138697748,0
391,281.775,0.7611111111110631,0.7250000000000227,0.737499999999983,1.0320150659133298,0.038454195256513016,1.114163139147109,66.66666666666667,1.0909090908912398,0.9830508474576807,3.582263889256865e-05,0.9977998025066115,0
392,282.5,0.7250000000000227,0.7166666666666401,0.7305555555555543,0.9923954372623902,0.03836638003599735,1.1116188008479462,66.66666666666667,1.0909090908912398,0.980988593155859,7.490078132832423e-05,0.9983254511906055,0
393,283.21666666666664,0.7166666666666401,0.4361111111111313,0.7208333333333314,0.9942196531791566,0.036356655903138614,1.0533895092518273,61.111111111111114,0.9999999999836364,0.6050096339113976,9.296521739088348e-07,0.999873627424785,0
394,283.65277777777777,0.4361111111111313,0.9805555555555543,0.7166666666666401,0.6085271317829964,0.03794746557491345,1.0994812681839046,66.66666666666667,1.0909090908912398,1.3682170542636147,0.7585525512695312,0.9866135083318046,1
395,284.6333333333333,0.9805555555555543,0.6999999999999886,0.7166666666666401,1.3682170542636147,0.036449548813508065,1.0560809673861438,61.111111111111114,0.9999999999836364,0.9767441860465319,4.447538337615242e-09,0.9992286777072472,0
396,285.3333333333333,0.6999999999999886,0.7027777777777828,0.7166666666666401,0.9767441860465319,0.03593512060473,1.041176041041055,66.66666666666667,1.0909090908912398,0.9806201550388031,8.483988494845107e-06,0.9989836082947936,0
397,286.0361111111111,0.7027777777777828,0.7222222222222285,0.7166666666666401,0.9806201550388031,0.034396060958234775,0.9965836756142078,55.55555555555556,0.9090909090760331,1.0077519379845423,4.065288158017211e-05,0.9858705751764074,0
398,286.7583333333333,0.7222222222222285,0.7444444444444684,0.7194444444444343,1.0038610038610267,0.03761623258349925,1.0898841985523244,66.66666666666667,1.0909090908912398,1.0347490347490826,4.197350062895566e-05,0.9992669069142672,0
399,287.5027777777778,0.7444444444444684,0.7249999999999659,0.7236111111111256,1.0287907869481892,0.03667655394774803,1.0626581627033302,63.888888888888886,1.045454545437438,1.0019193857964779,1.8748620504993596e-06,0.9996686724167216,0
400,288.22777777777776,0.7249999999999659,0.7305555555555543,0.7236111111110972,1.0019193857965172,0.035682441299816486,1.0338549681208702,63.888888888888886,1.045454545437438,1.0095969289827431,1.5630264442734187e-06,0.9989990302252679,0
401,288.9583333333333,0.7305555555555543,0.7027777777777828,0.7236111111110972,1.0095969289827431,0.03689022239323123,1.0688489438227433,66.66666666666667,1.0909090908912398,0.971209213051849,1.4168617781251669e-05,0.9978251087370194,0
402,289.6611111111111,0.7027777777777828,0.6916666666666629,0.7194444444444343,0.9768339768339975,0.03475940669955328,1.0071111727843531,58.333333333333336,0.9545454545298347,0.9613899613899696,3.2358713042413e-07,0.9975163880550113,0
403,290.35277777777776,0.6916666666666629,0.6750000000000114,0.7125000000000057,0.9707602339181156,0.03346031519705155,0.9694715899817067,61.111111111111114,0.9999999999836364,0.94736842105264,1.3064743598079076e-07,0.9987118822768978,0
404,291.02777777777777,0.6750000000000114,0.7138888888889028,0.7125000000000057,0.94736842105264,0.035377441391277506,1.0250179698877628,61.111111111111114,0.9999999999836364,1.001949317738803,3.467309170446242e-06,0.9983760798676005,0
405,291.7416666666667,0.7138888888889028,0.7361111111110858,0.7083333333333428,1.0078431372549082,0.036418178509749155,1.0551720513139473,63.888888888888886,1.045454545437438,1.0392156862744601,9.587833119439892e-06,0.9985843063779385,0
406,292.47777777777776,0.7361111111110858,0.73888888888888,0.7180555555555657,1.0251450676982097,0.03487155591233174,1.0103605586609428,61.111111111111114,0.9999999999836364,1.0290135396518107,2.6174265599365754e-07,0.9990759942897471,0
407,293.21666666666664,0.73888888888888,0.7194444444444912,0.7236111111110972,1.0211132437620036,0.0371983013369294,1.077775153322804,66.66666666666667,1.0909090908912398,0.9942418426104483,1.7723703422234394e-05,0.9979089541965189,0
408,293.93611111111113,0.7194444444444912,0.7305555555555543,0.7222222222222285,0.9961538461539021,0.03657088690191932,1.0595965896630004,63.888888888888886,1.045454545437438,1.0115384615384508,7.025097602308961e-06,0.998388104117262,0
409,294.6666666666667,0.7305555555555543,0.7138888888888459,0.7222222222222285,1.0115384615384508,0.037338369847849696,1.0818334666168832,66.66666666666667,1.0909090908912398,0.9884615384614703,2.2470489057013765e-05,0.9981851532236496,0
410,295.38055555555553,0.7138888888888459,0.6972222222222513,0.716666666666697,0.9961240310076499,0.035223020853643074,1.0205438242240223,58.333333333333336,0.9545454545298347,0.972868217054263,7.936797032925824e-07,0.9962659574241803,0
411,296.0777777777778,0.6972222222222513,0.7027777777777828,0.7138888888888744,0.9766536964981151,0.03592714034926824,1.0409448229277345,61.111111111111114,0.9999999999836364,0.9844357976653968,2.20443143916782e-06,0.9988559786999842,0
412,296.78055555555557,0.7027777777777828,0.6888888888888687,0.7138888888888744,0.9844357976653968,0.03646614711151683,1.056561882711262,63.888888888888886,1.045454545437438,0.9649805447470731,6.060940449970076e-06,0.9989510406020492,0
413,297.46944444444443,0.6888888888888687,0.7083333333333712,0.7138888888888744,0.9649805447470731,0.03596491078066872,1.0420391748478663,63.888888888888886,1.045454545437438,0.9922178988327581,1.0880371519306209e-05,0.9978467964327253,0
414,298.1777777777778,0.7083333333333712,0.7194444444444343,0.7138888888888744,0.9922178988327581,0.03597370991200893,1.0422941188853214,61.111111111111114,0.9999999999836364,1.0077821011673216,1.2868578096458805e-06,0.9998374813953252,0
415,298.89722222222224,0.7194444444444343,0.7583333333333258,0.7166666666666401,1.0038759689922712,0.038292435978055143,1.109476362469803,66.66666666666667,1.0909090908912398,1.0581395348837495,0.00020807108376175165,0.9982805769209155,0
416,299.65555555555557,0.7583333333333258,0.41944444444442297,0.7166666666666401,1.0581395348837495,0.03735134853118774,1.082209508046783,66.66666666666667,1.0909090908912398,0.5852713178294491,9.435769243282266e-06,0.9990210801699506,0
417,300.075,0.41944444444442297,1.0194444444444457,0.7111111111111086,0.5898437499999719,0.038804245415844825,1.1243054131377217,69.44444444444444,1.1363636363450413,1.4335937500000069,0.8428900837898254,0.9810845875407673,1
418,301.09444444444443,1.0194444444444457,0.6972222222222513,0.7111111111111086,1.4335937500000069,0.03583715341863137,1.0383375619916573,61.111111111111114,0.9999999999836364,0.9804687500000443,1.5190140256748919e-09,0.9961603407636993,0
419,301.7916666666667,0.6972222222222513,0.6944444444444002,0.705555555555577,0.9881889763779639,0.035741935982534764,1.0355787535756895,61.111111111111114,0.9999999999836364,0.9842519685038444,1.790935016288131e-06,0.999048254599785,0
420,302.4861111111111,0.6944444444444002,0.6777777777778056,0.700000000000017,0.9920634920634047,0.03536025606165644,1.0245200460417387,61.111111111111114,0.9999999999836364,0.9682539682539844,1.0257105031996616e-06,0.9994886878216065,0
421,303.1638888888889,0.6777777777778056,0.7138888888889028,0.700000000000017,0.9682539682539844,0.035481495851763654,1.0280328202458098,61.111111111111114,0.9999999999836364,1.0198412698412649,2.7765036065829918e-06,0.9995822322751653,0
422,303.8777777777778,0.7138888888889028,0.7361111111110858,0.7027777777778113,1.0158102766798134,0.037587278856789294,1.089045299835917,69.44444444444444,1.1363636363450413,1.04743083003944,0.00017608825874049217,0.9987373360283339,0
423,304.6138888888889,0.7361111111110858,0.7361111111111427,0.711111111111137,1.0351562499999267,0.03519402355718392,1.019703663127575,63.888888888888886,1.045454545437438,1.0351562500000067,7.15626754299592e-07,0.9997450838570936,0
424,305.35,0.7361111111111427,0.7222222222221717,0.7166666666666686,1.0271317829457778,0.03631425594061444,1.0521610223460285,66.66666666666667,1.0909090908912398,1.0077519379844229,4.529880243353546e-06,0.9994017450141166,0
425,306.0722222222222,0.7222222222221717,0.7388888888889369,0.7180555555555372,1.005802707930323,0.036414862630015844,1.0550759777659753,63.888888888888886,1.045454545437438,1.0290135396519307,5.41735016668099e-06,0.9988291934323517,0
426,306.81111111111113,0.7388888888889369,0.7305555555555543,0.7180555555555372,1.0290135396519307,0.037377664628821014,1.0829719846960435,66.66666666666667,1.0909090908912398,1.0174081237911268,2.13780949707143e-05,0.9985724113853088,0
427,307.5416666666667,0.7305555555555543,0.6888888888888687,0.726388888888863,1.0057361376673382,0.03542627272076374,1.0264327977624899,61.111111111111114,0.9999999999836364,0.9483747609942699,2.8707711408060277e-07,0.9992550987411715,0
428,308.23055555555555,0.6888888888888687,0.6750000000000114,0.7180555555555372,0.9593810444874238,0.03590611959588615,1.0403357723828148,61.111111111111114,0.9999999999836364,0.9400386847195756,2.265011062263511e-06,0.9985541024403853,0
429,308.90555555555557,0.6750000000000114,0.6944444444444571,0.7180555555555372,0.9400386847195756,0.03770264783856238,1.0923879745697158,63.888888888888886,1.045454545437438,0.9671179883946264,4.418181924847886e-05,0.999292600774798,0
430,309.6,0.6944444444444571,0.7055555555555202,0.7180555555555372,0.9671179883946264,0.03609166773074685,1.0457118019946756,61.111111111111114,0.9999999999836364,0.9825918762088733,2.8319293505774112e-06,0.9987756551957702,0
431,310.30555555555554,0.7055555555555202,0.73888888888888,0.7180555555555372,0.9825918762088733,0.03447711737632694,0.9989321859035837,61.111111111111114,0.9999999999836364,1.0290135396518514,4.639814790152741e-07,0.9988020409190908,0
432,311.0444444444444,0.73888888888888,0.75,0.726388888888863,1.017208413001936,0.037107876245828904,1.0751551972247466,66.66666666666667,1.0909090908912398,1.0325047801147595,1.4206014384399168e-05,0.999071677908779,0
433,311.7944444444444,0.75,0.7250000000000227,0.726388888888863,1.0325047801147595,0.0369462812944639,1.070473181723391,63.888888888888886,1.045454545437438,0.9980879541109655,3.3331691611238057e-06,0.99856633236785,0
434,312.51944444444445,0.7250000000000227,0.7083333333333144,0.7236111111110972,1.0019193857965958,0.03729416335542492,1.0805526377231272,63.888888888888886,1.045454545437438,0.9788867562379965,9.502829925622791e-06,0.9984911711984863,0
435,313.22777777777776,0.7083333333333144,0.6972222222222513,0.7166666666666686,0.9883720930232268,0.036353972302370925,1.0533117552113227,63.888888888888886,1.045454545437438,0.9728682170543015,3.6643384646595223e-06,0.9994431004451239,0
436,313.925,0.6972222222222513,0.7111111111111086,0.7069444444444173,0.9862475442044012,0.03560139372331486,1.0315067140057352,61.111111111111114,0.9999999999836364,1.005893909626754,1.286255269405956e-06,0.9998022089299012,0
437,314.6361111111111,0.7111111111111086,0.6916666666666629,0.7069444444444173,1.005893909626754,0.03568892405319863,1.0340427979482891,63.888888888888886,1.045454545437438,0.9783889980353957,1.683307345956564e-06,0.9997571342309516,0
438,315.3277777777778,0.6916666666666629,0.7083333333333144,0.7069444444444173,0.9783889980353957,0.03495182035492033,1.0126861224315498,63.888888888888886,1.045454545437438,1.0019646365422514,1.5943726339173736e-06,0.9996854973773752,0
439,316.0361111111111,0.7083333333333144,0.7222222222222285,0.7083333333333144,1.0,0.03623450249152716,1.0498502639853307,63.888888888888886,1.045454545437438,1.019607843137291,4.707567313744221e-06,0.9996892167110272,0
440,316.7583333333333,0.7222222222222285,0.7527777777777942,0.7097222222222115,1.017612524461864,0.03706860906901222,1.0740174789421073,63.888888888888886,1.045454545437438,1.0606653620352642,1.2142293599026743e-05,0.9996196937494326,0
441,317.5111111111111,0.7527777777777942,0.7277777777777601,0.7166666666666686,1.0503875968992449,0.03586450609235102,1.0391300721615429,63.888888888888886,1.045454545437438,1.015503875968965,1.865898752839712e-06,0.9978285028199587,0
442,318.2388888888889,0.7277777777777601,0.73888888888888,0.7166666666666686,1.015503875968965,0.03832579285812979,1.1104428371539878,69.44444444444444,1.1363636363450413,1.0310077519379695,0.0005531470524147153,0.9967331117483087,0
443,318.97777777777776,0.73888888888888,0.7111111111111086,0.7166666666666686,1.0310077519379695,0.03704750068663607,1.0734058894545715,66.66666666666667,1.0909090908912398,0.9922480620154978,8.259070455096662e-06,0.9994351031806019,0
444,319.68888888888887,0.7111111111111086,0.6888888888889255,0.7111111111111086,1.0,0.03475137657132079,1.0068785096686752,58.333333333333336,0.9545454545298347,0.968750000000055,2.280035857893381e-07,0.998260198790881,0
445,320.3777777777778,0.6888888888889255,0.6805555555555429,0.7111111111111086,0.968750000000055,0.035534407232319334,1.029565862595631,61.111111111111114,0.9999999999836364,0.9570312499999857,1.1940416015931987e-06,0.9993742753956285,0
446,321.05833333333334,0.6805555555555429,0.7111111111111086,0.7111111111111086,0.9570312499999857,0.03637407784392127,1.053894288616028,63.888888888888886,1.045454545437438,1.0,2.374032737861853e-05,0.9979488051288111,0
447,321.76944444444445,0.7111111111111086,0.7416666666666742,0.7111111111111086,1.0,0.035355087420134164,1.024370290993553,61.111111111111114,0.9999999999836364,1.0429687500000144,7.834879625079338e-07,0.9999173187370458,0
448,322.5111111111111,0.7416666666666742,0.75,0.7166666666666686,1.0348837209302404,0.03705416315392126,1.073598926271892,66.66666666666667,1.0909090908912398,1.046511627906974,1.5565376088488847e-05,0.998926645718905,0
449,323.2611111111111,0.75,0.7333333333333485,0.7249999999999943,1.0344827586206977,0.03714518450172586,1.0762361581765745,66.66666666666667,1.0909090908912398,1.011494252873592,8.174090908141807e-06,0.9991547500594016,0
450,323.99444444444447,0.7333333333333485,0.7277777777777601,0.7305555555555543,1.0038022813688439,0.036775035697262225,1.0655115505965238,66.66666666666667,1.0909090908912398,0.9961977186311562,8.136402357195038e-06,0.9989988254694255,0
451,324.72222222222223,0.7277777777777601,0.7138888888889028,0.7277777777777601,1.0,0.037965495175981225,1.100003653759503,66.66666666666667,1.0909090908912398,0.980916030534394,4.033064396935515e-05,0.9984713932923173,0
452,325.43611111111113,0.7138888888889028,0.7083333333333144,0.7208333333333314,0.9903660886320065,0.035536977293971844,1.0296403269795418,63.888888888888886,1.045454545437438,0.9826589595375486,1.2124587556172628e-06,0.9995158735634722,0
453,326.14444444444445,0.7083333333333144,0.705555555555577,0.7125000000000057,0.9941520467835913,0.03534922899187083,1.0242005502206464,61.111111111111114,0.9999999999836364,0.9902534113060651,6.676242492176243e-07,0.9994047278253962,0
454,326.85,0.705555555555577,0.6944444444444002,0.7125000000000057,0.9902534113060651,0.035383351937312964,1.0251892207091886,61.111111111111114,0.9999999999836364,0.9746588693956417,9.979762580769602e-07,0.9984980644941608,0
455,327.5444444444444,0.6944444444444002,0.7111111111111086,0.7125000000000057,0.9746588693956417,0.037727006742194515,1.0930937439235124,63.888888888888886,1.045454545437438,0.9980506822611971,0.00010899351764237508,0.9969372125764027,0
456,328.25555555555553,0.7111111111111086,0.47500000000002274,0.7125000000000057,0.9980506822611971,0.035647774064520056,1.0328505275014328,61.111111111111114,0.9999999999836364,0.6666666666666933,6.501604161712748e-07,0.9996469233905632,0
457,328.73055555555555,0.47500000000002274,1.0305555555555657,0.7125000000000057,0.6666666666666933,0.03837503342469446,1.1118695221710873,66.66666666666667,1.0909090908912398,1.4463937621832386,0.8816878199577332,0.9874825124728812,1
458,329.7611111111111,1.0305555555555657,0.7416666666666742,0.7125000000000057,1.4463937621832386,0.03619708489870124,1.0487661351301003,63.888888888888886,1.045454545437438,1.0409356725146222,4.670288600294725e-09,0.9976514958093865,0
459,330.5027777777778,0.7416666666666742,0.7111111111111086,0.7125000000000057,1.0409356725146222,0.03746976444019382,1.0856404637597576,69.44444444444444,1.1363636363450413,0.9980506822611971,0.00011212467506993562,0.9965779471024807,0
460,331.2138888888889,0.7111111111111086,0.6916666666666629,0.7111111111111086,1.0,0.03553303268752528,1.0295260368462575,61.111111111111114,0.9999999999836364,0.9726562499999981,7.236204737637308e-07,0.999299533692625,0
461,331.90555555555557,0.6916666666666629,0.6972222222221944,0.7097222222222115,0.9745596868884634,0.0341671131639972,0.9899501941064822,58.333333333333336,0.9545454545298347,0.9823874755381362,2.571264872130996e-07,0.9979223794258301,0
462,332.60277777777776,0.6972222222221944,0.49722222222226264,0.7069444444444457,0.9862475442042812,0.03424932825260381,0.9923322754527739,58.333333333333336,0.9545454545298347,0.7033398821218634,1.1494442020421047e-07,0.9995938975524012,0
463,333.1,0.49722222222226264,0.908333333333303,0.7013888888888857,0.7089108910891697,0.03739886578445661,1.0835862621749748,66.66666666666667,1.0909090908912398,1.2950495049504576,0.9929116368293762,0.27212930465809376,1
464,334.0083333333333,0.908333333333303,0.7333333333333485,0.7041666666666515,1.2899408284023515,0.03768138866206489,1.0917720160074802,66.66666666666667,1.0909090908912398,1.0414201183432392,1.0090277555718785e-06,0.9988642837863545,0
465,334.7416666666667,0.7333333333333485,0.7472222222222058,0.7111111111111086,1.031250000000025,0.03634410117046169,1.05302575127231,63.888888888888886,1.045454545437438,1.0507812499999807,4.4975740820518695e-06,0.9989182219889009,0
466,335.4888888888889,0.7472222222222058,0.716666666666697,0.7222222222222285,1.0346153846153527,0.0354348150018162,1.0266802998779132,63.888888888888886,1.045454545437438,0.9923076923077256,5.003184924134985e-07,0.9993280043454221,0
467,336.2055555555556,0.716666666666697,0.7416666666666174,0.7250000000000227,0.9885057471264476,0.03624884714961997,1.0502658828582279,63.888888888888886,1.045454545437438,1.0229885057470265,3.7864444948354503e-06,0.9993131130354248,0
468,336.9472222222222,0.7416666666666174,0.716666666666697,0.7250000000000227,1.0229885057470265,0.0370991984119765,1.0749037676332158,69.44444444444444,1.1363636363450413,0.9885057471264476,2.5503077267785557e-05,0.9984669925020115,0
469,337.6638888888889,0.716666666666697,0.7027777777777828,0.716666666666697,1.0,0.0339565755276337,0.9838501243410219,58.333333333333336,0.9545454545298347,0.9806201550387252,5.7259704533407785e-08,0.9990018877370619,0
470,338.3666666666667,0.7027777777777828,0.6750000000000114,0.716666666666697,0.9806201550387252,0.034441787905085765,0.9979085578099542,58.333333333333336,0.9545454545298347,0.9418604651162551,1.1457908755119206e-07,0.9990659186887421,0
471,339.0416666666667,0.6750000000000114,0.7083333333333144,0.716666666666697,0.9418604651162551,0.03508701060007527,1.016603093958821,61.111111111111114,0.9999999999836364,0.9883720930231875,1.3045113291809685e-06,0.9994388257128954,0
472,339.75,0.7083333333333144,0.7166666666666401,0.716666666666697,0.9883720930231875,0.0368011182421025,1.0662672603400858,66.66666666666667,1.0909090908912398,0.9999999999999207,1.7814887542044744e-05,0.9992753352054613,0
473,340.46666666666664,0.7166666666666401,0.75,0.716666666666697,0.9999999999999207,0.03626508553636265,1.050736370195883,63.888888888888886,1.045454545437438,1.0465116279069324,7.066811576805776e-06,0.9986771510257645,0
474,341.21666666666664,0.75,0.76111111111112,0.716666666666697,1.0465116279069324,0.03814686837826812,1.1052587198210637,69.44444444444444,1.1363636363450413,1.0620155038759365,0.00017150709754787385,0.9980665530767887,0
475,341.97777777777776,0.76111111111112,0.7361111111111427,0.716666666666697,1.0620155038759365,0.03686473886439632,1.068110589833176,63.888888888888886,1.045454545437438,1.0271317829457371,2.838732598320348e-06,0.9990964088771892,0
476,342.7138888888889,0.7361111111111427,0.6972222222221944,0.716666666666697,1.0271317829457371,0.038052596540230625,1.102527308948976,63.888888888888886,1.045454545437438,0.9728682170541836,2.0776766177732497e-05,0.9981138612178847,0
477,343.4111111111111,0.6972222222221944,0.6972222222222513,0.7166666666666686,0.9728682170542222,0.03422990489547293,0.9917695075048464,55.55555555555556,0.9090909090760331,0.9728682170543015,7.299806270566478e-07,0.9934839521326062,0
478,344.10833333333335,0.6972222222222513,0.7249999999999659,0.7124999999999773,0.9785575048733663,0.035582024310501836,1.0309455090282487,61.111111111111114,0.9999999999836364,1.0175438596491073,2.227096501883352e-06,0.9986287312035671,0
479,344.8333333333333,0.7249999999999659,0.6972222222222513,0.7124999999999773,1.0175438596491073,0.03577154477393373,1.0364366319879503,63.888888888888886,1.045454545437438,0.9785575048733663,1.4086658666201402e-06,0.9993436242687039,0
480,345.53055555555557,0.6972222222222513,0.7027777777777828,0.7124999999999773,0.9785575048733663,0.03836899894678362,1.1116946805755887,66.66666666666667,1.0909090908912398,0.9863547758284986,0.0004506948171183467,0.9966832604996939,0
481,346.23333333333335,0.7027777777777828,0.7416666666666742,0.7124999999999773,0.9863547758284986,0.036766766433307854,1.0652719588166313,63.888888888888886,1.045454545437438,1.0409356725146637,1.4361466128320899e-05,0.9993378513839519,0
482,346.975,0.7416666666666742,0.7527777777777374,0.720833333333303,1.0289017341041,0.03522012076504472,1.020459797714171,61.111111111111114,0.9999999999836364,1.0443159922928587,2.414468838196626e-07,0.9998946372812814,0
483,347.72777777777776,0.7527777777777374,0.73888888888888,0.7305555555555543,1.0304182509505169,0.036737489575703657,1.0644236977789197,61.111111111111114,0.9999999999836364,1.0114068441064534,1.3886158285458805e-06,0.9981795464644111,0
484,348.46666666666664,0.73888888888888,0.7388888888889369,0.7305555555555543,1.0114068441064534,0.03567570184374903,1.0336597006480193,63.888888888888886,1.045454545437438,1.0114068441065314,6.918783128639916e-07,0.9996758196961102,0
485,349.2055555555556,0.7388888888889369,0.7083333333333144,0.7305555555555543,1.0114068441065314,0.037522845324465086,1.0871784172718224,66.66666666666667,1.0909090908912398,0.9695817490494054,2.582439628895372e-05,0.9974479036201742,0
486,349.9138888888889,0.7083333333333144,0.3944444444444457,0.7166666666666401,0.988372093023266,0.03598500711349604,1.0426214414411177,63.888888888888886,1.045454545437438,0.550387596899247,2.068604089799919e-06,0.9988239730637557,0
487,350.30833333333334,0.3944444444444457,0.9861111111110858,0.7166666666666401,0.550387596899247,0.03755962892687037,1.0882441770322757,69.44444444444444,1.1363636363450413,1.3759689922480778,0.7002304196357727,0.9812147880684917,1
488,351.2944444444444,0.9861111111110858,0.7444444444444684,0.731944444444423,1.3472485768501,0.03575238002422599,1.035881356872897,61.111111111111114,0.9999999999836364,1.0170777988615427,1.1431421365060146e-09,0.9983991545034884,0
489,352.0388888888889,0.7444444444444684,0.73888888888888,0.7388888888889085,1.007518796992487,0.037408628130968825,1.0838691141905465,66.66666666666667,1.0909090908912398,0.9999999999999616,1.4519419892167207e-05,0.9985279227734953,0
490,352.77777777777777,0.73888888888888,0.7472222222222058,0.7388888888889085,0.9999999999999616,0.03708787792806242,1.0745757704976564,66.66666666666667,1.0909090908912398,1.0112781954886727,9.06559216673486e-06,0.9994602884638132,0
491,353.525,0.7472222222222058,0.7416666666666742,0.7402777777778056,1.0093808630393395,0.03514447940174819,1.0182681819953228,61.111111111111114,0.9999999999836364,1.0018761726078524,1.0935987404536718e-07,0.9997134070041911,0
492,354.26666666666665,0.7416666666666742,0.7277777777778169,0.7402777777778056,1.0018761726078524,0.03575423050474763,1.0359349722761884,63.888888888888886,1.045454545437438,0.9831144465290966,5.026873850511038e-07,0.9997348309876719,0
493,354.99444444444447,0.7277777777778169,0.702777777777726,0.7388888888889085,0.9849624060150645,0.03563522456939359,1.0324869212735155,63.888888888888886,1.045454545437438,0.9511278195487769,6.54188227144914e-07,0.9995354720069752,0
494,355.6972222222222,0.702777777777726,0.716666666666697,0.7388888888889085,0.9511278195487769,0.035990877269616764,1.0427915220143067,63.888888888888886,1.045454545437438,0.9699248120300905,4.115204774279846e-06,0.9981861916464583,0
495,356.4138888888889,0.716666666666697,0.7111111111111086,0.7333333333333485,0.9772727272727484,0.037265658373825505,1.0797267408458613,66.66666666666667,1.0909090908912398,0.9696969696969462,1.5883666492300108e-05,0.9993404144027366,0
496,357.125,0.7111111111111086,0.705555555555577,0.7333333333333485,0.9696969696969462,0.0344476405578928,0.998078131246099,58.333333333333336,0.9545454545298347,0.9621212121212215,7.078050856534901e-08,0.9993147003383132,0
497,357.8305555555556,0.705555555555577,0.7222222222222285,0.7333333333333485,0.9621212121212215,0.0365819437360557,1.0599169478696473,63.888888888888886,1.045454545437438,0.9848484848484731,5.434239483292913e-06,0.9991707242528468,0
498,358.5527777777778,0.7222222222222285,0.7555555555555316,0.7250000000000227,0.9961685823754564,0.03709765557017614,1.07485906568452,66.66666666666667,1.0909090908912398,1.042145593869666,2.68331805273192e-05,0.9990077943274843,0
499,359.30833333333334,0.7555555555555316,0.76111111111112,0.7250000000000227,1.042145593869666,0.03878784427636248,1.1238302102390694,69.44444444444444,1.1363636363450413,1.0498084291187533,0.00027802831027656794,0.9978888127391581,0
500,360.06944444444446,0.76111111111112,0.73888888888888,0.7250000000000227,1.0498084291187533,0.036801242089071456,1.066270848654099,63.888888888888886,1.045454545437438,1.0191570881225611,2.347564986848738e-06,0.9987868585035453,0
501,360.80833333333334,0.73888888888888,0.6999999999999886,0.7250000000000227,1.0191570881225611,0.03678017525625914,1.0656604630142101,66.66666666666667,1.0909090908912398,0.9655172413792644,4.808749963558512e-06,0.9994182101117509,0
502,361.5083333333333,0.6999999999999886,0.6916666666666629,0.7194444444444628,0.9729729729729324,0.03533461553726958,1.0237771432986265,63.888888888888886,1.045454545437438,0.9613899613899316,2.2852393612993183e-06,0.9982236851552927,0
503,362.2,0.6916666666666629,0.6999999999999886,0.7138888888889028,0.9688715953307151,0.035458165222739355,1.0273568438874803,63.888888888888886,1.045454545437438,0.980544747081677,2.377494411121006e-06,0.9995046928847031,0
504,362.9,0.6999999999999886,0.7111111111111086,0.7138888888889028,0.980544747081677,0.03492621397438597,1.0119442089646822,61.111111111111114,0.9999999999836364,0.9961089494163194,6.425147489608207e-07,0.999075810713528,0
505,363.6111111111111,0.7111111111111086,0.7250000000000227,0.7111111111111086,1.0,0.03408360413609587,0.9875306224562886,61.111111111111114,0.9999999999836364,1.0195312500000355,1.9979002274794766e-07,0.9992783096965987,0
506,364.3361111111111,0.7250000000000227,0.7305555555555543,0.7166666666666686,1.0116279069767733,0.03600519269796442,1.0432062939911917,63.888888888888886,1.045454545437438,1.019379844961236,3.3016208362823818e-06,0.9985245058780787,0
507,365.06666666666666,0.7305555555555543,0.7416666666666742,0.7236111111111256,1.0095969289827036,0.037714585544311854,1.0927338549508634,69.44444444444444,1.1363636363450413,1.0249520153550762,0.00011287700908724219,0.9984688599650866,0
508,365.80833333333334,0.7416666666666742,0.7277777777777601,0.7277777777777885,1.0190839694656442,0.03650384554293607,1.0576541485202537,63.888888888888886,1.045454545437438,0.9999999999999609,2.3333893750532297e-06,0.9987425349266774,0
509,366.5361111111111,0.7277777777777601,0.73888888888888,0.7263888888888914,1.0019120458890736,0.03626151412036595,1.0506328927981234,63.888888888888886,1.045454545437438,1.0172084130018963,4.024824647785863e-06,0.9982612737493128,0
510,367.275,0.73888888888888,0.6944444444444571,0.7263888888888914,1.0172084130018963,0.03647769357524735,1.056896427334813,63.888888888888886,1.045454545437438,0.9560229445506833,1.5091936802491546e-06,0.9994431609078087,0
511,367.96944444444443,0.6944444444444571,0.6916666666666629,0.7180555555555657,0.9671179883945881,0.035317979043565206,1.0232951213000794,63.888888888888886,1.045454545437438,0.963249516440987,1.6595192846580176e-06,0.9993285019071633,0
512,368.6611111111111,0.6916666666666629,0.6833333333333371,0.7180555555555657,0.963249516440987,0.034664278678451524,1.0043549550581836,58.333333333333336,0.9545454545298347,0.9516441005802627,3.309560554498603e-07,0.9979179565186662,0
