beat_index,peak_time_s,rr_prev_s,rr_next_s,rr_baseline_s,prematurity_index,aa_ratio,morph_index,qrs_width_ms,width_index,pause_index,pvc_score,morphology_score,is_pvc_candidate
0,0.975,,1.0388888888888888,0.933333333333394,,0.02592075366075691,0.95353171695227,38.888888888888886,0.9333333333109334,1.1130952380951655,8.003951808295806e-18,0.9959066747587573,0
1,2.013888888888889,1.0388888888888888,1.0027777777777778,0.933333333333394,1.1130952380951655,0.022321953265895516,0.8211447360645975,38.888888888888886,0.9333333333109334,1.0744047619046921,2.687744630213229e-27,0.9975392626075292,0
2,3.0166666666666666,1.0027777777777778,1.0055555555555555,0.933333333333394,1.0744047619046921,0.026448417216052494,0.9729425698325194,38.888888888888886,0.9333333333109334,1.0773809523808824,4.354651351883666e-23,0.9963832384348819,0
3,4.022222222222222,1.0055555555555555,1.061111111111111,0.933333333333394,1.0773809523808824,0.026072516979257814,0.9591145460456859,38.888888888888886,0.9333333333109334,1.136904761904688,8.630049950696484e-23,0.996322129678876,0
4,5.083333333333333,1.061111111111111,1.0222222222222221,0.933333333333394,1.136904761904688,0.022144199713411652,0.8146058193219524,36.111111111111114,0.8666666666458669,1.095238095238024,1.5724783457978078e-28,0.9973748877289524,0
5,6.105555555555555,1.0222222222222221,1.0361111111111114,1.0222222222222221,1.0,0.0224397658046174,0.8254786375319788,38.888888888888886,0.9333333333109334,1.0135869565217395,1.3099127775832232e-26,0.9979864196203674,0
6,7.141666666666667,1.0361111111111114,0.9666666666666659,1.0291666666666668,1.0067476383265859,0.026654295263302877,0.9805160860368205,38.888888888888886,0.9333333333109334,0.9392712550607278,7.027347281968827e-24,0.9951075517525616,0
7,8.108333333333333,0.9666666666666659,0.875,1.0222222222222221,0.9456521739130428,0.02155813633120315,0.7930466459123391,36.111111111111114,0.8666666666458669,0.8559782608695653,2.900540822361569e-27,0.9961638015820506,0
8,8.983333333333333,0.875,0.93888888888889,1.0138888888888888,0.863013698630137,0.026183841005870533,0.9632097583849312,38.888888888888886,0.9333333333109334,0.926027397260275,3.242124394261362e-20,0.9978883713760929,0
9,9.922222222222222,0.93888888888889,0.9972222222222218,1.0055555555555555,0.9337016574585647,0.02329518854756791,0.8569465773720352,38.888888888888886,0.9333333333109334,0.9917127071823201,9.532823159492316e-24,0.9963746468539167,0
10,10.919444444444444,0.9972222222222218,0.9749999999999996,1.0041666666666667,0.9930843706777313,0.027396250577688464,1.0078099654543409,41.666666666666664,0.9999999999760001,0.9709543568464727,8.783798814906315e-22,0.9968907228767683,0
11,11.894444444444444,0.9749999999999996,0.9194444444444443,0.9999999999999998,0.9749999999999999,0.02321864286565406,0.8541307358090988,38.888888888888886,0.9333333333109334,0.9194444444444445,1.0333648915278041e-25,0.9985703704995887,0
12,12.813888888888888,0.9194444444444443,0.9305555555555554,0.9861111111111107,0.9323943661971833,0.02209890929077275,0.8129397468371176,38.888888888888886,0.9333333333109334,0.9436619718309861,7.382763336612657e-25,0.9977553273785054,0
13,13.744444444444444,0.9305555555555554,0.8527777777777779,0.9708333333333328,0.9585121602288987,0.022658879615348855,0.8335390500836029,36.111111111111114,0.8666666666458669,0.8783977110157374,5.597492591785534e-26,0.9971413569042279,0
14,14.597222222222221,0.8527777777777779,0.8416666666666668,0.952777777777778,0.8950437317784256,0.027067692475579386,0.9957234892923086,41.666666666666664,0.9999999999760001,0.8833819241982507,4.425599290869225e-19,0.9983825871426514,0
15,15.438888888888888,0.8416666666666668,0.8472222222222232,0.9347222222222227,0.9004457652303117,0.027431403560397735,1.009103117821647,41.666666666666664,0.9999999999760001,0.9063893016344732,3.823426073796188e-18,0.995592320486894,0
16,16.28611111111111,0.8472222222222232,0.8666666666666671,0.9249999999999998,0.9159159159159171,0.027806015375198306,1.0228837451765602,38.888888888888886,0.9333333333109334,0.9369369369369376,6.217759500244724e-19,0.9969879506797548,0
17,17.15277777777778,0.8666666666666671,0.8277777777777757,0.8972222222222221,0.965944272445821,0.02278635698781359,0.8382284861790853,38.888888888888886,0.9333333333109334,0.9226006191950442,4.832087011118975e-24,0.9983752890838625,0
18,17.980555555555554,0.8277777777777757,0.7916666666666679,0.8930555555555557,0.9269051321928435,0.022932227224195814,0.8435945298817558,38.888888888888886,0.9333333333109334,0.886469673405911,7.628262234293114e-23,0.9970610852980992,0
19,18.772222222222222,0.7916666666666679,0.7972222222222207,0.8597222222222225,0.9208400646203565,0.022714537557178446,0.8355865064781731,38.888888888888886,0.9333333333109334,0.9273021001615488,6.329147415348916e-22,0.9958959666928462,0
20,19.569444444444443,0.7972222222222207,0.8083333333333336,0.8500000000000005,0.9379084967320238,0.02641944305741557,0.9718767142793245,38.888888888888886,0.9333333333109334,0.9509803921568625,3.3773145930504806e-19,0.9969480395800927,0
21,20.377777777777776,0.8083333333333336,0.7777777777777786,0.844444444444445,0.9572368421052628,0.02223449775822724,0.8179275610751945,38.888888888888886,0.9333333333109334,0.9210526315789477,5.80571144657287e-23,0.9952088850738405,0
22,21.155555555555555,0.7777777777777786,0.780555555555555,0.8347222222222213,0.9317803660565744,0.022560944328543952,0.8299363615430041,38.888888888888886,0.9333333333109334,0.9351081530782034,5.0242548529171345e-22,0.9968944575503981,0
23,21.93611111111111,0.780555555555555,0.7972222222222243,0.8180555555555546,0.9541595925297117,0.027954413713240114,1.0283427886873242,41.666666666666664,0.9999999999760001,0.9745331069609544,8.589022611254972e-17,0.9955583781740936,0
24,22.733333333333334,0.7972222222222243,0.81111111111111,0.8027777777777789,0.9930795847750876,0.023931479199635754,0.8803534321991573,41.666666666666664,0.9999999999760001,1.0103806228373675,9.993225525802814e-21,0.9982892528240059,0
25,23.544444444444444,0.81111111111111,0.783333333333335,0.8027777777777789,1.0103806228373675,0.02343859441534037,0.8622219657773162,41.666666666666664,0.9999999999760001,0.9757785467128034,7.477042268818805e-22,0.998742202474478,0
26,24.32777777777778,0.783333333333335,0.7416666666666636,0.7972222222222225,0.9825783972125453,0.028021331342643382,1.030804448671998,38.888888888888886,0.9333333333109334,0.93031358885017,1.0274455883454847e-17,0.9938863762820269,0
27,25.069444444444443,0.7416666666666636,0.6861111111111136,0.7944444444444443,0.9335664335664299,0.02663662253613129,0.9798659696820378,38.888888888888886,0.9333333333109334,0.8636363636363669,2.4083892930073435e-18,0.9961368216988413,0
28,25.755555555555556,0.6861111111111136,0.6833333333333336,0.7875000000000014,0.8712522045855394,0.021762185358996496,0.8005528790396882,36.111111111111114,0.8666666666458669,0.8677248677248665,1.8158308792545627e-21,0.9962718707341565,0
29,26.43888888888889,0.6833333333333336,0.6972222222222229,0.781944444444445,0.8738898756660742,0.02298599414592368,0.8455724224176516,36.111111111111114,0.8666666666458669,0.8916518650088812,3.1957832160302124e-20,0.9962426593795063,0
30,27.136111111111113,0.6972222222222229,0.75,0.7791666666666668,0.8948306595365426,0.02756839372540063,1.014142495493699,38.888888888888886,0.9333333333109334,0.962566844919786,1.5491080640472887e-15,0.9944412260768175,0
31,27.886111111111113,0.75,0.7666666666666657,0.7638888888888893,0.9818181818181813,0.022100474077112305,0.8129973097237739,38.888888888888886,0.9333333333109334,1.0036363636363619,9.329284645051864e-22,0.9974406904782069,0
32,28.65277777777778,0.7666666666666657,0.7444444444444436,0.7583333333333329,1.0109890109890103,0.027986454256246865,1.0295214455421813,38.888888888888886,0.9333333333109334,0.9816849816849812,2.0073633639271426e-17,0.995565765803998,0
33,29.397222222222222,0.7444444444444436,0.8388888888888886,0.7472222222222218,0.9962825278810403,0.0282995502170773,1.0410391248893467,38.888888888888886,0.9333333333109334,1.1226765799256508,1.0952936454133259e-15,0.9969730613389233,0
34,30.23611111111111,0.8388888888888886,1.0,0.7472222222222218,1.1226765799256508,0.024747592612567076,0.9103753225363327,44.44444444444444,1.0666666666410667,1.3382899628252796,7.088110668966894e-17,0.9971469346353203,0
35,31.23611111111111,1.0,0.9555555555555593,0.7472222222222218,1.3382899628252796,0.025022912513831114,0.9205033559106433,44.44444444444444,1.0666666666410667,1.2788104089219388,2.8084363052082587e-21,0.9985236904639238,0
36,32.19166666666667,0.9555555555555593,0.9611111111111086,0.7472222222222218,1.2788104089219388,0.024908360625449825,0.916289402094412,41.666666666666664,0.9999999999760001,1.2862453531598486,6.217373423387338e-21,0.9984776999103293,0
37,33.15277777777778,0.9611111111111086,0.9777777777777743,0.7583333333333329,1.267399267399265,0.024520507186536478,0.9020216628005197,44.44444444444444,1.0666666666410667,1.2893772893772857,1.7419901865722516e-20,0.9969839135574227,0
38,34.13055555555555,0.9777777777777743,1.0083333333333329,0.8027777777777771,1.2179930795847718,0.025824365479288545,0.9499859408775341,44.44444444444444,1.0666666666410667,1.2560553633217997,6.548472254504077e-20,0.9944809981477549,0
39,35.138888888888886,1.0083333333333329,0.9777777777777814,0.8972222222222239,1.1238390092879231,0.02715771425668677,0.9990350682928985,47.22222222222222,1.1333333333061335,1.089783281733748,3.356826234006337e-20,0.9931828119632917,0
40,36.11666666666667,0.9777777777777814,0.8833333333333329,0.9583333333333339,1.0202898550724668,0.027036370909369223,0.9945712810194748,47.22222222222222,1.1333333333061335,0.9217391304347815,1.7283218347433797e-20,0.9938362936634133,0
41,37.0,0.8833333333333329,0.8250000000000028,0.9583333333333339,0.9217391304347815,0.026029560317896838,0.9575343242821467,47.22222222222222,1.1333333333061335,0.8608695652173938,6.442697826143566e-19,0.9944263374077664,0
42,37.825,0.8250000000000028,0.8361111111111086,0.9583333333333339,0.8608695652173938,0.026034952517930605,0.9577326840144152,47.22222222222222,1.1333333333061335,0.8724637681159388,9.754121062414693e-17,0.9912995847222974,0
43,38.66111111111111,0.8361111111111086,0.8611111111111143,0.9583333333333339,0.8724637681159388,0.02744610214675664,1.0096438261849534,47.22222222222222,1.1333333333061335,0.8985507246376839,2.1392352831246493e-15,0.9875239837337817,0
44,39.522222222222226,0.8611111111111143,0.93333333333333,0.9583333333333339,0.8985507246376839,0.027732157756103253,1.020166787820018,47.22222222222222,1.1333333333061335,0.9739130434782568,2.16043482372853e-15,0.9876843250489488,0
45,40.455555555555556,0.93333333333333,0.94166666666667,0.9444444444444446,0.9882352941176433,0.027721493153557698,1.0197744752773747,47.22222222222222,1.1333333333061335,0.9970588235294151,1.0256128869803122e-17,0.9892396120888673,0
46,41.397222222222226,0.94166666666667,0.9111111111111043,0.9375,1.004444444444448,0.027749132615053886,1.020791232101695,47.22222222222222,1.1333333333061335,0.9718518518518446,4.258348954480138e-18,0.9885643519740128,0
47,42.30833333333333,0.9111111111111043,0.9166666666666714,0.9222222222222172,0.9879518072289137,0.027513679315365382,1.0121297482554918,44.44444444444444,1.0666666666410667,0.9939759036144684,3.4740783362032986e-18,0.9897539602364227,0
48,43.225,0.9166666666666714,0.9416666666666629,0.9138888888888879,1.0030395136778179,0.027955308502482536,1.0283757047797266,47.22222222222222,1.1333333333061335,1.0303951367781126,9.598502581158357e-17,0.9867864124326714,0
49,44.166666666666664,0.9416666666666629,0.9583333333333357,0.9138888888888879,1.0303951367781126,0.02641246263687438,0.9716199296012707,44.44444444444444,1.0666666666410667,1.0486322188449886,1.3785489650897295e-19,0.9904540320456161,0
50,45.125,0.9583333333333357,1.00277777777778,0.9138888888888879,1.0486322188449886,0.025890360855343304,0.9524136744636789,44.44444444444444,1.0666666666410667,1.0972644376899732,3.586487761202857e-20,0.9918879003733512,0
51,46.12777777777778,1.00277777777778,1.0888888888888886,0.9250000000000007,1.0840840840840857,0.026838864271111002,0.9873057189778527,44.44444444444444,1.0666666666410667,1.177177177177176,2.85009862193062e-19,0.9889938135617227,0
52,47.21666666666667,1.0888888888888886,0.9888888888888872,0.9374999999999964,1.1614814814814856,0.02908759152282932,1.0700283429166242,47.22222222222222,1.1333333333061335,1.0548148148148169,9.972975433549177e-19,0.9801224985878642,0
53,48.205555555555556,0.9888888888888872,0.9638888888888886,0.9416666666666664,1.050147492625367,0.027821099680733954,1.023438642767297,50.0,1.1999999999712,1.023598820058997,5.844301515747445e-18,0.9863670979949958,0
54,49.169444444444444,0.9638888888888886,0.9027777777777786,0.9500000000000028,1.0146198830409323,0.027116581992352447,0.9975219595636481,44.44444444444444,1.0666666666410667,0.9502923976608167,4.832705147378177e-20,0.9900408697692273,0
55,50.07222222222222,0.9027777777777786,0.8555555555555543,0.9500000000000028,0.9502923976608167,0.026957151105657266,0.991657068090379,47.22222222222222,1.1333333333061335,0.9005847953216334,5.797913640585778e-18,0.9892732094849785,0
56,50.92777777777778,0.8555555555555543,0.8638888888888872,0.9499999999999993,0.9005847953216368,0.0264308295270453,0.9722955817273223,44.44444444444444,1.0666666666410667,0.9093567251461977,1.5861570403147305e-17,0.9892832037387804,0
57,51.791666666666664,0.8638888888888872,0.8888888888888928,0.9499999999999993,0.9093567251461977,0.026309172212954205,0.9678202447404697,44.44444444444444,1.0666666666410667,0.9356725146198879,9.684413063269747e-18,0.9893068020307304,0
58,52.68055555555556,0.8888888888888928,0.8611111111111072,0.9499999999999993,0.9356725146198879,0.027950615328504094,1.0282030597131444,47.22222222222222,1.1333333333061335,0.9064327485380083,9.858112223791389e-17,0.9889421142258703,0
59,53.541666666666664,0.8611111111111072,0.8444444444444485,0.9305555555555571,0.9253731343283524,0.028838736839518497,1.0608738701511107,50.0,1.1999999999712,0.907462686567167,1.3068635868027263e-14,0.9871106785593363,0
60,54.38611111111111,0.8444444444444485,0.8055555555555571,0.8958333333333357,0.9426356589147308,0.026745951232209398,0.9838877809552701,47.22222222222222,1.1333333333061335,0.8992248062015498,6.034815934633311e-17,0.9889639179633523,0
61,55.19166666666667,0.8055555555555571,0.74444444444444,0.87638888888889,0.9191759112519816,0.026881359435481377,0.9888689639195151,41.666666666666664,0.9999999999760001,0.8494453248811349,3.0370800428188406e-16,0.9814353514946836,0
62,55.93611111111111,0.74444444444444,0.75,0.8624999999999972,0.8631239935587739,0.025977818728725503,0.9556309364792266,41.666666666666664,0.9999999999760001,0.8695652173913072,1.0999575147000265e-16,0.9908829578362399,0
63,56.68611111111111,0.75,0.7888888888888914,0.8583333333333307,0.8737864077669929,0.025388046445421388,0.9339353258781646,41.666666666666664,0.9999999999760001,0.9190938511326918,2.1359633139634142e-17,0.993304518109075,0
64,57.475,0.7888888888888914,0.8277777777777757,0.8500000000000014,0.9281045751634001,0.02628047347058131,0.9667645207654901,47.22222222222222,1.1333333333061335,0.9738562091503228,3.2286783660921714e-16,0.9917386485381314,0
65,58.30277777777778,0.8277777777777757,0.8638888888888872,0.8361111111111121,0.9900332225913585,0.02662020255445396,0.9792619373484867,44.44444444444444,1.0666666666410667,1.033222591362123,1.1680696012019496e-17,0.993484997182302,0
66,59.166666666666664,0.8638888888888872,0.93611111111111,0.8361111111111121,1.033222591362123,0.026651882236360492,0.9804273194155432,47.22222222222222,1.1333333333061335,1.1196013289036517,1.3485291268902535e-16,0.989190227170524,0
67,60.102777777777774,0.93611111111111,1.0333333333333385,0.8361111111111121,1.1196013289036517,0.027696727572312042,1.0188634382174362,47.22222222222222,1.1333333333061335,1.235880398671101,5.3570879328762e-16,0.9874869962217413,0
68,61.13611111111111,1.0333333333333385,0.9888888888888872,0.8361111111111121,1.235880398671101,0.02651694745923941,0.9754635521042697,47.22222222222222,1.1333333333061335,1.1827242524916908,1.5877830408770534e-20,0.993047190409555,0
69,62.125,0.9888888888888872,0.9027777777777786,0.8361111111111121,1.1827242524916908,0.02548908789830961,0.9376522791472249,44.44444444444444,1.0666666666410667,1.0797342192691026,2.8571047569006197e-22,0.9953139804588813,0
70,63.02777777777778,0.9027777777777786,0.9083333333333314,0.8458333333333314,1.067323481116588,0.025142057816506438,0.9248862849918604,44.44444444444444,1.0666666666410667,1.0738916256157638,3.161950559624513e-20,0.9933742276523079,0
71,63.93611111111111,0.9083333333333314,0.9666666666666615,0.8833333333333329,1.0283018867924512,0.02618890189477542,0.9633959303670402,47.22222222222222,1.1333333333061335,1.094339622641504,1.15189604887743e-18,0.9942865257364603,0
72,64.90277777777777,0.9666666666666615,0.9861111111111143,0.905555555555555,1.067484662576682,0.027840736041981496,1.024160994188869,47.22222222222222,1.1333333333061335,1.088957055214728,1.4827130795927531e-18,0.9922803750050637,0
73,65.88888888888889,0.9861111111111143,0.9138888888888914,0.9222222222222207,1.06927710843374,0.02755375527789446,1.0136039994234554,47.22222222222222,1.1333333333061335,0.9909638554216911,3.522422299643198e-20,0.9929824753938852,0
74,66.80277777777778,0.9138888888888914,0.86944444444444,0.9250000000000007,0.9879879879879899,0.027404803129271866,1.0081245832043637,44.44444444444444,1.0666666666410667,0.9399399399399344,3.5979177170577203e-19,0.9933192606600483,0
75,67.67222222222222,0.86944444444444,0.8944444444444457,0.9250000000000007,0.9399399399399344,0.025305086411989662,0.9308835232897108,44.44444444444444,1.0666666666410667,0.9669669669669676,1.894545135929103e-19,0.994028264124345,0
76,68.56666666666666,0.8944444444444457,0.9055555555555657,0.9250000000000007,0.9669669669669676,0.026083084156579013,0.9595032746631597,44.44444444444444,1.0666666666410667,0.9789789789789891,8.210365993063194e-20,0.9960127685629538,0
77,69.47222222222223,0.9055555555555657,0.9111111111111114,0.9111111111111114,0.993902439024401,0.030766855581566235,1.1318024549698495,44.44444444444444,1.0666666666410667,1.0,1.7867222992131566e-16,0.9945016701879454,0
78,70.38333333333334,0.9111111111111114,0.99722222222222,0.9097222222222214,1.001526717557253,0.02745800081794,1.0100815356941524,44.44444444444444,1.0666666666410667,1.0961832061068688,9.054421555401398e-18,0.9924857957189965,0
79,71.38055555555556,0.99722222222222,1.0333333333333314,0.9097222222222214,1.0961832061068688,0.026594106619314772,0.9783019613321867,44.44444444444444,1.0666666666410667,1.1358778625954187,1.4634375999711596e-20,0.9937418956196014,0
80,72.41388888888889,1.0333333333333314,1.0138888888888857,0.9125000000000014,1.132420091324197,0.026550725402996436,0.9767061217119011,47.22222222222222,1.1333333333061335,1.1111111111111058,1.886970027521257e-21,0.9964660873601159,0
81,73.42777777777778,1.0138888888888857,0.9805555555555543,0.9402777777777764,1.0782865583456407,0.030427469395520622,1.1193176523701514,44.44444444444444,1.0666666666410667,1.0428360413589366,3.4187423830665504e-19,0.9959663031621512,0
82,74.40833333333333,0.9805555555555543,0.9750000000000085,0.9472222222222229,1.035190615835775,0.024677876992855993,0.9078107345065431,44.44444444444444,1.0666666666410667,1.0293255131964894,8.03660693109427e-23,0.9971701785643244,0
83,75.38333333333334,0.9750000000000085,0.9249999999999972,0.94444444444445,1.0323529411764736,0.028117083765560803,1.0343268374660022,44.44444444444444,1.0666666666410667,0.9794117647058737,1.681594208069803e-20,0.9968697222349658,0
84,76.30833333333334,0.9249999999999972,0.9444444444444429,0.9500000000000028,0.9736842105263099,0.024460693354781644,0.8998213260959187,44.44444444444444,1.0666666666410667,0.9941520467836211,1.1386002797144086e-21,0.9969355651886754,0
85,77.25277777777778,0.9444444444444429,0.9722222222222143,0.9597222222222257,0.9840810419681568,0.02521773126846775,0.927670040337895,41.666666666666664,0.9999999999760001,1.0130246020260374,3.496140655163243e-22,0.9975161272199644,0
86,78.225,0.9722222222222143,0.9416666666666771,0.9736111111111114,0.9985734664764537,0.028328138691900474,1.042090792515989,41.666666666666664,0.9999999999760001,0.967189728958641,1.1269208974009112e-20,0.9967219672568903,0
87,79.16666666666667,0.9416666666666771,0.8388888888888886,0.9736111111111114,0.967189728958641,0.022383196865830707,0.8233976688212153,36.111111111111114,0.8666666666458669,0.8616262482168325,4.113578668925933e-26,0.994130563187035,0
88,80.00555555555556,0.8388888888888886,0.8444444444444343,0.9736111111111114,0.8616262482168325,0.023058470938655873,0.8482385841164047,36.111111111111114,0.8666666666458669,0.8673323823109736,4.330284069610113e-23,0.9976995389289123,0
89,80.85,0.8444444444444343,0.8388888888888886,0.9583333333333286,0.8811594202898488,0.022144784963516094,0.814627348577785,36.111111111111114,0.8666666666458669,0.8753623188405837,1.1772676948453406e-23,0.9946409178605045,0
90,81.68888888888888,0.8388888888888886,0.8444444444444485,0.94305555555556,0.8895434462444727,0.023241053556728324,0.8549551448914042,38.888888888888886,0.9333333333109334,0.8954344624447719,7.056796248421633e-22,0.9947336717429869,0
91,82.53333333333333,0.8444444444444485,0.86944444444444,0.9333333333333371,0.9047619047619054,0.023294660432451368,0.8569271499078336,38.888888888888886,0.9333333333109334,0.9315476190476105,2.851866972925442e-22,0.997120720975115,0
92,83.40277777777777,0.86944444444444,0.8583333333333343,0.8972222222222186,0.9690402476780176,0.02514736485189066,0.9250815118216075,41.666666666666664,0.9999999999760001,0.956656346749231,3.3751731646162486e-21,0.997789651051691,0
93,84.2611111111111,0.8583333333333343,0.8250000000000028,0.8638888888888872,0.9935691318328005,0.030001728985593733,1.103656187068386,44.44444444444444,1.0666666666410667,0.9549839228295872,2.722265160197407e-16,0.9936626686148201,0
94,85.08611111111111,0.8250000000000028,0.8055555555555571,0.8513888888888914,0.9690048939641114,0.02304260896593517,0.8476550789343961,38.888888888888886,0.9333333333109334,0.9461663947797707,9.862972650152163e-23,0.9964160207584912,0
95,85.89166666666667,0.8055555555555571,0.74722222222222,0.8444444444444414,0.9539473684210579,0.023356153743231887,0.859189268632352,36.111111111111114,0.8666666666458669,0.8848684210526321,2.1761163521741293e-23,0.9985052209397232,0
96,86.63888888888889,0.74722222222222,0.75833333333334,0.8416666666666615,0.8877887788778906,0.025923471243082273,0.9536316870756151,38.888888888888886,0.9333333333109334,0.9009900990099144,1.73446601601115e-18,0.9971239339152826,0
97,87.39722222222223,0.75833333333334,0.7333333333333343,0.8388888888888886,0.9039735099337831,0.022653217276164563,0.8333307528992298,36.111111111111114,0.8666666666458669,0.874172185430465,2.255281131476827e-22,0.996678637935208,0
98,88.13055555555556,0.7333333333333343,0.7972222222222172,0.8319444444444457,0.8814691151919865,0.02352559750145885,0.8654224977978145,38.888888888888886,0.9333333333109334,0.9582637729549174,8.408024160853978e-19,0.991368576046646,0
99,88.92777777777778,0.7972222222222172,0.8944444444444457,0.81527777777778,0.9778534923338923,0.029232160946218392,1.075346534366886,41.666666666666664,0.9999999999760001,1.097103918228278,2.4969870599357916e-15,0.9954652786298156,0
100,89.82222222222222,0.8944444444444457,0.9222222222222172,0.81527777777778,1.097103918228278,0.023577597735191094,0.867335400208044,38.888888888888886,0.9333333333109334,1.1311754684838067,4.886214228814172e-23,0.9987218954961954,0
101,90.74444444444444,0.9222222222222172,0.5527777777777771,0.81527777777778,1.1311754684838067,0.02173636485952315,0.799603035315327,36.111111111111114,0.8666666666458669,0.6780238500851763,5.0658086809432315e-28,0.9980603036047344,0
102,91.29722222222222,0.5527777777777771,0.4833333333333343,0.8013888888888872,0.6897746967071064,0.037923153030486656,1.3950570147252304,55.55555555555556,1.3333333333013335,0.6031195840554617,0.9994128942489624,0.9100944687010377,1
103,91.78055555555555,0.4833333333333343,1.2111111111111086,0.7777777777777786,0.621428571428572,0.04465955978910361,1.6428652994186521,86.11111111111111,2.066666666617067,1.5571428571428523,0.9994389414787292,0.8766493246961226,1
104,92.99166666666666,1.2111111111111086,0.5194444444444457,0.7777777777777786,1.5571428571428523,0.022212303668932797,0.817111119996818,36.111111111111114,0.8666666666458669,0.6678571428571438,2.3655589541230173e-32,0.9926499350977264,0
105,93.5111111111111,0.5194444444444457,0.4333333333333371,0.75277777777778,0.6900369003690033,0.036097670461862824,1.3279040472341033,97.22222222222223,2.333333333277334,0.5756457564575679,0.9963123202323914,0.7302941746066635,1
106,93.94444444444444,0.4333333333333371,1.3472222222222285,0.7458333333333371,0.5810055865921809,0.042774958751705706,1.5735375751372132,88.88888888888889,2.1333333332821334,1.8063314711359397,0.9992625117301941,0.8649193342591532,1
107,95.29166666666667,1.3472222222222285,1.00277777777778,0.7652777777777757,1.7604355716878533,0.02648418202986203,0.9742582292753201,38.888888888888886,0.9333333333109334,1.3103448275862133,1.4409080805351292e-28,0.99494251933853,0
108,96.29444444444445,1.00277777777778,0.5666666666666629,0.8458333333333314,1.1855500821018115,0.02538601031903552,0.9338604240788552,38.888888888888886,0.9333333333109334,0.6699507389162532,8.119735436678559e-26,0.9973563596601426,0
109,96.86111111111111,0.5666666666666629,1.1416666666666657,0.7305555555555543,0.7756653992395399,0.042767015644258916,1.5732453766548389,55.55555555555556,1.3333333333013335,1.5627376425855528,0.9999110698699951,0.7129838068995139,1
110,98.00277777777778,1.1416666666666657,0.5555555555555571,0.74444444444444,1.5335820895522467,0.023246828104701297,0.8551675698353451,38.888888888888886,0.9333333333109334,0.7462686567164245,6.079648506972641e-30,0.9982735663139504,0
111,98.55833333333334,0.5555555555555571,0.43055555555555713,0.56111111111111,0.9900990099009949,0.03812473369283504,1.402472445525934,83.33333333333333,1.9999999999520002,0.7673267326732717,0.9906529188156128,0.6816146087373631,1
112,98.9888888888889,0.43055555555555713,1.2944444444444372,0.56111111111111,0.7673267326732717,0.042809316367344835,1.5748014687978502,83.33333333333333,1.9999999999520002,2.3069306930692983,0.9994705319404602,0.8777147428658906,1
113,100.28333333333333,1.2944444444444372,0.5555555555555571,0.7847222222222214,1.6495575221238863,0.022541229572492272,0.8292111262572834,36.111111111111114,0.8666666666458669,0.7079646017699143,4.124938705907509e-34,0.9951443682048331,0
114,100.83888888888889,0.5555555555555571,1.2666666666666657,0.56111111111111,0.9900990099009949,0.04174370771942081,1.5356015420923044,105.55555555555556,2.533333333272534,2.2574257425742603,0.999685525894165,0.6784545874108541,1
115,102.10555555555555,1.2666666666666657,0.5944444444444485,0.7847222222222214,1.6141592920353987,0.026155214577382017,0.9621566945788355,44.44444444444444,1.0666666666410667,0.7575221238938113,2.1326782831759626e-28,0.9973790557562646,0
116,102.7,0.5944444444444485,0.4194444444444372,0.7986111111111143,0.7443478260869587,0.03688072819200069,1.3567099373584146,61.111111111111114,1.466666666631467,0.5252173913043366,0.9929602742195129,0.3342247538982688,1
117,103.11944444444444,0.4194444444444372,1.2750000000000057,0.5805555555555557,0.7224880382774993,0.042124896580250336,1.5496241154212638,91.66666666666667,2.1999999999472006,2.196172248803837,0.9996792078018188,0.8641987604515697,1
118,104.39444444444445,1.2750000000000057,0.9194444444444372,0.5805555555555557,2.196172248803837,0.02629060048945927,0.9671370575298408,44.44444444444444,1.0666666666410667,1.583732057416255,3.697736848904633e-21,0.9935927618523166,0
119,105.31388888888888,0.9194444444444372,0.5333333333333456,0.7569444444444429,1.2146788990825617,0.02489468877191495,0.9157864635554464,41.666666666666664,0.9999999999760001,0.7045871559633204,2.179256649665633e-23,0.9970891732090673,0
120,105.84722222222223,0.5333333333333456,0.44722222222222285,0.5750000000000028,0.9275362318840749,0.042224086208576476,1.5532729466952122,91.66666666666667,2.1999999999472006,0.777777777777775,0.9956111311912537,0.68917199185971,1
121,106.29444444444445,0.44722222222222285,1.3611111111111,0.5750000000000028,0.777777777777775,0.04145862849527525,1.5251144981728029,86.11111111111111,2.066666666617067,2.3671497584540755,0.9994410872459412,0.8672526566063012,1
122,107.65555555555555,1.3611111111111,0.5444444444444514,0.7569444444444429,1.7981651376146681,0.023251580217378148,0.8553423830456095,38.888888888888886,0.9333333333109334,0.7192660550458823,1.7977678845746194e-34,0.9984956434979608,0
123,108.2,0.5444444444444514,0.4583333333333286,0.5750000000000028,0.9468599033816499,0.03973840981372334,1.461833812185771,127.77777777777777,3.066666666593067,0.7971014492753501,0.9977166652679443,0.6219407761290382,1
124,108.65833333333333,0.4583333333333286,1.3166666666666629,0.56944444444445,0.8048780487804716,0.04322392113311691,1.59005329362275,88.88888888888889,2.1333333332821334,2.3121951219511905,0.999601423740387,0.8564580514208873,1
125,109.975,1.3166666666666629,0.8666666666666742,0.56944444444445,2.3121951219511905,0.021905919630319962,0.8058403482357496,36.111111111111114,0.8666666666458669,1.5219512195121936,3.487646506619424e-27,0.9895077577115625,0
126,110.84166666666667,0.8666666666666742,0.5416666666666714,0.7055555555555628,1.2283464566929114,0.02255521977244762,0.8297257756212071,38.888888888888886,0.9333333333109334,0.7677165354330697,1.3685742740843976e-24,0.9967166710943196,0
127,111.38333333333334,0.5416666666666714,0.4333333333333229,0.7055555555555628,0.7677165354330697,0.0411005628454378,1.511942544982721,102.77777777777777,2.466666666607467,0.6141732283464356,0.9985632300376892,0.6880134567049998,1
128,111.81666666666666,0.4333333333333229,1.2805555555555657,0.5430555555555614,0.7979539641943456,0.04286193117527081,1.5767369791921613,80.55555555555556,1.9333333332869336,2.358056265984648,0.9993343949317932,0.8692673388522493,1
129,113.09722222222223,1.2805555555555657,0.8861111111111057,0.5430555555555614,2.358056265984648,0.025126497496572427,0.9243138765357951,41.666666666666664,0.9999999999760001,1.6317135549871848,2.2579324614248385e-22,0.9950082786127519,0
130,113.98333333333333,0.8861111111111057,0.5583333333333371,0.7055555555555628,1.2559055118110032,0.025759159398763356,0.94758724264782,41.666666666666664,0.9999999999760001,0.7913385826771626,1.7277936993093102e-21,0.9970688377046197,0
131,114.54166666666667,0.5583333333333371,0.4416666666666629,0.7125000000000057,0.7836257309941511,0.042923498671188484,1.579001826922253,105.55555555555556,2.533333333272534,0.6198830409356623,0.9986647367477417,0.6702643965453203,1
132,114.98333333333333,0.4416666666666629,1.2305555555555543,0.5513888888888943,0.8010075566750483,0.04280702501948045,1.5747171783141762,83.33333333333333,1.9999999999520002,2.23173803526446,0.999566376209259,0.8689446310445518,1
133,116.21388888888889,1.2305555555555543,0.49722222222222,0.7125000000000057,1.7270955165691853,0.029643322873165696,1.0904717094786354,44.44444444444444,1.0666666666410667,0.6978557504873207,4.501269118614134e-24,0.9964532219412134,0
134,116.71111111111111,0.49722222222222,1.1777777777777771,0.7125000000000057,0.6978557504873207,0.029642741534097565,1.0904503240958252,138.88888888888889,3.333333333253334,1.6530214424951126,0.9952781200408936,0.6891080849882911,1
135,117.88888888888889,1.1777777777777771,0.5499999999999972,0.7125000000000057,1.6530214424951126,0.02523479464230202,0.9282977407652101,41.666666666666664,0.9999999999760001,0.7719298245613934,7.277282776675152e-28,0.9981220781523745,0
136,118.43888888888888,0.5499999999999972,0.4388888888888971,0.5541666666666671,0.9924812030075129,0.03795971494140033,1.3964019965164565,116.66666666666667,2.7999999999328007,0.7919799498747009,0.9900292754173279,0.676833490243617,1
137,118.87777777777778,0.4388888888888971,1.3333333333333286,0.5541666666666671,0.7919799498747009,0.04500116796402509,1.6554318410331794,88.88888888888889,2.1333333332821334,2.406015037593974,0.9995018243789673,0.8634449736145345,1
138,120.21111111111111,1.3333333333333286,0.5472222222222314,0.7222222222222214,1.8461538461538416,0.02591917270581521,0.953473559280633,41.666666666666664,0.9999999999760001,0.7576923076923212,2.202020277395376e-30,0.9979485710117881,0
139,120.75833333333334,0.5472222222222314,1.2027777777777686,0.5541666666666671,0.9874686716792137,0.038120040725776023,1.4022998080711768,113.88888888888889,2.7333333332677334,2.170426065162889,0.9995471835136414,0.61728885345896,1
140,121.96111111111111,1.2027777777777686,0.5277777777777857,0.5541666666666671,2.170426065162889,0.028647558090030046,1.0538410884800862,41.666666666666664,0.9999999999760001,0.9523809523809658,3.009220111056791e-22,0.9939210645437254,0
141,122.4888888888889,0.5277777777777857,1.1444444444444457,0.5486111111111143,0.9620253164557051,0.04310117562314036,1.5855379258055973,111.11111111111111,2.666666666602667,2.086075949367079,0.999771773815155,0.6755363436842257,1
142,123.63333333333334,1.1444444444444457,0.5138888888888857,0.8472222222222214,1.3508196721311503,0.025443737125463613,0.9359839865943573,41.666666666666664,0.9999999999760001,0.6065573770491771,1.1443095727921479e-27,0.9966083958069432,0
143,124.14722222222223,0.5138888888888857,0.4805555555555543,0.5486111111111143,0.9367088607594826,0.03868239235185076,1.4229867108734577,61.111111111111114,1.466666666631467,0.8759493670886003,0.9780936241149902,0.9044043907675625,1
144,124.62777777777778,0.4805555555555543,1.3472222222222143,0.5486111111111143,0.8759493670886003,0.04361064997244644,1.6042796629246243,88.88888888888889,2.1333333332821334,2.455696202531617,0.9992146492004395,0.8729573745565642,1
145,125.975,1.3472222222222143,0.5444444444444514,0.5486111111111143,2.455696202531617,0.023793591616915938,0.8752810417425372,41.666666666666664,0.9999999999760001,0.9924050632911462,3.0147132115086876e-29,0.9975757291014775,0
146,126.51944444444445,0.5444444444444514,1.1916666666666629,0.5458333333333414,0.9974554707379115,0.03391219027128812,1.2475080562163399,47.22222222222222,1.1333333333061335,2.18320610687019,0.9983218312263489,0.5213267604997999,1
147,127.71111111111111,1.1916666666666629,0.5333333333333314,0.8458333333333385,1.4088669950738784,0.022756440390339534,0.8371279616755098,38.888888888888886,0.9333333333109334,0.6305418719211762,1.2534433795657098e-31,0.9961986357140005,0
148,128.24444444444444,0.5333333333333314,0.42777777777777715,0.5458333333333414,0.9770992366412035,0.038341895621166064,1.4104610553128343,100.0,2.3999999999424,0.7837150127226336,0.9872095584869385,0.680988679835478,1
149,128.67222222222222,0.42777777777777715,1.26666666666668,0.5388888888888914,0.7938144329896858,0.043252655023718625,1.591110310575218,80.55555555555556,1.9333333332869336,2.350515463917539,0.9993194341659546,0.8804776973167616,1
150,129.9388888888889,1.26666666666668,0.5277777777777715,0.5388888888888914,2.350515463917539,0.025089832101800755,0.9229650879439611,41.666666666666664,0.9999999999760001,0.9793814432989527,1.2618180698259962e-26,0.9979079611882085,0
151,130.46666666666667,0.5277777777777715,1.23888888888888,0.5388888888888914,0.9793814432989527,0.02911561148539863,1.0710590970130263,41.666666666666664,0.9999999999760001,2.298969072164921,0.9901941418647766,0.7512896610025911,1
152,131.70555555555555,1.23888888888888,0.5694444444444571,0.5388888888888914,2.298969072164921,0.02714855992041956,0.9986983130390709,44.44444444444444,1.0666666666410667,1.0567010309278535,1.0263891957024655e-22,0.99400890650965,0
153,132.275,0.5694444444444571,0.44722222222222285,0.5569444444444542,1.022443890274319,0.04412400089022881,1.623164005117696,111.11111111111111,2.666666666602667,0.802992518703229,0.9917674660682678,0.63790144445269,1
154,132.72222222222223,0.44722222222222285,1.23888888888888,0.5569444444444542,0.802992518703229,0.03974560744007964,1.4620985870880492,86.11111111111111,2.066666666617067,2.224438902743087,0.9995866417884827,0.8704767755747743,1
155,133.9611111111111,1.23888888888888,0.5194444444444457,0.5569444444444542,2.224438902743087,0.02401329927709701,0.8833632998891126,41.666666666666664,0.9999999999760001,0.9326683291770432,2.809488439787779e-27,0.9966110267213976,0
156,134.48055555555555,0.5194444444444457,0.42777777777777715,0.5513888888888943,0.9420654911838722,0.02719932306617337,1.0005657074120136,113.88888888888889,2.7333333332677334,0.77581863979848,0.1932557225227356,0.7054504070127608,0
157,134.90833333333333,0.42777777777777715,1.2305555555555543,0.5305555555555515,0.8062827225130941,0.04207379835990768,1.5477443948539447,88.88888888888889,2.1333333332821334,2.3193717277487065,0.9995476603507996,0.8717383434136174,1
158,136.13888888888889,1.2305555555555543,0.5416666666666572,0.5486111111111143,2.243037974683529,0.025681543091135774,0.9447320165982908,38.888888888888886,0.9333333333109334,0.9873417721518758,4.2164017575408343e-26,0.9968419010735582,0
159,136.68055555555554,0.5416666666666572,0.46944444444446276,0.5555555555555571,0.9749999999999802,0.03950933518465997,1.453406976792798,111.11111111111111,2.666666666602667,0.8450000000000306,0.9974005222320557,0.5683899350506911,1
160,137.15,0.46944444444446276,1.2833333333333314,0.5347222222222143,0.8779220779221252,0.042672452705876926,1.5697667447378996,88.88888888888889,2.1333333332821334,2.400000000000032,0.9993488192558289,0.8637908745056644,1
161,138.43333333333334,1.2833333333333314,0.5194444444444457,0.5555555555555571,2.30999999999999,0.02504018297039062,0.9211386741699524,41.666666666666664,0.9999999999760001,0.9349999999999996,1.765027549404421e-27,0.9982411134872301,0
162,138.95277777777778,0.5194444444444457,1.1166666666666742,0.5305555555555515,0.9790575916230466,0.031058125104543494,1.142517217818773,52.77777777777778,1.266666666636267,2.1047120418848473,0.9905288815498352,0.9355107508777587,1
163,140.06944444444446,1.1166666666666742,0.538888888888863,0.5305555555555515,2.1047120418848473,0.023644554901988742,0.8697985146318921,41.666666666666664,0.9999999999760001,1.0157068062826815,1.2133780197185813e-24,0.9975357903805371,0
164,140.60833333333332,0.538888888888863,0.42500000000001137,0.5402777777777601,0.9974293059125812,0.042123697337458764,1.5495799995728954,97.22222222222223,2.333333333277334,0.786632390745548,0.9912880063056946,0.6675389444850668,1
165,141.03333333333333,0.42500000000001137,1.2222222222222285,0.5291666666666544,0.8031496062992528,0.04209005934660225,1.5483425783313676,83.33333333333333,1.9999999999520002,2.3097112860893043,0.9994274377822876,0.8797802455494107,1
166,142.25555555555556,1.2222222222222285,0.5583333333333371,0.5402777777777601,2.262210796915253,0.02421843123883162,0.8909093702786753,38.888888888888886,0.9333333333109334,1.0334190231362876,5.403070888346016e-27,0.997291924563464,0
167,142.8138888888889,0.5583333333333371,1.2138888888888744,0.5499999999999972,1.0151515151515274,0.03844938583607292,1.4144152354465267,111.11111111111111,2.666666666602667,2.207070707070692,0.999527096748352,0.6144161633450191,1
168,144.02777777777777,1.2138888888888744,0.5555555555555713,0.5499999999999972,2.207070707070692,0.02907106478721213,1.0694203834878622,44.44444444444444,1.0666666666410667,1.0101010101010441,1.0606526433687073e-21,0.9966088302784983,0
169,144.58333333333334,0.5555555555555713,0.44444444444442865,0.5569444444444542,0.9975062344139759,0.04156729927058809,1.5291121068967908,102.77777777777777,2.466666666607467,0.7980049875311297,0.9921284914016724,0.6424278717066847,1
170,145.02777777777777,0.44444444444442865,1.25555555555556,0.5569444444444542,0.7980049875311297,0.04199607632989707,1.5448852796564867,86.11111111111111,2.066666666617067,2.2543640897755295,0.999559223651886,0.8787101307106804,1
171,146.28333333333333,1.25555555555556,0.5194444444444457,0.5569444444444542,2.2543640897755295,0.02517478122304924,0.9260900619511903,41.666666666666664,0.9999999999760001,0.9326683291770432,6.826738795131669e-26,0.9925601313338447,0
172,146.80277777777778,0.5194444444444457,1.186111111111103,0.5569444444444542,0.9326683291770432,0.04159752210084158,1.5302238966078439,119.44444444444444,2.866666666597867,2.1296758104737634,0.9997196793556213,0.6011283356841602,1
173,147.98888888888888,1.186111111111103,0.8388888888889028,0.5569444444444542,2.1296758104737634,0.02703941425746767,0.9946832348991951,41.666666666666664,0.9999999999760001,1.5062344139650858,2.232557242106354e-20,0.9954706966210942,0
174,148.82777777777778,0.8388888888889028,0.8222222222222229,0.69861111111112,1.2007952286282353,0.026537345639406993,0.9762139281161889,44.44444444444444,1.0666666666410667,1.176938369781298,1.5338890525070563e-16,0.9936605445635758,0
175,149.65,0.8222222222222229,0.5944444444444343,0.8305555555555628,0.9899665551839386,0.02611806169413997,0.9607899730316471,44.44444444444444,1.0666666666410667,0.715719063545132,1.2554991281299896e-19,0.9941526731417163,0
176,150.24444444444444,0.5944444444444343,0.4583333333333428,0.7083333333333286,0.8392156862745012,0.04483503909148958,1.6493205546432332,125.0,2.9999999999280003,0.6470588235294294,0.9990642666816711,0.6029152453929304,1
177,150.70277777777778,0.4583333333333428,1.2861111111110972,0.7083333333333286,0.6470588235294294,0.042112135488399496,1.5491546805436376,80.55555555555556,1.9333333332869336,1.8156862745097964,0.9994871616363525,0.8926213697639045,1
178,151.98888888888888,1.2861111111110972,0.4777777777777885,0.7083333333333286,1.8156862745097964,0.026024456301534733,0.9573465657953061,44.44444444444444,1.0666666666410667,0.6745098039215883,1.4572598998384574e-27,0.9910985102305712,0
179,152.46666666666667,0.4777777777777885,0.4805555555555543,0.7083333333333286,0.6745098039215883,0.038748870750375065,1.4254322131267771,63.888888888888886,1.5333333332965335,0.6784313725490224,0.9983589053153992,0.9419294986631856,1
180,152.94722222222222,0.4805555555555543,1.3833333333333258,0.7083333333333286,0.6784313725490224,0.045112292584487165,1.6595197179341235,113.88888888888889,2.7333333332677334,1.9529411764705906,0.9997517466545105,0.8503185945631052,1
181,154.33055555555555,1.3833333333333258,0.5222222222222399,0.7083333333333286,1.9529411764705906,0.02787049462303321,1.0252557058340503,47.22222222222222,1.1333333333061335,0.7372549019608142,4.314958526142929e-26,0.9862547401876495,0
182,154.8527777777778,0.5222222222222399,1.3333333333333144,0.7083333333333286,0.7372549019608142,0.04027356165449408,1.4815201322765656,80.55555555555556,1.9333333332869336,1.8823529411764564,0.9996232986450195,0.9016865928431479,1
183,156.1861111111111,1.3333333333333144,0.8916666666666799,0.7083333333333286,1.8823529411764564,0.02783652941853843,1.024006247574371,47.22222222222222,1.1333333333061335,1.2588235294117918,1.7223103902659914e-23,0.9860525605757625,0
184,157.07777777777778,0.8916666666666799,0.8166666666666629,0.7083333333333286,1.2588235294117918,0.026781023644616115,0.9851779694296301,44.44444444444444,1.0666666666410667,1.1529411764705906,2.2320921236177942e-17,0.9910648925924003,0
185,157.89444444444445,0.8166666666666629,0.9222222222222172,0.7055555555555486,1.1574803149606359,0.02691146242443154,0.9899763450981148,44.44444444444444,1.0666666666410667,1.307086614173234,3.004764677089905e-14,0.9922909804263929,0
186,158.81666666666666,0.9222222222222172,0.8916666666666799,0.8541666666666714,1.0796747967479556,0.025631228735921628,0.9428811316223911,44.44444444444444,1.0666666666410667,1.0439024390244,5.4097721920893115e-20,0.9894093180851425,0
187,159.70833333333334,0.8916666666666799,0.5666666666666629,0.8916666666666799,1.0,0.026289038947971393,0.9670796140096595,44.44444444444444,1.0666666666410667,0.6355140186915751,8.056628498547818e-21,0.9928207712810813,0
188,160.275,0.5666666666666629,0.48888888888888005,0.8541666666666714,0.6634146341463334,0.04579602160729117,1.68467166056577,111.11111111111111,2.666666666602667,0.5723577235772223,0.9985705614089966,0.562201988956504,1
189,160.76388888888889,0.48888888888888005,1.3055555555555713,0.8541666666666714,0.5723577235772223,0.04210944985031749,1.5490558855346281,86.11111111111111,2.066666666617067,1.5284552845528556,0.9991781115531921,0.8818444420555069,1
190,162.06944444444446,1.3055555555555713,0.5277777777777715,0.8916666666666799,1.4641744548286564,0.02926151796932582,1.0764264741330902,47.22222222222222,1.1333333333061335,0.5919003115264638,9.408042719226266e-24,0.9833255169339192,0
191,162.59722222222223,0.5277777777777715,1.2694444444444457,0.8541666666666714,0.6178861788617778,0.04080291909957841,1.500993297297107,77.77777777777777,1.8666666666218668,1.4861788617886111,0.9993019104003906,0.9133851180074825,1
192,163.86666666666667,1.2694444444444457,0.5472222222222172,0.8916666666666799,1.4236760124610395,0.027768588334938938,1.021506938374334,47.22222222222222,1.1333333333061335,0.6137071651090195,4.486438829418818e-25,0.9871027336615481,0
193,164.4138888888889,0.5472222222222172,0.3916666666666515,0.8541666666666714,0.6406504065040556,0.03901233188432063,1.4351240049122005,122.22222222222223,2.933333333262934,0.45853658536583336,0.9874922037124634,0.329504451913018,1
194,164.80555555555554,0.3916666666666515,1.2222222222222285,0.6916666666666629,0.566265060240945,0.041098074845045296,1.511851020356659,88.88888888888889,2.1333333332821334,1.7670682730923883,0.9992413520812988,0.8620930133383615,1
195,166.02777777777777,1.2222222222222285,0.51111111111112,0.7291666666666714,1.676190476190474,0.027111524121179422,0.9973358985930891,41.666666666666664,0.9999999999760001,0.7009523809523885,3.7963780070853553e-26,0.9914241838406517,0
196,166.5388888888889,0.51111111111112,1.3277777777777828,0.55694444444444,0.917705735660871,0.04142063923962084,1.5237170094792263,86.11111111111111,2.066666666617067,2.3840399002494044,0.9989375472068787,0.8914749419298993,1
197,167.86666666666667,1.3277777777777828,0.5666666666666629,0.55694444444444,2.3840399002494044,0.029491519770859658,1.084887416881476,47.22222222222222,1.1333333333061335,1.0174563591022456,3.975864212972085e-21,0.9885371635359085,0
198,168.43333333333334,0.5666666666666629,1.2416666666666742,0.55694444444444,1.0174563591022456,0.04370705259814475,1.6078259703508622,108.33333333333333,2.5999999999376002,2.2294264339152434,0.9997300505638123,0.8744289864292751,1
199,169.675,1.2416666666666742,0.5388888888888914,0.8944444444444457,1.3881987577639816,0.02666858935030079,0.9810419143169611,38.888888888888886,0.9333333333109334,0.6024844720496915,2.8378589767608073e-28,0.9896494951716817,0
200,170.2138888888889,0.5388888888888914,1.2583333333333258,0.55694444444444,0.9675810473815584,0.04500075559205106,1.655416671344768,102.77777777777777,2.466666666607467,2.259351620947635,0.999699592590332,0.8691661951427417,1
201,171.47222222222223,1.2583333333333258,1.0250000000000057,0.8944444444444457,1.4068322981366355,0.026203776428434935,0.9639431112015501,41.666666666666664,0.9999999999760001,1.1459627329192594,2.0401325056343458e-26,0.98781634233914,0
202,172.49722222222223,1.0250000000000057,1.0833333333333144,0.7958333333333343,1.2879581151832518,0.02672153226210815,0.98298949447828,41.666666666666664,0.9999999999760001,1.3612565445025924,1.4076970004185082e-19,0.9933209401147244,0
203,173.58055555555555,1.0833333333333144,0.9277777777777771,1.05416666666666,1.0276679841897118,0.02818274263264084,1.0367421920918498,47.22222222222222,1.1333333333061335,0.8801054018445372,2.254284465676509e-21,0.991082472543614,0
204,174.50833333333333,0.9277777777777771,0.8499999999999943,1.05416666666666,0.8801054018445372,0.029230548055226978,1.0752872018823283,44.44444444444444,1.0666666666410667,0.8063241106719364,2.938925070797624e-17,0.9914892937958805,0
205,175.35833333333332,0.8499999999999943,1.0277777777777999,0.9763888888888914,0.8705547652915994,0.028729736178816696,1.0568641261248297,41.666666666666664,0.9999999999760001,1.0526315789473883,1.7389072893406513e-15,0.9930881307917687,0
206,176.38611111111112,1.0277777777777999,0.5361111111110972,1.0263888888889028,1.0013531799729445,0.028195066317677805,1.0371955363389451,44.44444444444444,1.0666666666410667,0.52232746955343,2.104689780858896e-21,0.9906572716343685,0
207,176.92222222222222,0.5361111111110972,0.4777777777777885,0.9763888888888914,0.5490753911806386,0.039389759029444325,1.4490081981893062,55.55555555555556,1.3333333333013335,0.4893314366998675,0.99940025806427,0.9107399860033925,1
208,177.4,0.4777777777777885,0.4749999999999943,0.9763888888888914,0.4893314366998675,0.04297218118612658,1.5807926823372618,83.33333333333333,1.9999999999520002,0.4864864864864794,0.9964882135391235,0.8827677257486876,1
209,177.875,0.4749999999999943,1.4805555555555543,0.8888888888888857,0.5343749999999955,0.04148391631557395,1.5260447465376066,125.0,2.9999999999280003,1.6656250000000046,0.9993988275527954,0.904668778142653,1
210,179.35555555555555,1.4805555555555543,0.5500000000000114,0.9763888888888914,1.5163584637268797,0.02918794993078749,1.0737201694083758,80.55555555555556,1.9333333332869336,0.5633001422475209,1.9910353149437134e-17,0.9660218084023724,0
211,179.90555555555557,0.5500000000000114,1.4472222222222229,0.8888888888888857,0.618750000000015,0.04203450611625016,1.5462989738971311,88.88888888888889,2.1333333332821334,1.6281250000000065,0.9993492960929871,0.8998716273333507,1
212,181.3527777777778,1.4472222222222229,1.1611111111110972,0.8888888888888857,1.6281250000000065,0.027898248680672408,1.026276678240156,44.44444444444444,1.0666666666410667,1.306249999999989,1.4122531511168632e-26,0.9862887241771947,0
213,182.51388888888889,1.1611111111110972,1.1111111111111143,0.8888888888888857,1.306249999999989,0.027704246577436517,1.0191400354938869,44.44444444444444,1.0666666666410667,1.250000000000008,5.1477195363021475e-22,0.9908373996825219,0
214,183.625,1.1111111111111143,1.0583333333333371,0.9388888888888971,1.1834319526627148,0.027857566916707856,1.024780141806476,44.44444444444444,1.0666666666410667,1.1272189349112367,2.7645566052420493e-22,0.993802124637303,0
215,184.68333333333334,1.0583333333333371,1.1111111111111143,1.0430555555555685,1.014647137150457,0.02916332743753732,1.072814396043459,47.22222222222222,1.1333333333061335,1.0652463382157022,3.8959371398828925e-18,0.9884250730358197,0
216,185.79444444444445,1.1111111111111143,1.1555555555555372,1.0847222222222257,1.0243277848911647,0.027655570022219102,1.0173493993156628,47.22222222222222,1.1333333333061335,1.0653008962867916,3.342795505983333e-20,0.987980434070563,0
217,186.95,1.1555555555555372,1.1138888888889085,1.1111111111111143,1.0399999999999805,0.027681144239976176,1.0182901832175033,47.22222222222222,1.1333333333061335,1.0025000000000148,2.109117070207388e-22,0.9922498604934019,0
218,188.0638888888889,1.1138888888889085,1.0888888888888744,1.1125000000000114,1.001248439450694,0.02677735875796187,0.9850431513718841,44.44444444444444,1.0666666666410667,0.9787765293383041,3.3917939211529525e-23,0.9944681467085256,0
219,189.15277777777777,1.0888888888888744,1.0250000000000057,1.1125000000000114,0.9787765293383041,0.024502802526441787,0.9013703717478329,41.666666666666664,0.9999999999760001,0.9213483146067373,1.373557952156938e-25,0.9958775618596464,0
220,190.17777777777778,1.0250000000000057,1.1277777777777658,1.1111111111111143,0.9225000000000025,0.023598198551555892,0.8680932304801122,44.44444444444444,1.0666666666410667,1.0149999999999864,8.732681637989952e-22,0.988687562883389,0
221,191.30555555555554,1.1277777777777658,1.1138888888889085,1.1125000000000114,1.013732833957532,0.026039818441027172,0.9579116839025186,47.22222222222222,1.1333333333061335,1.001248439450694,4.304016579188064e-23,0.9938992483698199,0
222,192.41944444444445,1.1138888888889085,1.0138888888888857,1.1125000000000114,1.001248439450694,0.026170398702268557,0.9627152641660848,44.44444444444444,1.0666666666410667,0.9113607990012362,1.0757199182128649e-23,0.9915687380592313,0
223,193.43333333333334,1.0138888888888857,0.9138888888888914,1.1111111111111143,0.9124999999999945,0.024501763996935752,0.9013321679657996,41.666666666666664,0.9999999999760001,0.8224999999999999,1.8857510891168404e-24,0.998597778039484,0
224,194.34722222222223,0.9138888888888914,0.8777777777777658,1.0999999999999943,0.8308080808080874,0.023440440718679616,0.8622898846664091,41.666666666666664,0.9999999999760001,0.7979797979797912,1.4469935482772252e-22,0.9986910627918438,0
225,195.225,0.8777777777777658,0.9388888888888971,1.0999999999999943,0.7979797979797912,0.024365773173154533,0.8963295524791142,41.666666666666664,0.9999999999760001,0.8535353535353654,2.0900813592664903e-20,0.9983070316891447,0
226,196.1638888888889,0.9388888888888971,1.055555555555543,1.05694444444444,0.8883048620236645,0.024015510293715986,0.883444635273897,41.666666666666664,0.9999999999760001,0.9986859395532117,5.710104407868214e-22,0.9981331649573516,0
227,197.21944444444443,1.055555555555543,1.13611111111112,1.0402777777777743,1.0146862483310994,0.024217737698584412,0.8908838574162273,41.666666666666664,0.9999999999760001,1.0921228304405997,2.4424200560016837e-24,0.9976339384661471,0
228,198.35555555555555,1.13611111111112,1.1333333333333258,1.0402777777777743,1.0921228304405997,0.023680646422579017,0.8711261924473702,41.666666666666664,0.9999999999760001,1.0894526034712915,5.2565700197083456e-27,0.9975170078287845,0
229,199.48888888888888,1.1333333333333258,1.0472222222222172,1.0402777777777743,1.0894526034712915,0.02166154773907127,0.7968507813393975,38.888888888888886,0.9333333333109334,1.0066755674232295,3.408501035463531e-30,0.9978693897009893,0
230,200.5361111111111,1.0472222222222172,1.0194444444444457,1.05138888888888,0.9960369881109679,0.02586581695552489,0.9515107922697098,41.666666666666664,0.9999999999760001,0.9696169088507359,7.813001467610115e-24,0.996731762511075,0
231,201.55555555555554,1.0194444444444457,1.0722222222222229,1.0333333333333314,0.9865591397849492,0.022666895047137092,0.833833909119539,41.666666666666664,0.9999999999760001,1.037634408602153,4.434728504043515e-25,0.9974325174037074,0
232,202.62777777777777,1.0722222222222229,1.086111111111137,1.0333333333333314,1.037634408602153,0.02359506196688626,0.867977846760775,41.666666666666664,0.9999999999760001,1.0510752688172313,7.894061436919876e-26,0.9979278602852979,0
233,203.7138888888889,1.086111111111137,1.0916666666666401,1.05138888888888,1.0330250990753305,0.022635483406867933,0.8326783873445883,41.666666666666664,0.9999999999760001,1.0383091149273282,7.958156693617874e-27,0.9977652196876512,0
234,204.80555555555554,1.0916666666666401,0.9916666666666742,1.0638888888888829,1.0261096605743933,0.02708404335138247,0.9963249794681823,41.666666666666664,0.9999999999760001,0.9321148825065398,1.7490515522185806e-24,0.9981140548486629,0
235,205.79722222222222,0.9916666666666742,0.8916666666666799,1.0638888888888829,0.9321148825065398,0.025305287271034115,0.9308909121747728,38.888888888888886,0.9333333333109334,0.8381201044386595,3.612018169025149e-24,0.9974205351288883,0
236,206.6888888888889,0.8916666666666799,0.9305555555555429,1.0638888888888829,0.8381201044386595,0.025982948695021914,0.9558196495712356,38.888888888888886,0.9333333333109334,0.8746736292428129,3.225532637513711e-20,0.9955348439258933,0
237,207.61944444444444,0.9305555555555429,1.0999999999999943,1.05972222222222,0.8781127129750882,0.021852175842352457,0.8038633067080659,36.111111111111114,0.8666666666458669,1.0380078636959338,2.1860664914299535e-24,0.9976783143066059,0
238,208.71944444444443,1.0999999999999943,1.0444444444444514,1.05972222222222,1.0380078636959338,0.02303505868812359,0.8473773312477598,41.666666666666664,0.9999999999760001,0.9855832241153428,1.796314088757997e-27,0.9985234904886301,0
239,209.76388888888889,1.0444444444444514,1.0916666666666686,1.0458333333333343,0.9986719787516658,0.022556346127339925,0.8297672101847391,41.666666666666664,0.9999999999760001,1.04382470119522,8.813451704861348e-26,0.9982323815303641,0
240,210.85555555555555,1.0916666666666686,1.055555555555543,1.0583333333333371,1.0314960629921242,0.022652408425004357,0.8333009981611675,41.666666666666664,0.9999999999760001,0.997375328083974,2.1930288868755407e-27,0.9983544417787246,0
241,211.9111111111111,1.055555555555543,1.063888888888897,1.0638888888888829,0.99216710182767,0.021282913764205175,0.782922193117168,36.111111111111114,0.8666666666458669,1.0000000000000133,1.0037387748609293e-28,0.9970727889116411,0
242,212.975,1.063888888888897,0.9805555555555543,1.05972222222222,1.003931847968555,0.02337017528468865,0.8597050709378933,38.888888888888886,0.9333333333109334,0.9252948885976416,2.884761100548221e-27,0.9972008381542908,0
243,213.95555555555555,0.9805555555555543,1.0472222222222172,1.0499999999999972,0.9338624338624352,0.02592477982311785,0.9536798250497043,41.666666666666664,0.9999999999760001,0.9973544973544952,7.0964245813321015e-22,0.9981805078545432,0
244,215.00277777777777,1.0472222222222172,1.0305555555555657,1.0458333333333343,1.0013280212483342,0.022371441784246625,0.8229652414592458,41.666666666666664,0.9999999999760001,0.9853917662682691,1.4607670182671866e-26,0.9980628250024666,0
245,216.03333333333333,1.0305555555555657,1.0666666666666629,1.0458333333333343,0.9853917662682691,0.022584280392470516,0.8307948117792135,38.888888888888886,0.9333333333109334,1.0199203187250951,2.8942644092658054e-26,0.9972472761310593,0
246,217.1,1.0666666666666629,0.9583333333333428,1.05138888888888,1.0145310435931356,0.02632300452005923,0.968329085791771,38.888888888888886,0.9333333333109334,0.9114927344782201,3.972369485403461e-25,0.9964627819261802,0
247,218.05833333333334,0.9583333333333428,0.98888888888888,1.05138888888888,0.9114927344782201,0.02232240198126711,0.8211612426964764,38.888888888888886,0.9333333333109334,0.9405548216644645,6.474460015656e-25,0.9962643727603425,0
248,219.04722222222222,0.98888888888888,1.1222222222222342,1.0458333333333343,0.9455511288180518,0.022075712061487278,0.8120864038302513,38.888888888888886,0.9333333333109334,1.0730411686587091,5.9297283878118005e-25,0.9980765593886545,0
249,220.16944444444445,1.1222222222222342,1.0833333333333144,1.05138888888888,1.0673712021136268,0.027391296472933393,1.007627721678759,41.666666666666664,0.9999999999760001,1.0303830911492642,1.7782630715389147e-24,0.9983574928367442,0
250,221.25277777777777,1.0833333333333144,1.0611111111111313,1.05138888888888,1.0303830911492642,0.023109228753543553,0.8501057823858698,38.888888888888886,0.9333333333109334,1.009247027741111,2.5329768998822706e-27,0.9967219464538435,0
251,222.3138888888889,1.0611111111111313,0.9472222222222229,1.0541666666666742,1.0065876152832793,0.02604283391724058,0.9580226124753846,38.888888888888886,0.9333333333109334,0.8985507246376753,3.187994487023795e-25,0.9964105696942247,0
252,223.26111111111112,0.9472222222222229,0.8666666666666458,1.0388888888888914,0.9117647058823514,0.026443988893523233,0.9727796677024422,38.888888888888886,0.9333333333109334,0.8342245989304592,3.464674823811277e-22,0.9969388096613798,0
253,224.12777777777777,0.8666666666666458,0.9250000000000114,1.0388888888888914,0.8342245989304592,0.026618378021298624,0.979194819306511,38.888888888888886,0.9333333333109334,0.8903743315508109,1.3106021523761217e-19,0.9981775877867647,0
254,225.05277777777778,0.9250000000000114,1.0333333333333314,1.0097222222222229,0.916093535075664,0.027241061688407057,1.0021011218772944,41.666666666666664,0.9999999999760001,1.02338376891334,3.42189988656103e-19,0.99642833883301,0
255,226.0861111111111,1.0333333333333314,1.1500000000000057,1.0111111111111057,1.0219780219780255,0.023108705583789007,0.8500865368438288,41.666666666666664,0.9999999999760001,1.137362637362649,2.2809061104687918e-24,0.9975447376962756,0
256,227.23611111111111,1.1500000000000057,1.13611111111112,1.0111111111111057,1.137362637362649,0.02367466635003272,0.8709062069902651,41.666666666666664,0.9999999999760001,1.1236263736263883,2.6064726976760207e-27,0.9978301802232807,0
257,228.37222222222223,1.13611111111112,1.0333333333333314,1.0472222222222314,1.0848806366047734,0.022956202017131607,0.8444764766712216,41.666666666666664,0.9999999999760001,0.9867374005304935,1.1125813214058264e-28,0.9984010884975159,0
258,229.40555555555557,1.0333333333333314,0.9972222222222058,1.0472222222222314,0.9867374005304935,0.021488896399579606,0.7904995567440711,38.888888888888886,0.9333333333109334,0.9522546419097904,7.74302271140654e-28,0.9973430533994787,0
259,230.40277777777777,0.9972222222222058,1.00555555555556,1.0333333333333314,0.9650537634408461,0.02279727810152118,0.8386302348489318,38.888888888888886,0.9333333333109334,0.9731182795698985,8.409244923704342e-26,0.9972542516580838,0
260,231.40833333333333,1.00555555555556,0.9916666666666742,1.0194444444444457,0.9863760217983683,0.02662037306259869,0.9792682097326204,38.888888888888886,0.9333333333109334,0.9727520435967365,2.061469303552187e-23,0.9983310924380695,0
261,232.4,0.9916666666666742,1.0305555555555372,1.0013888888888829,0.9902912621359359,0.021956687380546742,0.8077079119907663,38.888888888888886,0.9333333333109334,1.0291262135922208,3.1791516644250585e-26,0.9982077153468762,0
262,233.43055555555554,1.0305555555555372,1.1138888888889085,1.0180555555555486,1.0122783083219535,0.023240380300756883,0.8549303782148331,41.666666666666664,0.9999999999760001,1.0941336971350881,1.3268623662523183e-24,0.9977417176043064,0
263,234.54444444444445,1.1138888888889085,1.11388888888888,1.0319444444444343,1.0794078061911467,0.02278861246892663,0.8383114572533996,41.666666666666664,0.9999999999760001,1.0794078061911192,2.088591483781254e-27,0.9985466102542346,0
264,235.65833333333333,1.11388888888888,1.0444444444444514,1.0333333333333314,1.0779569892473053,0.021539480237875604,0.7923603550376579,36.111111111111114,0.8666666666458669,1.0107526881720517,1.719337094348863e-30,0.9972956094293326,0
265,236.70277777777778,1.0444444444444514,1.0749999999999886,1.0388888888888914,1.005347593582892,0.02682039587149435,0.9866263326827509,38.888888888888886,0.9333333333109334,1.0347593582887566,1.652486260506526e-23,0.9981258910069681,0
266,237.77777777777777,1.0749999999999886,1.14166666666668,1.0388888888888914,1.0347593582887566,0.02681433897493805,0.9864035211453891,41.666666666666664,0.9999999999760001,1.0989304812834326,6.409689230247767e-23,0.99775290579439,0
267,238.91944444444445,1.14166666666668,1.0277777777777715,1.0388888888888914,1.0989304812834326,0.02746359877719687,1.0102874645715105,41.666666666666664,0.9999999999760001,0.9893048128342161,2.688044767135762e-25,0.9969530859612291,0
268,239.94722222222222,1.0277777777777715,1.0416666666666572,1.0374999999999943,0.9906291834002671,0.02287594256979052,0.841524018975493,41.666666666666664,0.9999999999760001,1.0040160642570244,1.459809661602991e-25,0.9981406727201318,0
269,240.98888888888888,1.0416666666666572,1.0444444444444514,1.0430555555555543,0.9986684420772225,0.02238581540391507,0.8234939954615657,41.666666666666664,0.9999999999760001,1.0013315579227775,2.7280104327465216e-26,0.9982714871675422,0
270,242.03333333333333,1.0444444444444514,1.0444444444444514,1.0444444444444514,1.0,0.026618844302667,0.9792119721285157,38.888888888888886,0.9333333333109334,1.0,8.645367262893161e-24,0.9970359333225973,0
271,243.07777777777778,1.0444444444444514,1.0583333333333371,1.0444444444444514,1.0,0.0217169070739731,0.7988872530542687,38.888888888888886,0.9333333333109334,1.0132978723404225,5.1927735903005184e-27,0.9947113363350124,0
272,244.13611111111112,1.0583333333333371,1.1388888888888857,1.0513888888888943,1.006605019815058,0.027140123786392405,0.9983879778741049,41.666666666666664,0.9999999999760001,1.0832232496697405,2.3044871193008928e-22,0.9985957014199767,0
273,245.275,1.1388888888888857,1.1444444444444457,1.0513888888888943,1.0832232496697405,0.023720225254537815,0.8725821559616478,41.666666666666664,0.9999999999760001,1.0885072655217922,4.777916339513853e-27,0.9982489889731417,0
274,246.41944444444445,1.1444444444444457,1.0722222222222229,1.0513888888888943,1.0885072655217922,0.02580867260325795,0.9494086561572974,38.888888888888886,0.9333333333109334,1.0198150594451738,1.2582515557177822e-26,0.9950108855537586,0
275,247.49166666666667,1.0722222222222229,0.9277777777777771,1.06527777777778,1.006518904823988,0.022419726684505963,0.8247414700538973,36.111111111111114,0.8666666666458669,0.8709256844850041,2.462809698848467e-29,0.9981776902348962,0
276,248.41944444444445,0.9277777777777771,0.86388888888888,1.0513888888888943,0.8824306472919368,0.021426562429150538,0.7882065131610958,38.888888888888886,0.9333333333109334,0.8216644649933824,1.7513339486845146e-25,0.9973164296226323,0
277,249.28333333333333,0.86388888888888,0.8777777777777658,1.0444444444444514,0.8271276595744541,0.026276529245824666,0.9666194268591374,38.888888888888886,0.9333333333109334,0.8404255319148766,1.0196316137643055e-19,0.996480115913909,0
278,250.1611111111111,0.8777777777777658,0.9472222222222229,1.0444444444444514,0.8404255319148766,0.022415713809846843,0.8245938507634359,36.111111111111114,0.8666666666458669,0.9069148936170158,9.266001213493076e-24,0.9979987048188902,0
279,251.10833333333332,0.9472222222222229,1.0527777777777771,1.0444444444444514,0.9069148936170158,0.021747861239755875,0.80002594598087,36.111111111111114,0.8666666666458669,1.007978723404248,2.0985844794464984e-25,0.9970842683451782,0
280,252.1611111111111,1.0527777777777771,0.9888888888889085,1.0486111111111143,1.0039735099337712,0.02285498686950789,0.8407531337947629,38.888888888888886,0.9333333333109334,0.9430463576159098,1.8093948123472808e-27,0.9978345862256748,0
281,253.15,0.9888888888889085,0.8916666666666515,1.0208333333333428,0.9687074829932074,0.021776943173137782,0.8010957661810412,36.111111111111114,0.8666666666458669,0.8734693877550791,8.868449022576457e-28,0.9969996763154566,0
282,254.04166666666666,0.8916666666666515,0.830555555555577,0.9680555555555657,0.9210903873744367,0.026083986029407695,0.9595364513353375,38.888888888888886,0.9333333333109334,0.8579626972740448,2.7825123921094258e-21,0.9959644792422923,0
283,254.87222222222223,0.830555555555577,0.8111111111111029,0.9375,0.8859259259259489,0.021729875683765765,0.799364321773949,36.111111111111114,0.8666666666458669,0.8651851851851764,6.617541930315564e-24,0.9946426069767154,0
284,255.68333333333334,0.8111111111111029,0.830555555555577,0.9097222222222143,0.8916030534351133,0.025677446434032084,0.9445813152516799,38.888888888888886,0.9333333333109334,0.9129770992366727,2.0401241416005196e-19,0.9949387521744127,0
285,256.5138888888889,0.830555555555577,0.8722222222222058,0.8847222222222086,0.9387755102041203,0.027206197203894403,1.0008185823256632,41.666666666666664,0.9999999999760001,0.9858712715855539,2.7030361970775604e-18,0.9969007677999674,0
286,257.3861111111111,0.8722222222222058,0.98888888888888,0.8749999999999858,0.9968253968253943,0.023847320269788044,0.8772575265042529,41.666666666666664,0.9999999999760001,1.1301587301587384,5.0856732153475886e-21,0.9981580013286864,0
287,258.375,0.98888888888888,1.0527777777778056,0.8847222222222086,1.1177394034536963,0.027802864899294333,1.0227678504484496,44.44444444444444,1.0666666666410667,1.1899529042386683,5.300912509290948e-19,0.9937045062973757,0
288,259.4277777777778,1.0527777777778056,0.8861111111110631,0.9194444444444372,1.1450151057402205,0.02110145463480335,0.7762469614676677,36.111111111111114,0.8666666666458669,0.9637462235649101,8.889676592330838e-30,0.9940902401353973,0
289,260.31388888888887,0.8861111111110631,0.8916666666667084,0.8888888888888573,0.9968749999999814,0.026115749643777646,0.9607049209772,38.888888888888886,0.9333333333109334,1.0031250000000826,1.480642189308374e-21,0.9980539002523711,0
290,261.2055555555556,0.8916666666667084,0.9499999999999886,0.8888888888888573,1.0031250000000826,0.027141376428619027,0.9984340580964901,38.888888888888886,0.9333333333109334,1.0687500000000252,3.423425582426793e-20,0.9975748688250564,0
291,262.15555555555557,0.9499999999999886,0.9472222222221944,0.8888888888888573,1.0687500000000252,0.023101153566301418,0.8498087251607412,38.888888888888886,0.9333333333109334,1.0656250000000067,8.0375805037804485e-25,0.9970501169319848,0
292,263.10277777777776,0.9472222222221944,0.9027777777777715,0.8888888888888857,1.0656249999999725,0.021882916379219068,0.8049941409917478,38.888888888888886,0.9333333333109334,1.0156249999999964,3.4213393578988956e-26,0.997268607008559,0
293,264.00555555555553,0.9027777777777715,0.9416666666666629,0.8972222222222399,1.0061919504643695,0.023986961620321778,0.8823944317993159,41.666666666666664,0.9999999999760001,1.0495356037151453,2.0724696217766958e-22,0.9982538142059365,0
294,264.9472222222222,0.9416666666666629,0.9333333333333371,0.9222222222222172,1.0210843373493992,0.023394372467969087,0.8605951986718616,41.666666666666664,0.9999999999760001,1.012048192771094,4.9534556279699436e-24,0.9980469754796903,0
295,265.88055555555553,0.9333333333333371,0.5555555555555998,0.9375,0.9955555555555596,0.02221143476917774,0.8170791562859574,38.888888888888886,0.9333333333109334,0.5925925925926397,1.2328131796775356e-27,0.9979892370999661,0
296,266.43611111111113,0.5555555555555998,1.1638888888888914,0.9375,0.5925925925926397,0.0386851042001238,1.4230864700615486,83.33333333333333,1.9999999999520002,1.241481481481484,0.9978606104850769,0.6714473913602743,1
297,267.6,1.1638888888888914,0.908333333333303,0.9375,1.241481481481484,0.02330898581118777,0.857454129298992,41.666666666666664,0.9999999999760001,0.9688888888888566,2.0280170208182963e-29,0.9968605874153752,0
298,268.5083333333333,0.908333333333303,0.9611111111111086,0.9208333333333201,0.9864253393664971,0.02453594261180509,0.902589476829035,41.666666666666664,0.9999999999760001,1.0437405731523501,6.11572785009072e-22,0.9984657404022355,0
299,269.46944444444443,0.9611111111111086,0.8944444444444457,0.9375,1.0251851851851825,0.025955585308252756,0.9548130485476269,41.666666666666664,0.9999999999760001,0.9540740740740754,6.331945410316426e-23,0.9982654923580694,0
300,270.3638888888889,0.8944444444444457,0.8027777777778056,0.9375,0.9540740740740754,0.025177360432589564,0.9261849418352227,41.666666666666664,0.9999999999760001,0.856296296296326,7.243128475896201e-22,0.9972095869793778,0
301,271.1666666666667,0.8027777777778056,0.8027777777777487,0.9208333333333201,0.8717948717949145,0.0248677354980428,0.9147949491168942,44.44444444444444,1.0666666666410667,0.8717948717948528,6.002666691586794e-19,0.9979622903166607,0
302,271.96944444444443,0.8027777777777487,0.8555555555555543,0.9055555555555372,0.8865030674846485,0.025861733786388542,0.9513605870971231,44.44444444444444,1.0666666666410667,0.9447852760736374,2.956691917738528e-17,0.9929778907453264,0
303,272.825,0.8555555555555543,0.8249999999999886,0.9013888888888744,0.9491525423728953,0.025971441000630396,0.9553963226983013,44.44444444444444,1.0666666666410667,0.9152542372881377,3.05804795051733e-19,0.9956237658957778,0
304,273.65,0.8249999999999886,0.8500000000000227,0.875,0.9428571428571298,0.025349489716396233,0.9325169618711381,41.666666666666664,0.9999999999760001,0.9714285714285974,1.0220538958658934e-19,0.996873009959375,0
305,274.5,0.8500000000000227,0.875,0.8527777777777885,0.9967426710097861,0.02753331909496676,1.012852225426062,44.44444444444444,1.0666666666410667,1.0260586319218112,1.772417931054726e-17,0.9933114270103629,0
306,275.375,0.875,0.9333333333333371,0.8652777777777771,1.0112359550561805,0.027882077077846474,1.025681782875218,50.0,1.1999999999712,1.0786516853932635,1.3156239615322329e-15,0.9901483296699373,0
307,276.30833333333334,0.9333333333333371,0.9361111111111313,0.8652777777777771,1.0786516853932635,0.026731955192920633,0.983372916783178,47.22222222222222,1.1333333333061335,1.0818619582664768,1.958462183192294e-18,0.9893315896583479,0
308,277.24444444444447,0.9361111111111313,0.8611111111110858,0.8652777777777771,1.0818619582664768,0.02755965383938375,1.0138209863806267,47.22222222222222,1.1333333333061335,0.9951845906901802,9.59772391468873e-19,0.9898051807415522,0
309,278.10555555555555,0.8611111111110858,0.8999999999999773,0.8583333333333201,1.0032362459546786,0.02681920061244036,0.9865823633818244,47.22222222222222,1.1333333333061335,1.0485436893203781,9.387462998860968e-17,0.9883670402979703,0
310,279.00555555555553,0.8999999999999773,0.9611111111111086,0.8583333333333201,1.0485436893203781,0.025977786348535876,0.9556297453279886,44.44444444444444,1.0666666666410667,1.119741100323639,1.1976544395929447e-18,0.9907675337250437,0
311,279.96666666666664,0.9611111111111086,1.0027777777777942,0.8680555555555429,1.1072000000000133,0.02780528746611182,1.022856968007574,50.0,1.1999999999712,1.1552000000000358,2.146927030499988e-16,0.9857207067850946,0
312,280.96944444444443,1.0027777777777942,1.025000000000034,0.8874999999999886,1.1298904538341488,0.02819988540712232,1.037372813384679,47.22222222222222,1.1333333333061335,1.154929577464842,3.745785660731042e-18,0.9898012746974405,0
313,281.99444444444447,1.025000000000034,1.0138888888888573,0.9166666666666572,1.118181818181867,0.027775387183295315,1.0217570436618346,50.0,1.1999999999712,1.106060606060583,1.3796964196957054e-18,0.9883562891695223,0
314,283.0083333333333,1.0138888888888573,0.9611111111111086,0.9347222222222342,1.084695393759239,0.026048596057155298,0.9582345809712898,47.22222222222222,1.1333333333061335,1.0282317979197464,4.163841814968327e-21,0.9897322726940302,0
315,283.96944444444443,0.9611111111111086,0.9166666666666856,0.94861111111112,1.0131771595900319,0.027356263290542835,1.006338976336229,47.22222222222222,1.1333333333061335,0.9663250366032321,5.542861804486943e-19,0.9894190726465295,0
316,284.8861111111111,0.9166666666666856,0.9722222222222285,0.94861111111112,0.9663250366032321,0.026625624507523735,0.9794613915884182,47.22222222222222,1.1333333333061335,1.0248901903367467,1.3703971518518076e-17,0.9881807864606658,0
317,285.85833333333335,0.9722222222222285,1.088888888888846,0.9611111111111086,1.0115606936416277,0.028150755143092742,1.0355654868837767,50.0,1.1999999999712,1.132947976878571,7.834969529411961e-16,0.9865015989957218,0
318,286.9472222222222,1.088888888888846,1.0166666666667084,0.9666666666666686,1.1264367816091487,0.027430240955599035,1.0090603497538526,44.44444444444444,1.0666666666410667,1.0517241379310756,2.0563100901231693e-22,0.9916256441845173,0
319,287.9638888888889,1.0166666666667084,1.0388888888888914,0.9875000000000114,1.0295358649789332,0.028330326700674778,1.0421712815245485,50.0,1.1999999999712,1.0520393811532958,5.980182971279899e-17,0.9829332987261485,0
320,289.0027777777778,1.0388888888888914,1.022222222222183,1.0083333333333258,1.0303030303030405,0.027236400743980278,1.001929662420519,50.0,1.1999999999712,1.0137741046831643,3.9995074421036797e-19,0.9865114671439932,0
321,290.025,1.022222222222183,1.025000000000034,1.0152777777777828,1.0068399452803942,0.027430685278081096,1.0090766947870544,47.22222222222222,1.1333333333061335,1.0095759233926414,2.178446576101344e-19,0.9886064263472691,0
322,291.05,1.025000000000034,0.9583333333333144,1.0194444444444457,1.0054495912806862,0.027362219969842,1.0065581012395324,44.44444444444444,1.0666666666410667,0.9400544959127868,6.4657364217903016e-21,0.9901145467401189,0
323,292.0083333333333,0.9583333333333144,1.055555555555543,1.0152777777777828,0.943912448700387,0.02715248070044695,0.9988425444977792,47.22222222222222,1.1333333333061335,1.0396716826265213,2.080300676183496e-17,0.9880964789748363,0
324,293.06388888888887,1.055555555555543,1.0972222222222285,1.0194444444444457,1.035422343324237,0.029354466523364823,1.0798457186304145,50.0,1.1999999999712,1.0762942779291602,1.1100868376091058e-16,0.9836021454510706,0
325,294.1611111111111,1.0972222222222285,1.0833333333333712,1.0236111111111086,1.0719131614654092,0.027183214167743646,0.9999731187172967,47.22222222222222,1.1333333333061335,1.0583446404342323,8.10960279287459e-21,0.9868125400586463,0
326,295.24444444444447,1.0833333333333712,0.952777777777726,1.0319444444444628,1.0497981157469898,0.02612460494361422,0.9610306757514556,44.44444444444444,1.0666666666410667,0.9232839838491932,8.548492777149305e-24,0.9923163965608044,0
327,296.1972222222222,0.952777777777726,0.9611111111111654,1.0319444444444628,0.9232839838491932,0.026175755697396375,0.9629123288359159,44.44444444444444,1.0666666666410667,0.9313593539704265,3.684474736460579e-20,0.9935322135292446,0
328,297.15833333333336,0.9611111111111654,1.0805555555555202,1.0236111111111086,0.9389416553596212,0.02607850090848233,0.9593346733761737,47.22222222222222,1.1333333333061335,1.0556309362279193,2.700047386729253e-18,0.9899814460143767,0
329,298.2388888888889,1.0805555555555202,1.1388888888889142,1.0319444444444628,1.047106325706542,0.02834244533691683,1.0426170827606636,50.0,1.1999999999712,1.1036339165545137,5.431344829820147e-18,0.9851190203327551,0
330,299.3777777777778,1.1388888888889142,1.0500000000000114,1.0402777777777885,1.0947930574098927,0.028345056049717144,1.0427131215368326,47.22222222222222,1.1333333333061335,1.009345794392524,6.476273382051745e-22,0.9903707192890736,0
331,300.4277777777778,1.0500000000000114,1.0638888888888687,1.0527777777777771,0.9973614775725708,0.028312995013032593,1.0415337107929477,50.0,1.1999999999712,1.010554089709744,3.957394591444051e-18,0.9866915363813489,0
332,301.4916666666667,1.0638888888888687,1.0666666666666629,1.0597222222222058,1.0039318479685417,0.025822361079452644,0.9499122061843998,47.22222222222222,1.1333333333061335,1.0065530799475875,2.092513302579139e-21,0.9895693939403953,0
333,302.55833333333334,1.0666666666666629,1.0249999999999773,1.0652777777777658,1.0013037809648055,0.026940091014171393,0.9910294884089088,44.44444444444444,1.0666666666410667,0.96219035202085,3.271565460745518e-22,0.9931976818548364,0
334,303.5833333333333,1.0249999999999773,1.0527777777778056,1.0652777777777658,0.96219035202085,0.026355021888134968,0.9695068901238948,47.22222222222222,1.1333333333061335,0.988265971316856,9.292599508002564e-21,0.9943970486814554,0
335,304.6361111111111,1.0527777777778056,1.0972222222222285,1.0583333333333371,0.9947506561680017,0.027133241717063904,0.9981348111850157,47.22222222222222,1.1333333333061335,1.0367454068241493,4.7813246297589897e-20,0.9910520492603236,0
336,305.73333333333335,1.0972222222222285,1.022222222222183,1.0583333333333371,1.0367454068241493,0.027822600216630196,1.023493842110195,50.0,1.1999999999712,0.9658792650918231,2.9859533440196515e-20,0.9873863797546516,0
337,306.75555555555553,1.022222222222183,0.9888888888889369,1.0583333333333371,0.9658792650918231,0.02771333029239234,1.0194741928425308,47.22222222222222,1.1333333333061335,0.9343832020997795,7.543228026932984e-20,0.9924956006647535,0
338,307.74444444444447,0.9888888888889369,0.9666666666666401,1.0583333333333371,0.9343832020997795,0.026966429794907112,0.9919983978451874,47.22222222222222,1.1333333333061335,0.9133858267716252,8.597368904994663e-20,0.9935142948513298,0
339,308.7111111111111,0.9666666666666401,0.9277777777778056,1.0513888888889085,0.9194187582562324,0.026833493602289003,0.9871081513017718,47.22222222222222,1.1333333333061335,0.8824306472919519,2.605867083725803e-19,0.9919606744832729,0
340,309.6388888888889,0.9277777777778056,1.0083333333333258,1.0374999999999943,0.8942436412316247,0.026178802259093657,0.963024400932431,44.44444444444444,1.0666666666410667,0.9718875502008012,5.39141899300132e-19,0.9930509135927563,0
341,310.64722222222224,1.0083333333333258,1.0944444444444343,1.0236111111110802,0.985074626865694,0.028019409261610204,1.0307337421928704,47.22222222222222,1.1333333333061335,1.0691994572591812,1.1400193276038477e-17,0.987541837431456,0
342,311.7416666666667,1.0944444444444343,1.0805555555555202,1.0236111111110802,1.0691994572591812,0.027473410601193217,1.0106484064447336,47.22222222222222,1.1333333333061335,1.0556309362279486,3.232132916800838e-21,0.9914228956216959,0
343,312.8222222222222,1.0805555555555202,0.9444444444444571,1.0236111111110802,1.0556309362279486,0.027334583170497643,1.005541442346246,44.44444444444444,1.0666666666410667,0.9226594301221569,4.268812556887309e-23,0.9936208343408621,0
344,313.76666666666665,0.9444444444444571,0.9694444444444343,1.0152777777777544,0.9302325581395687,0.025045257959270865,0.9213253648396693,44.44444444444444,1.0666666666410667,0.9548563611491229,2.8965136728834668e-21,0.996448621252396,0
345,314.7361111111111,0.9694444444444343,1.0194444444444457,0.9986111111111313,0.9707927677329327,0.02645045839111331,0.9730176573545033,44.44444444444444,1.0666666666410667,1.0208623087621502,3.6396328230896816e-20,0.9938960736204033,0
346,315.75555555555553,1.0194444444444457,1.0750000000000455,0.9986111111111313,1.0208623087621502,0.030709144266141603,1.1296794623128985,47.22222222222222,1.1333333333061335,1.0764951321279792,5.95368804538758e-17,0.9929587472788544,0
347,316.8305555555556,1.0750000000000455,0.9583333333333144,0.9986111111111313,1.0764951321279792,0.025758777521582586,0.947573194753665,44.44444444444444,1.0666666666410667,0.9596662030597669,2.1453137398510097e-24,0.9949863078321667,0
348,317.7888888888889,0.9583333333333144,0.9305555555555429,0.98888888888888,0.9691011235954952,0.025606679542597575,0.9419780546993031,41.666666666666664,0.9999999999760001,0.9410112359550519,1.4065998309620747e-22,0.9978361392918607,0
349,318.71944444444443,0.9305555555555429,0.9527777777777828,0.98888888888888,0.9410112359550519,0.02558468167532759,0.941168831926626,41.666666666666664,0.9999999999760001,0.9634831460674295,1.0083975882391047e-21,0.9985740832111905,0
350,319.6722222222222,0.9527777777777828,0.9638888888889028,0.98888888888888,0.9634831460674295,0.023274030395125347,0.8561682447012287,38.888888888888886,0.9333333333109334,0.9747191011236183,1.3085806133814345e-24,0.9969131190274436,0
351,320.6361111111111,0.9638888888889028,0.9305555555555429,0.9666666666666686,0.9971264367816216,0.023215512178099744,0.8540155690235193,41.666666666666664,0.9999999999760001,0.9626436781609046,1.0174299998499528e-24,0.9982039605716029,0
352,321.56666666666666,0.9305555555555429,0.9944444444444684,0.9611111111111086,0.9682080924855385,0.02849864595290762,1.0483631441408232,41.666666666666664,0.9999999999760001,1.0346820809248831,1.4879144946820632e-18,0.9943614714436886,0
353,322.56111111111113,0.9944444444444684,1.1388888888888573,0.9611111111111086,1.0346820809248831,0.02516740248453277,0.9258186245810184,44.44444444444444,1.0666666666410667,1.184971098265866,9.446140062446318e-21,0.9952350892901057,0
354,323.7,1.1388888888888573,1.0472222222222172,0.9666666666666686,1.178160919540195,0.025012056717213627,0.9201040100226713,44.44444444444444,1.0666666666410667,1.083333333333326,1.089678590063621e-25,0.9958139237420078,0
355,324.7472222222222,1.0472222222222172,1.0277777777777715,0.9791666666666856,1.069503546099265,0.025096986011289242,0.9232282546592024,41.666666666666664,0.9999999999760001,1.0496453900708953,1.8705479645361947e-24,0.9965820505595978,0
356,325.775,1.0277777777777715,1.036111111111154,0.9791666666666856,1.0496453900708953,0.028106396139663748,1.0339336779766932,41.666666666666664,0.9999999999760001,1.0581560283688176,4.392042285940311e-21,0.9936105328083655,0
357,326.81111111111113,1.036111111111154,0.9388888888888687,0.9791666666666856,1.0581560283688176,0.0280532962963805,1.0319803248682753,41.666666666666664,0.9999999999760001,0.9588652482269111,1.7914122389806363e-22,0.9950743070016378,0
358,327.75,0.9388888888888687,1.0388888888888914,0.9791666666666856,0.9588652482269111,0.028290031268358815,1.0406889568489452,41.666666666666664,0.9999999999760001,1.0609929078014004,1.603415274576491e-18,0.9948216146599982,0
359,328.7888888888889,1.0388888888888914,1.0972222222222285,1.01111111111112,1.027472527472521,0.025646202016833954,0.9434319450147638,44.44444444444444,1.0666666666410667,1.085164835164832,3.91369975220836e-22,0.9952483335071636,0
360,329.8861111111111,1.0972222222222285,1.0611111111110745,1.0319444444444628,1.0632570659488432,0.0251396081005654,0.9247961687136891,44.44444444444444,1.0666666666410667,1.0282637954239031,1.322617505721324e-24,0.9958837439147155,0
361,330.9472222222222,1.0611111111110745,0.955555555555577,1.0375000000000227,1.022757697456435,0.024372510084807026,0.8965773793370455,41.666666666666664,0.9999999999760001,0.9210174029451142,4.735169939212189e-26,0.9980257003500104,0
362,331.90277777777777,0.955555555555577,1.0138888888889142,1.0375000000000227,0.9210174029451142,0.02754322129144186,1.0132164917791964,41.666666666666664,0.9999999999760001,0.9772423025435103,1.0176538119949941e-19,0.9950575753150341,0
363,332.9166666666667,1.0138888888889142,1.0388888888888914,1.0375000000000227,0.9772423025435103,0.027247204265669813,1.0023270853010637,41.666666666666664,0.9999999999760001,1.0013386880856565,1.6138386647169769e-21,0.9953547201605057,0
364,333.9555555555556,1.0388888888888914,1.0527777777777487,1.0375000000000227,1.0013386880856565,0.024320119745838,0.8946501263519413,41.666666666666664,0.9999999999760001,1.0147255689423862,9.088613414394874e-25,0.9985312542110008,0
365,335.0083333333333,1.0527777777777487,1.1194444444444684,1.0375000000000227,1.0147255689423862,0.028219439922694163,1.0380921539968933,41.666666666666664,0.9999999999760001,1.0789825970548856,5.660551220271655e-21,0.9946025799326665,0
366,336.1277777777778,1.1194444444444684,1.099999999999966,1.0388888888888914,1.0775401069518922,0.024922791911388385,0.9168202774323331,41.666666666666664,0.9999999999760001,1.0588235294117292,7.760032736527662e-26,0.996709334791662,0
367,337.22777777777776,1.099999999999966,1.02222222222224,1.04583333333332,1.0517928286852396,0.028581174874627628,1.0513990876730144,41.666666666666664,0.9999999999760001,0.9774236387782498,9.065734042117704e-23,0.9936065352599914,0
368,338.25,1.02222222222224,0.9694444444444343,1.04583333333332,0.9774236387782498,0.023514645413095003,0.8650196096812702,38.888888888888886,0.9333333333109334,0.9269588313413035,4.4455664668051205e-26,0.9969335041449925,0
369,339.21944444444443,0.9694444444444343,0.9777777777777601,1.04583333333332,0.9269588313413035,0.023198046489139184,0.8533730688632122,41.666666666666664,0.9999999999760001,0.9349269588313363,9.65027192650524e-24,0.9953767951849585,0
370,340.1972222222222,0.9777777777777601,0.9444444444444571,1.0305555555555657,0.9487870619945827,0.02501521553445923,0.9202202115988738,41.666666666666664,0.9999999999760001,0.9164420485175235,2.940284017795551e-23,0.9977576763111294,0
371,341.14166666666665,0.9444444444444571,0.9111111111111541,1.018055555555577,0.9276944065484239,0.024137350915717,0.8879267155024149,41.666666666666664,0.9999999999760001,0.8949522510232156,2.964113928020467e-23,0.9981869112793245,0
372,342.0527777777778,0.9111111111111541,0.9583333333333144,1.018055555555577,0.8949522510232156,0.024487686064787215,0.900814291248617,41.666666666666664,0.9999999999760001,0.9413369713505755,8.816294330620648e-22,0.9983407461185988,0
373,343.0111111111111,0.9583333333333144,1.1083333333333485,1.0,0.9583333333333144,0.027836648786852734,1.0240106387072516,44.44444444444444,1.0666666666410667,1.1083333333333485,3.7916172569307674e-18,0.9959668617429707,0
374,344.11944444444447,1.1083333333333485,1.0138888888888573,1.0,1.1083333333333485,0.02775684277033381,1.0210748611079443,41.666666666666664,0.9999999999760001,1.0138888888888573,5.525136026235464e-24,0.9946176013158041,0
375,345.1333333333333,1.0138888888888573,1.10277777777776,0.9958333333333087,1.0181311018131036,0.02337616420737679,0.8599253819600284,38.888888888888886,0.9333333333109334,1.1073919107392007,1.260866657351981e-24,0.9959897021175723,0
376,346.2361111111111,1.10277777777776,1.0750000000000455,0.9958333333333087,1.1073919107392007,0.029414290031067807,1.0820464112785027,44.44444444444444,1.0666666666410667,1.0794979079498632,2.3937215502865556e-21,0.9950900124566013,0
377,347.31111111111113,1.0750000000000455,1.0694444444444002,0.9958333333333087,1.0794979079498632,0.029275559112020427,1.0769429974979887,47.22222222222222,1.1333333333061335,1.073919107391893,1.8791779296054578e-19,0.991422968966823,0
378,348.38055555555553,1.0694444444444002,1.0333333333333599,0.9958333333333087,1.073919107391893,0.02551260233656174,0.938517291136196,41.666666666666664,0.9999999999760001,1.0376569037657426,1.4159874768937356e-24,0.9957736080882031,0
379,349.4138888888889,1.0333333333333599,0.908333333333303,1.0236111111111086,1.0094979647218738,0.02460806914935526,0.9052427538937431,41.666666666666664,0.9999999999760001,0.8873812754409495,2.0839695985821147e-25,0.9981326806880743,0
380,350.3222222222222,0.908333333333303,0.9333333333333371,1.0236111111111086,0.8873812754409495,0.02382036358917857,0.8762658867440325,38.888888888888886,0.9333333333109334,0.9118046132971566,7.956867608617082e-23,0.9967364102897518,0
381,351.25555555555553,0.9333333333333371,1.0027777777777942,1.0236111111111086,0.9118046132971566,0.02793144004697847,1.0274976697636289,41.666666666666664,0.9999999999760001,0.979647218453207,5.308521019962787e-19,0.9955774392433917,0
382,352.2583333333333,1.0027777777777942,0.9861111111111427,1.0236111111111086,0.979647218453207,0.024798871228937445,0.9122616792275967,41.666666666666664,0.9999999999760001,0.9633649932157727,8.48462186509718e-24,0.9971066012068579,0
383,353.24444444444447,0.9861111111111427,1.10277777777776,1.0236111111111086,0.9633649932157727,0.028363198249447334,1.0433805081060823,41.666666666666664,0.9999999999760001,1.0773405698778686,6.605049598945114e-19,0.9933297497797603,0
384,354.34722222222223,1.10277777777776,1.0833333333333144,1.0236111111111086,1.0773405698778686,0.024721150478595393,0.9094026111045631,41.666666666666664,0.9999999999760001,1.0583446404341768,9.034855994970523e-26,0.9971630954426175,0
385,355.43055555555554,1.0833333333333144,0.9861111111111427,1.05138888888888,1.0303830911492642,0.027625391032679976,1.0162392223475178,41.666666666666664,0.9999999999760001,0.9379128137384791,1.6746972703817478e-23,0.9952695269664014,0
386,356.4166666666667,0.9861111111111427,1.022222222222183,1.018055555555577,0.9686221009549901,0.023446163134551605,0.8625003918570157,41.666666666666664,0.9999999999760001,1.0040927694405952,5.914369857632826e-24,0.9965749198508882,0
387,357.43888888888887,1.022222222222183,1.0305555555555657,1.0124999999999886,1.0096021947873526,0.023487026877562434,0.8640036226482254,38.888888888888886,0.9333333333109334,1.0178326474622985,6.867485309779081e-26,0.997968461318742,0
388,358.46944444444443,1.0305555555555657,1.1083333333333485,1.0124999999999886,1.0178326474622985,0.028047202224049397,1.031756145767268,41.666666666666664,0.9999999999760001,1.094650205761344,2.94496945272449e-20,0.992476234459893,0
389,359.5777777777778,1.1083333333333485,1.033333333333303,1.0124999999999886,1.094650205761344,0.024564476702458298,0.9036391438567888,41.666666666666664,0.9999999999760001,1.0205761316872244,1.8948132335361557e-26,0.9963013350236466,0
390,360.6111111111111,1.033333333333303,1.01111111111112,1.0263888888888744,1.0067658998646667,0.02445122707191803,0.8994730954437459,41.666666666666664,0.9999999999760001,0.9851150202977221,8.855954667618041e-25,0.997560913898865,0
391,361.6222222222222,1.01111111111112,0.98888888888888,1.0263888888888744,0.9851150202977221,0.027853122151560186,1.0246166348113408,41.666666666666664,0.9999999999760001,0.9634641407307222,1.7117862600383103e-21,0.9959171815609122,0
392,362.6111111111111,0.98888888888888,0.922222222222274,1.0263888888888744,0.9634641407307222,0.023704264466394693,0.8719950157140607,38.888888888888886,0.9333333333109334,0.8985115020298331,1.4150418052316986e-25,0.9985801350262087,0
393,363.53333333333336,0.922222222222274,1.0055555555555316,1.0263888888888744,0.8985115020298331,0.02360911299410321,0.8684947337418588,38.888888888888886,0.9333333333109334,0.9797023004059445,3.973237419753669e-23,0.9981077459406087,0
394,364.5388888888889,1.0055555555555316,1.1055555555555543,1.0166666666666515,0.9890710382513572,0.02453373096755187,0.9025081183558338,41.666666666666664,0.9999999999760001,1.087431693989086,6.536108923474866e-23,0.9970062361269592,0
395,365.64444444444445,1.1055555555555543,1.055555555555543,1.0166666666666515,1.087431693989086,0.028051233948581857,1.0319044584770767,41.666666666666664,0.9999999999760001,1.0382513661202217,2.8517785573951847e-23,0.9946555293109185,0
396,366.7,1.055555555555543,1.0305555555555657,1.0263888888888744,1.0284167794316668,0.028111702646199797,1.0341288853520096,41.666666666666664,0.9999999999760001,1.0040595399188332,5.76295177763078e-22,0.994172473534056,0
397,367.73055555555555,1.0305555555555657,0.9416666666666629,1.0305555555555657,1.0,0.023983515533928478,0.8822676626197474,38.888888888888886,0.9333333333109334,0.9137466307277502,2.5383853733892966e-26,0.9978927458664069,0
398,368.6722222222222,0.9416666666666629,0.9916666666666742,1.0208333333333428,0.9224489795918245,0.028355286311646327,1.0430894562433721,41.666666666666664,0.9999999999760001,0.9714285714285699,5.388376002322891e-19,0.9954486280140058,0
399,369.6638888888889,0.9916666666666742,1.0749999999999886,1.0083333333333258,0.9834710743801802,0.023194195642995866,0.853231410021698,38.888888888888886,0.9333333333109334,1.0661157024793355,1.3244098963055993e-24,0.9970727485976463,0
400,370.7388888888889,1.0749999999999886,1.025000000000034,1.0083333333333258,1.0661157024793355,0.024949180870870075,0.9177910327650091,41.666666666666664,0.9999999999760001,1.0165289256198762,3.634212671985929e-25,0.9954328871067439,0
401,371.7638888888889,1.025000000000034,1.033333333333303,1.0152777777777828,1.0095759233926414,0.028609883487413126,1.052455174745132,41.666666666666664,0.9999999999760001,1.0177838577291032,1.1382577146575059e-20,0.9938639477061695,0
402,372.7972222222222,1.033333333333303,1.0055555555555884,1.0277777777777999,1.0054054054053543,0.027207235574123717,1.0008567802484765,41.666666666666664,0.9999999999760001,0.9783783783783893,4.288024222937572e-22,0.9932872017988268,0
403,373.8027777777778,1.0055555555555884,0.9305555555555429,1.0277777777777999,0.9783783783783893,0.023099078597652745,0.8497323944936593,38.888888888888886,0.9333333333109334,0.9054054054053736,3.767366106551897e-26,0.9965998489596908,0
404,374.73333333333335,0.9305555555555429,0.9666666666666401,1.0277777777777999,0.9054054054053736,0.028362723187837946,1.0433630322904488,41.666666666666664,0.9999999999760001,0.9405405405404945,8.381668118586507e-19,0.9952622569546989,0
405,375.7,0.9666666666666401,1.01111111111112,1.0152777777778113,0.9521203830368782,0.023681131449798016,0.8711440348620991,38.888888888888886,0.9333333333109334,0.9958960328317132,2.6928800407505078e-24,0.9976310061359001,0
406,376.7111111111111,1.01111111111112,1.0055555555555316,1.0083333333333542,1.0027548209366273,0.028783988660135835,1.0588598806595244,44.44444444444444,1.0666666666410667,0.9972451790633164,5.233439257478027e-20,0.9957312122165568,0
407,377.71666666666664,1.0055555555555316,1.0444444444444798,1.00555555555556,0.9999999999999717,0.024828680259333838,0.9133582467235328,44.44444444444444,1.0666666666410667,1.038674033149202,2.741745524653444e-22,0.9948234722099916,0
408,378.7611111111111,1.0444444444444798,1.0277777777777715,1.0083333333333542,1.0358126721763221,0.027398881718603156,1.007906755707694,41.666666666666664,0.9999999999760001,1.0192837465564466,6.748556864533319e-22,0.9918764909152504,0
409,379.7888888888889,1.0277777777777715,0.9305555555555429,1.018055555555577,1.0095497953615005,0.023948546840208213,0.8809812895844933,38.888888888888886,0.9333333333109334,0.9140518417462166,3.4231407957316777e-26,0.9965671499616736,0
410,380.71944444444443,0.9305555555555429,0.9638888888889028,1.0083333333333542,0.922865013774073,0.023671001733922455,0.8707713988848634,38.888888888888886,0.9333333333109334,0.9559228650137681,1.0040744663954253e-23,0.9980058151128322,0
411,381.68333333333334,0.9638888888889028,0.9777777777777601,1.00555555555556,0.9585635359116118,0.023377939413513824,0.859990685437618,38.888888888888886,0.9333333333109334,0.9723756906077129,1.590289449345939e-24,0.9958772390498847,0
412,382.6611111111111,0.9777777777777601,0.9527777777777828,0.9916666666666458,0.9859943977591066,0.02530306292464065,0.9308090864353127,41.666666666666664,0.9999999999760001,0.9607843137255155,5.792836605510938e-23,0.9962211322364005,0
413,383.6138888888889,0.9527777777777828,1.0,0.9722222222222001,0.9800000000000275,0.024955955994481447,0.9180402653040882,44.44444444444444,1.0666666666410667,1.028571428571452,4.436682977933682e-21,0.9942177242428545,0
414,384.6138888888889,1.0,0.9944444444444684,0.98888888888888,1.011235955056189,0.02980559979342384,1.0964412963363563,47.22222222222222,1.1333333333061335,1.005617977528123,2.5984347004858916e-17,0.9888468134511348,0
415,385.60833333333335,0.9944444444444684,0.9833333333332916,0.9972222222222342,0.9972144846796778,0.026143434447504787,0.9617233457798473,44.44444444444444,1.0666666666410667,0.986072423398275,1.2562307750363477e-21,0.9949750212094883,0
416,386.59166666666664,0.9833333333332916,0.9916666666666742,0.98888888888888,0.9943820224718769,0.030597796032647905,1.1255833594891758,47.22222222222222,1.1333333333061335,1.0028089887640617,1.4669281863508477e-16,0.9909061591418162,0
417,387.5833333333333,0.9916666666666742,0.9611111111111086,0.987499999999983,1.0042194092827255,0.02702253265081777,0.9940622210357687,47.22222222222222,1.1333333333061335,0.9732770745429116,1.3056569047827617e-19,0.9894627551919096,0
418,388.5444444444444,0.9611111111111086,1.0055555555555884,0.9805555555555259,0.9801699716714152,0.028679770211039526,1.0550260570753223,50.0,1.1999999999712,1.0254957507082798,3.9009231530047906e-16,0.987163640038238,0
419,389.55,1.0055555555555884,0.9305555555555429,0.9805555555555259,1.0254957507082798,0.028358000256587846,1.0431892925603894,47.22222222222222,1.1333333333061335,0.9490084985835853,3.423988776101668e-19,0.9892548571408326,0
420,390.48055555555555,0.9305555555555429,0.9666666666666401,0.9805555555555259,0.9490084985835853,0.02768306108735785,1.0183606971693313,47.22222222222222,1.1333333333061335,0.9858356940509942,3.039164471788025e-17,0.9889324784926987,0
421,391.4472222222222,0.9666666666666401,0.9916666666666742,0.9805555555555259,0.9858356940509942,0.02787393950762782,1.0253824308037478,50.0,1.1999999999712,1.0113314447592452,6.164367638682386e-17,0.9863490508128828,0
422,392.43888888888887,0.9916666666666742,1.0055555555555884,0.987499999999983,1.0042194092827255,0.026786217236828076,0.9853690230912572,47.22222222222222,1.1333333333061335,1.0182841068917527,2.047148197470802e-19,0.9895462902733877,0
423,393.44444444444446,1.0055555555555884,0.9277777777777487,0.9916666666666742,1.0140056022409216,0.02709189063609251,0.9966136529751686,47.22222222222222,1.1333333333061335,0.9355742296918403,1.3430384729778688e-20,0.99250479045172,0
424,394.3722222222222,0.9277777777777487,1.0055555555555884,0.987499999999983,0.9395218002812807,0.028706828423269413,1.0560214318203198,50.0,1.1999999999712,1.0182841068917527,6.078836978055946e-15,0.9856096648505377,0
425,395.3777777777778,1.0055555555555884,1.0472222222222172,0.987499999999983,1.0182841068917527,0.028033738969339746,1.0312608808321864,47.22222222222222,1.1333333333061335,1.0604781997187192,1.4024296383548624e-17,0.9841087131654831,0
426,396.425,1.0472222222222172,0.9916666666666742,0.9916666666666742,1.0560224089635724,0.02907031853878177,1.0693929316800797,47.22222222222222,1.1333333333061335,1.0,1.6212209576471543e-18,0.9841235851706319,0
427,397.4166666666667,0.9916666666666742,0.9111111111110972,0.9916666666666742,1.0,0.026839743657925862,0.9873380684700941,47.22222222222222,1.1333333333061335,0.9187675070027801,1.2278057674565678e-19,0.9863297643060077,0
428,398.3277777777778,0.9111111111110972,0.8611111111110858,0.9916666666666742,0.9187675070027801,0.026621513059832246,0.9793101461490403,47.22222222222222,1.1333333333061335,0.8683473389355422,7.217932530204029e-18,0.9872333081876166,0
429,399.18888888888887,0.8611111111110858,0.9083333333333599,0.9791666666666572,0.8794326241134579,0.027596285361002216,1.0151685289004382,47.22222222222222,1.1333333333061335,0.9276595744681212,1.1397944271214619e-15,0.9881019566509205,0
430,400.09722222222223,0.9083333333333599,0.8888888888888573,0.9791666666666572,0.9276595744681212,0.029392223759333053,1.0812346721504915,52.77777777777778,1.266666666636267,0.9078014184396929,1.9276149686858757e-13,0.9810519980813084,0
431,400.9861111111111,0.8888888888888573,0.9027777777778283,0.9597222222222115,0.9261939218523653,0.02901706584817824,1.0674339558660242,47.22222222222222,1.1333333333061335,0.9406657018813945,2.400248274062825e-15,0.9870802295627483,0
432,401.8888888888889,0.9027777777778283,0.8583333333332916,0.919444444444423,0.9818731117825552,0.028689323665453834,1.055377494456724,50.0,1.1999999999712,0.9335347432023934,5.284606794184058e-16,0.9878669134902909,0
433,402.7472222222222,0.8583333333332916,0.9055555555555657,0.9097222222222285,0.943511450381627,0.028420680920365225,1.0454950897503004,47.22222222222222,1.1333333333061335,0.9954198473282485,4.750085805786284e-15,0.9866207066337098,0
434,403.65277777777777,0.9055555555555657,1.0333333333333599,0.9069444444444628,0.998468606431844,0.026963506045704827,0.9918908435806285,47.22222222222222,1.1333333333061335,1.1393568147013844,1.6827655485499423e-16,0.98924951346793,0
435,404.68611111111113,1.0333333333333599,1.0527777777777487,0.9069444444444628,1.1393568147013844,0.02739362369792566,1.0077133319535085,47.22222222222222,1.1333333333061335,1.160796324655381,1.0273431213471047e-18,0.9855826789678063,0
436,405.7388888888889,1.0527777777777487,1.0777777777777828,0.9069444444444628,1.160796324655381,0.027582122755194963,1.0146475373425285,50.0,1.1999999999712,1.1883614088820642,1.7921540055209044e-18,0.9876209599431813,0
437,406.81666666666666,1.0777777777777828,1.0277777777777715,0.9069444444444628,1.1883614088820642,0.0271698282015648,0.9994806969505289,50.0,1.1999999999712,1.1332312404287603,6.434760769672178e-20,0.9875449601988311,0
438,407.84444444444443,1.0277777777777715,1.025000000000034,0.9069444444444628,1.1332312404287603,0.02839852907893819,1.0446802028196958,47.22222222222222,1.1333333333061335,1.130168453292511,2.2880502303125164e-18,0.9872960744254857,0
439,408.86944444444447,1.025000000000034,0.9611111111111086,0.966666666666697,1.0603448275862088,0.028012906069461253,1.030494513038633,50.0,1.1999999999712,0.9942528735631846,5.700341483480554e-19,0.9875326814203926,0
440,409.8305555555556,0.9611111111111086,0.9277777777777487,0.9930555555555713,0.9678321678321499,0.027315066768208544,1.0048235037852378,47.22222222222222,1.1333333333061335,0.9342657342656902,1.5025848530384208e-18,0.9881681537623634,0
441,410.7583333333333,0.9277777777777487,0.88611111111112,0.9930555555555713,0.9342657342656902,0.027024157561322464,0.9941219956751836,47.22222222222222,1.1333333333061335,0.892307692307687,7.990194140347824e-18,0.9865978805550152,0
442,411.64444444444445,0.88611111111112,0.9111111111110972,0.9930555555555713,0.892307692307687,0.028249613115665945,1.0392021177300803,50.0,1.1999999999712,0.9174825174824889,2.0886041004607604e-15,0.9895732368795034,0
443,412.55555555555554,0.9111111111110972,1.025000000000034,0.9930555555555713,0.9174825174824889,0.028898098729022017,1.063057581518482,52.77777777777778,1.266666666636267,1.03216783216785,1.3909747377353898e-13,0.9842955197900174,0
444,413.5805555555556,1.025000000000034,1.147222222222183,1.025000000000034,1.0,0.02956970971134332,1.0877637448298665,50.0,1.1999999999712,1.1192411924118486,1.8822740742896645e-15,0.9853830637164156,0
445,414.72777777777776,1.147222222222183,1.0722222222222513,1.025000000000034,1.1192411924118486,0.02717932930111113,0.9998302083837965,50.0,1.1999999999712,1.0460704607046005,3.667433533469699e-22,0.9902264689378739,0
446,415.8,1.0722222222222513,0.9555555555555202,1.025000000000034,1.0460704607046005,0.026066298509450744,0.9588857908069474,44.44444444444444,1.0666666666410667,0.9322493224931594,7.41403822023821e-24,0.9943309258117948,0
447,416.75555555555553,0.9555555555555202,0.9833333333333485,0.9930555555555713,0.9622377622377113,0.027249599657976978,1.0024152032072526,47.22222222222222,1.1333333333061335,0.9902097902097897,2.2385802801884764e-18,0.9906040487557606,0
448,417.7388888888889,0.9833333333333485,1.0972222222222285,0.9722222222222285,1.0114285714285804,0.027629580545052816,1.016393339507009,47.22222222222222,1.1333333333061335,1.1285714285714277,2.0816898433042174e-17,0.9886567691416517,0
449,418.8361111111111,1.0972222222222285,1.1055555555555543,0.9722222222222285,1.1285714285714277,0.026759009582444548,0.9843681509045104,47.22222222222222,1.1333333333061335,1.1371428571428484,1.6118083765606532e-21,0.9916295452043776,0
450,419.94166666666666,1.1055555555555543,1.0972222222222285,1.0041666666666913,1.1009681881050892,0.027651789274424375,1.0172103191414035,47.22222222222222,1.1333333333061335,1.092669432918375,1.0739052440435111e-20,0.987796609039173,0
451,421.0388888888889,1.0972222222222285,0.9972222222222058,1.0486111111111427,1.0463576158940142,0.02699373390012203,0.9930028181126753,47.22222222222222,1.1333333333061335,0.9509933774833994,1.0419401053903959e-22,0.9939837071250497,0
452,422.0361111111111,0.9972222222222058,0.98888888888888,1.0486111111111427,0.9509933774833994,0.02684005226570465,0.987349421045294,44.44444444444444,1.0666666666410667,0.9430463576158572,9.619963505562528e-21,0.9939611930493961,0
453,423.025,0.98888888888888,1.0472222222222172,1.0486111111111427,0.9430463576158572,0.02613378672295869,0.9613684405378345,44.44444444444444,1.0666666666410667,0.9986754966887068,8.35318809622585e-21,0.9953588524597858,0
454,424.0722222222222,1.0472222222222172,1.0777777777777828,1.0597222222222342,0.9882044560943484,0.02717023352795503,0.9994956074571392,47.22222222222222,1.1333333333061335,1.0170380078636891,1.5059459592858623e-20,0.9944400635533726,0
455,425.15,1.0777777777777828,1.0500000000000114,1.0597222222222342,1.0170380078636891,0.027075133909053667,0.9959972329854968,47.22222222222222,1.1333333333061335,0.990825688073394,5.016709051259897e-22,0.99633175726435,0
456,426.2,1.0500000000000114,0.9833333333333485,1.0486111111111143,1.001324503311266,0.02629266548898248,0.9672130214684918,44.44444444444444,1.0666666666410667,0.9377483443708725,7.858528839260955e-23,0.9947113111356181,0
457,427.18333333333334,0.9833333333333485,0.8416666666666401,1.0486111111111143,0.9377483443708725,0.028384992479379964,1.0441822397902492,41.666666666666664,0.9999999999760001,0.8026490066224888,1.1956726440922383e-19,0.9881900624682083,0
458,428.025,0.8416666666666401,0.8111111111111313,1.0486111111111143,0.8026490066224888,0.02407917682797303,0.8857866991088089,41.666666666666664,0.9999999999760001,0.7735099337748513,1.4759848958878234e-20,0.9981231145431334,0
459,428.8361111111111,0.8111111111111313,0.841666666666697,1.0222222222222115,0.7934782608695933,0.027441735860580328,1.0094832061501777,41.666666666666664,0.9999999999760001,0.8233695652174297,1.2043904566982753e-16,0.9950598302112028,0
460,429.6777777777778,0.841666666666697,0.8944444444443889,0.9930555555555429,0.8475524475524888,0.023304479482161376,0.8572883575891904,38.888888888888886,0.9333333333109334,0.9006993006992562,6.8347262238034e-22,0.9984588499944292,0
461,430.5722222222222,0.8944444444443889,0.875,0.9861111111111143,0.9070422535210675,0.02868822701227791,1.0553371525129895,44.44444444444444,1.0666666666410667,0.887323943661969,1.379918331574538e-17,0.9952213603697528,0
462,431.4472222222222,0.875,0.8694444444444684,0.9388888888888687,0.9319526627219136,0.02480185492028731,0.9123714385491398,41.666666666666664,0.9999999999760001,0.9260355029586254,2.3859814742764677e-21,0.997917714017483,0
463,432.31666666666666,0.8694444444444684,0.8555555555555543,0.8847222222221944,0.9827315541601835,0.02660428306703634,0.9786763164067119,38.888888888888886,0.9333333333109334,0.967032967032996,1.1875263367752688e-20,0.9961598661152224,0
464,433.1722222222222,0.8555555555555543,0.794444444444423,0.8722222222222342,0.980891719745208,0.021748018388498627,0.8000317269204388,38.888888888888886,0.9333333333109334,0.9108280254776698,8.845420416304946e-25,0.9970690225928384,0
465,433.96666666666664,0.794444444444423,0.7527777777777942,0.8625000000000114,0.9210950080514928,0.022214856585142776,0.8172050326433712,38.888888888888886,0.9333333333109334,0.872785829307576,3.9916955027583924e-23,0.9983017644225834,0
466,434.71944444444443,0.7527777777777942,0.76111111111112,0.8486111111111256,0.8870703764320828,0.027685528048779637,1.0184514478469915,41.666666666666664,0.9999999999760001,0.8968903436988495,2.368901278750838e-16,0.9961613313010297,0
467,435.48055555555555,0.76111111111112,0.7777777777777715,0.8416666666666686,0.9042904290429128,0.020997268852575756,0.7724143395806005,38.888888888888886,0.9333333333109334,0.9240924092409145,2.1561292674084704e-22,0.9941938449250136,0
468,436.2583333333333,0.7777777777777715,0.7972222222222172,0.8263888888889142,0.9411764705881989,0.02226058491037151,0.8188872139965593,36.111111111111114,0.8666666666458669,0.9647058823529056,1.0337725551220997e-22,0.9959743996146965,0
469,437.05555555555554,0.7972222222222172,0.7694444444444457,0.8194444444444571,0.9728813559321823,0.023951389763533296,0.8810858705544299,38.888888888888886,0.9333333333109334,0.9389830508474447,1.2237878668780622e-21,0.9971571320477499,0
470,437.825,0.7694444444444457,0.7750000000000341,0.7958333333333201,0.9668411867364924,0.022476169504228295,0.8268177992958571,36.111111111111114,0.8666666666458669,0.9738219895288549,1.7001560521582007e-22,0.9959018347423076,0
471,438.6,0.7750000000000341,0.7638888888888573,0.7861111111110972,0.9858657243816863,0.026953615714238842,0.9915270136986963,36.111111111111114,0.8666666666458669,0.9717314487632279,1.1607577381772871e-18,0.9929597950838465,0
472,439.3638888888889,0.7638888888888573,0.7305555555555543,0.7763888888889028,0.9838998211090652,0.026531667963748076,0.9760050667578272,38.888888888888886,0.9333333333109334,0.9409660107334341,4.460124362071117e-18,0.9920689435967059,0
473,440.09444444444443,0.7305555555555543,0.7138888888889028,0.7722222222222399,0.9460431654676026,0.021818982645309584,0.8026422478383409,36.111111111111114,0.8666666666458669,0.9244604316546731,3.6362845086572696e-22,0.9938549361971531,0
474,440.80833333333334,0.7138888888889028,0.6888888888888687,0.7666666666666515,0.9311594202898916,0.026031026058466848,0.9575882436295785,36.111111111111114,0.8666666666458669,0.8985507246376726,7.177406470453219e-18,0.9905617204034245,0
475,441.4972222222222,0.6888888888888687,0.7305555555555543,0.7624999999999886,0.9034608378870543,0.021947909700455757,0.8073850125690305,36.111111111111114,0.8666666666458669,0.9581056466302494,3.5973378020560096e-21,0.9971897043064825,0
476,442.22777777777776,0.7305555555555543,0.7861111111111541,0.7624999999999886,0.9581056466302494,0.02823005993017818,1.0384828260468968,41.666666666666664,0.9999999999760001,1.030965391621201,1.8262076929614814e-15,0.9967497769283997,0
477,443.0138888888889,0.7861111111111541,0.8333333333333144,0.7666666666666515,1.025362318840656,0.023423986795122052,0.8616846037326144,36.111111111111114,0.8666666666458669,1.0869565217391273,1.571518662667247e-21,0.9981460735192976,0
478,443.84722222222223,0.8333333333333144,0.9361111111111313,0.7666666666666515,1.0869565217391273,0.027029750269189568,0.9943277313727149,41.666666666666664,0.9999999999760001,1.2210144927536737,1.2761239564655679e-16,0.9949436650664923,0
479,444.78333333333336,0.9361111111111313,1.0,0.7666666666666515,1.2210144927536737,0.027788285202672482,1.0222315156128803,41.666666666666664,0.9999999999760001,1.3043478260869823,1.5259103330161658e-17,0.9949190239596829,0
480,445.78333333333336,1.0,0.5138888888888573,0.7694444444444457,1.299638989169673,0.0278036410249127,1.0227964013310027,38.888888888888886,0.9333333333109334,0.6678700361010409,4.0097039350471397e-23,0.9968718791872038,0
481,446.2972222222222,0.5138888888888573,1.13611111111112,0.7472222222222058,0.6877323420074078,0.03658732600094096,1.345916721286835,88.88888888888889,2.1333333332821334,1.5204460966543203,0.9994193315505981,0.6435767594691323,1
482,447.43333333333334,1.13611111111112,0.9444444444444571,0.7583333333333542,1.4981684981684686,0.02431913218238067,0.8946137974283539,41.666666666666664,0.9999999999760001,1.245421245421228,8.046686916855094e-26,0.9969221945001497,0
483,448.3777777777778,0.9444444444444571,0.9277777777777487,0.8097222222222342,1.1663807890222968,0.027512705966789876,1.0120939422465098,41.666666666666664,0.9999999999760001,1.1457975986277344,1.1450914543634156e-19,0.9944355356630443,0
484,449.30555555555554,0.9277777777777487,0.9055555555555657,0.8805555555555316,1.0536277602523616,0.0275174333008084,1.0122678439386554,44.44444444444444,1.0666666666410667,1.0283911671924686,1.0820272044623728e-19,0.9956398389047636,0
485,450.2111111111111,0.9055555555555657,0.9722222222222285,0.9166666666666572,0.9878787878788091,0.027845818698322453,1.024347966917012,41.666666666666664,0.9999999999760001,1.0606060606060785,6.640849458868526e-19,0.9966656128464076,0
486,451.18333333333334,0.9722222222222285,0.9833333333333485,0.93194444444444,1.043219076005973,0.023311052241368067,0.8575301458663946,38.888888888888886,0.9333333333109334,1.055141579731765,3.462595242497999e-25,0.9979182331955398,0
487,452.1666666666667,0.9833333333333485,0.5222222222221831,0.9402777777777942,1.0457902511078265,0.02246844865759355,0.8265337769929446,36.111111111111114,0.8666666666458669,0.5553914327916769,3.83443202833709e-29,0.997295458061209,0
488,452.68888888888887,0.5222222222221831,1.1166666666666742,0.9402777777777942,0.5553914327916769,0.03541241342809672,1.3026958945502616,86.11111111111111,2.066666666617067,1.1875923190546402,0.9956789612770081,0.6472346760698983,1
489,453.80555555555554,1.1166666666666742,0.9416666666666629,0.9583333333333428,1.1652173913043442,0.023296191815865987,0.8569834840204819,41.666666666666664,0.9999999999760001,0.9826086956521602,1.5554989862962254e-28,0.9980065432217998,0
490,454.7472222222222,0.9416666666666629,1.0,0.94305555555556,0.9985272459499177,0.02373502938415303,0.8731267468834524,41.666666666666664,0.9999999999760001,1.0603829160530143,4.7419555506207675e-23,0.9984611406906087,0
491,455.7472222222222,1.0,0.9611111111111086,0.9583333333333428,1.043478260869555,0.02431628064690182,0.8945088996481163,41.666666666666664,0.9999999999760001,1.002898550724625,1.7242947304300296e-24,0.9967632141258508,0
492,456.7083333333333,0.9611111111111086,0.8916666666667084,0.9527777777777828,1.0087463556851233,0.022568710252112878,0.8302220420649253,38.888888888888886,0.9333333333109334,0.9358600583090767,8.119022380375949e-26,0.9957357715185873,0
493,457.6,0.8916666666667084,0.9055555555555088,0.9513888888888857,0.9372262773723097,0.028780597687923352,1.05873513893333,41.666666666666664,0.9999999999760001,0.9518248175182022,4.78894147686044e-18,0.9947059607796807,0
494,458.50555555555553,0.9055555555555088,0.9472222222222513,0.9513888888888857,0.9518248175182022,0.022377880651013825,0.823202104313008,38.888888888888886,0.9333333333109334,0.9956204379562382,3.8486713129955684e-24,0.9968664281368458,0
495,459.4527777777778,0.9472222222222513,0.9750000000000227,0.9541666666666799,0.9927219796215596,0.02251612020290506,0.8282874424552059,38.888888888888886,0.9333333333109334,1.0218340611353809,3.500338785546364e-25,0.9983140638431032,0
496,460.4277777777778,0.9750000000000227,0.9611111111111086,0.9541666666666799,1.0218340611353809,0.024164552692157313,0.888927371460677,41.666666666666664,0.9999999999760001,1.0072780203784404,6.532365857365683e-24,0.9969172515494644,0
497,461.3888888888889,0.9611111111111086,0.8888888888888573,0.9541666666666799,1.0072780203784404,0.02782163157439772,1.0234582092307218,41.666666666666664,0.9999999999760001,0.9315866084424576,4.595838101564496e-21,0.9960147102814572,0
498,462.27777777777777,0.8888888888888573,0.8472222222222285,0.9541666666666799,0.9315866084424576,0.023406650414207742,0.8610468603523366,38.888888888888886,0.9333333333109334,0.8879184861717555,9.500223482584057e-24,0.9987200600146486,0
499,463.125,0.8472222222222285,0.8472222222222285,0.9444444444444571,0.8970588235294065,0.026695835353162545,0.9820441972069138,38.888888888888886,0.9333333333109334,0.8970588235294065,1.7953212025381875e-19,0.995304750594227,0
500,463.97222222222223,0.8472222222222285,0.9222222222222172,0.92638888888888,0.9145427286356977,0.022395334071401478,0.823844153156446,36.111111111111114,0.8666666666458669,0.9955022488755663,1.3544429353726305e-23,0.9975404925991229,0
501,464.89444444444445,0.9222222222222172,0.9277777777777487,0.913888888888863,1.0091185410334578,0.023029849064622545,0.847185687852408,36.111111111111114,0.8666666666458669,1.0151975683890546,4.365874259045497e-25,0.9960780102188517,0
502,465.8222222222222,0.9277777777777487,0.9583333333333712,0.913888888888863,1.0151975683890546,0.027117560417143607,0.9975579523084283,38.888888888888886,0.9333333333109334,1.048632218845056,5.8141176241095515e-21,0.9961303346689994,0
503,466.78055555555557,0.9583333333333712,1.0,0.924999999999983,1.036036036036096,0.023500691779752936,0.8645063054721212,38.888888888888886,0.9333333333109334,1.081081081081101,2.0460265230285353e-24,0.9977244203141329,0
504,467.78055555555557,1.0,1.0249999999999773,0.9375,1.0666666666666667,0.02730699631271825,1.0045266206243173,41.666666666666664,0.9999999999760001,1.093333333333309,1.793498618302765e-21,0.9966079568145467,0
505,468.80555555555554,1.0249999999999773,0.9499999999999886,0.94305555555556,1.0868924889543154,0.027325417563468526,1.0052042724814434,38.888888888888886,0.9333333333109334,1.0073637702503515,1.2905956102615722e-23,0.9961235023559432,0
506,469.75555555555553,0.9499999999999886,0.9055555555555657,0.9388888888888687,1.0118343195266368,0.022784178993852683,0.8381483655796523,38.888888888888886,0.9333333333109334,0.9644970414201499,1.8864408000670364e-25,0.9964278992006959,0
507,470.6611111111111,0.9055555555555657,0.88611111111112,0.924999999999983,0.978978978979008,0.022353856245569848,0.8223183324570055,36.111111111111114,0.8666666666458669,0.9579579579579852,1.4973782993975266e-25,0.9968816938487017,0
508,471.5472222222222,0.88611111111112,0.9277777777778056,0.924999999999983,0.9579579579579852,0.026693535765692562,0.981959603617652,38.888888888888886,0.9333333333109334,1.0030030030030515,4.7564381255485076e-20,0.9940147652146745,0
509,472.475,0.9277777777778056,1.0416666666666288,0.9277777777777771,1.0000000000000306,0.028248566611617704,1.0391636205931924,41.666666666666664,0.9999999999760001,1.122754491017924,3.875200549106801e-18,0.9943829202364766,0
510,473.51666666666665,1.0416666666666288,0.9972222222222626,0.9388888888888971,1.1094674556212518,0.028335832734117244,1.0423738287803384,44.44444444444444,1.0666666666410667,1.0621301775148266,1.8852431668235175e-21,0.9971103617568062,0
511,474.5138888888889,0.9972222222222626,0.9249999999999545,0.9541666666666799,1.0451237263464617,0.022894385135894407,0.842202454948158,41.666666666666664,0.9999999999760001,0.9694323144104192,3.7943654873306684e-26,0.9989345615341172,0
512,475.43888888888887,0.9249999999999545,0.9055555555555657,0.9541666666666799,0.9694323144104192,0.023303053083558116,0.8572358854918499,38.888888888888886,0.9333333333109334,0.949053857350798,2.54551510441366e-24,0.9970478101297332,0
513,476.34444444444443,0.9055555555555657,0.9611111111111086,0.9388888888888971,0.9644970414201207,0.027996698534998563,1.0298982958774334,41.666666666666664,0.9999999999760001,1.0236686390532428,7.370489450577184e-19,0.9962504550456945,0
