beat_index,peak_time_s,rr_prev_s,rr_next_s,rr_baseline_s,prematurity_index,aa_ratio,morph_index,qrs_width_ms,width_index,pause_index,pvc_score,morphology_score,is_pvc_candidate
0,0.7472222222222222,,0.9388888888888889,0.8472222222221717,,0.02997370974697779,0.8618934898613821,130.55555555555554,1.7407407407175306,1.1081967213115416,0.8725185394287109,0.9889970986799892,1
1,1.6861111111111111,0.9388888888888889,0.877777777777778,0.8472222222221717,1.1081967213115416,0.0333997384132938,0.9604088831344479,130.55555555555554,1.7407407407175306,1.0360655737705537,0.9074017405509949,0.21280367093144203,1
2,2.563888888888889,0.877777777777778,0.8861111111111111,0.8472222222221717,1.0360655737705537,0.036770475997527474,1.0573343823271202,119.44444444444444,1.592592592571358,1.0459016393443246,0.9328743815422058,0.20696727367317214,1
3,3.45,0.8861111111111111,0.8666666666666663,0.8472222222221717,1.0459016393443246,0.035527287496199704,1.021586519115995,116.66666666666667,1.5555555555348148,1.0229508196721917,0.9252045154571533,0.21074260818778462,1
4,4.316666666666666,0.8666666666666663,0.7305555555555561,0.8472222222221717,1.0229508196721917,0.041238261216677334,1.1858054667204172,102.77777777777777,1.3703703703520986,0.8622950819672651,0.8678081631660461,0.23916221240412094,1
5,5.0472222222222225,0.7305555555555561,0.9333333333333327,0.877777777777778,0.8322784810126587,0.02997066443671411,0.8618059220189953,113.88888888888889,1.5185185184982715,1.0632911392405053,0.8295086026191711,0.9802616729348859,1
6,5.980555555555555,0.9333333333333327,0.719444444444445,0.8819444444444445,1.0582677165354322,0.03725386209070317,1.0712341408259716,133.33333333333334,1.7777777777540742,0.8157480314960636,0.736610472202301,0.20697036155399912,1
7,6.7,0.719444444444445,0.9638888888888886,0.877777777777778,0.8196202531645574,0.02836894502911032,0.8157485089843097,111.11111111111111,1.4814814814617283,1.0981012658227842,0.5149242281913757,0.9913937701641722,1
8,7.663888888888889,0.9638888888888886,0.7555555555555555,0.8819444444444445,1.0929133858267712,0.03934971457597934,1.1315003417072778,116.66666666666667,1.5555555555348148,0.8566929133858266,0.757172703742981,0.19896400519906648,1
9,8.419444444444444,0.7555555555555555,0.9777777777777779,0.877777777777778,0.8607594936708859,0.02825355982581697,0.8124306095189325,111.11111111111111,1.4814814814617283,1.1139240506329111,0.8174096941947937,0.9760334467472289,1
10,9.397222222222222,0.9777777777777779,0.7638888888888893,0.8819444444444445,1.1086614173228346,0.03410031845590111,0.980554049780393,127.77777777777777,1.7037037036809874,0.8661417322834649,0.7374178171157837,0.21394023546093455,1
11,10.161111111111111,0.7638888888888893,0.8638888888888889,0.8722222222222221,0.8757961783439496,0.026542251467066773,0.7632219681461081,136.11111111111111,1.8148148147906173,0.9904458598726116,0.8023186922073364,0.9689256491783824,1
12,11.025,0.8638888888888889,0.8222222222222211,0.8652777777777776,0.9983948635634031,0.029094260396716663,0.8366049394599987,122.22222222222223,1.6296296296079011,0.9502407704654885,0.38713639974594116,0.9862978236487948,0
13,11.847222222222221,0.8222222222222211,0.8111111111111118,0.843055555555555,0.9752883031301476,0.029837417505680943,0.8579744088906253,58.333333333333336,0.7777777777674074,0.9621087314662288,3.297367712207233e-08,0.9865823685545212,0
14,12.658333333333333,0.8111111111111118,0.9388888888888882,0.8166666666666664,0.9931972789115657,0.030341627116230643,0.872472947260643,58.333333333333336,0.7777777777674074,1.1496598639455777,1.0529080100241117e-05,0.9841092952344044,0
15,13.597222222222221,0.9388888888888882,0.8722222222222236,0.843055555555555,1.1136738056013178,0.039523672605987985,1.1365025017615125,91.66666666666667,1.222222222205926,1.0345963756177947,0.9502331614494324,0.25546210611532694,1
16,14.469444444444445,0.8722222222222236,0.8972222222222221,0.843055555555555,1.0345963756177947,0.036106417503759286,1.0382393921674964,130.55555555555554,1.7407407407175306,1.0642504118616152,0.9359631538391113,0.2099307895210878,1
17,15.366666666666667,0.8972222222222221,0.8666666666666671,0.8680555555555562,1.0335999999999992,0.03504760372819289,1.0077932209114262,152.77777777777777,2.0370370370098763,0.9983999999999997,0.877009391784668,0.21588790862993507,1
18,16.233333333333334,0.8666666666666671,0.7305555555555543,0.865277777777778,1.0016051364365974,0.03409492470182678,0.980398952478063,72.22222222222223,0.9629629629501235,0.8443017656500785,0.8809175491333008,0.2190377101652375,1
19,16.96388888888889,0.7305555555555543,0.93611111111111,0.865277777777778,0.8443017656500785,0.02914080254770208,0.8379432581825424,63.888888888888886,0.8518518518404937,1.081861958266451,6.832167855463922e-05,0.9904859534534667,0
20,17.9,0.93611111111111,0.7361111111111143,0.865277777777778,1.081861958266451,0.03524496963873354,1.013468474153401,116.66666666666667,1.5555555555348148,0.8507223113964721,0.7911065816879272,0.20010757670577023,1
21,18.636111111111113,0.7361111111111143,0.8388888888888886,0.865277777777778,0.8507223113964721,0.02964506653528688,0.8524433601632359,61.111111111111114,0.8148148148039506,0.9695024077046542,5.022282857680693e-05,0.9849581400483038,0
22,19.475,0.8388888888888886,0.9638888888888886,0.8527777777777779,0.9837133550488595,0.031609745875536534,0.9089376795958536,72.22222222222223,0.9629629629501235,1.1302931596091201,2.9179871489759535e-05,0.9937524840944101,0
23,20.43888888888889,0.9638888888888886,0.87222222222222,0.8694444444444454,1.1086261980830656,0.03362615891556352,0.9669196006440511,141.66666666666666,1.8888888888637034,1.0031948881789101,0.8759579062461853,0.22308861440480698,1
24,21.31111111111111,0.87222222222222,0.8694444444444471,0.8722222222222218,0.999999999999998,0.03711705567342991,1.0673002747341718,119.44444444444444,1.592592592571358,0.9968152866242074,0.8909221291542053,0.20134410192694063,1
25,22.180555555555557,0.8694444444444471,0.7416666666666636,0.8708333333333336,0.9984051036682644,0.036290472690471254,1.0435318957828776,127.77777777777777,1.7037037036809874,0.8516746411483216,0.7874358892440796,0.2052139796020877,1
26,22.92222222222222,0.7416666666666636,0.8250000000000028,0.8680555555555571,0.8543999999999949,0.02914451085707612,0.838049890552538,102.77777777777777,1.3703703703520986,0.9504000000000016,0.3455708622932434,0.9894050023144247,0
27,23.747222222222224,0.8250000000000028,0.9194444444444443,0.8527777777777779,0.9674267100977231,0.03111094303477902,0.894594612794901,116.66666666666667,1.5555555555348148,1.0781758957654721,0.6345541477203369,0.9888566593032676,1
28,24.666666666666668,0.9194444444444443,0.8361111111111086,0.8541666666666679,1.0764227642276405,0.03494686601211173,1.004896509679924,136.11111111111111,1.8148148147906173,0.9788617886178819,0.884074330329895,0.19892471429090341,1
29,25.502777777777776,0.8361111111111086,0.8916666666666693,0.8541666666666679,0.9788617886178819,0.032321670975052584,0.9294090731511232,66.66666666666667,0.8888888888770371,1.0439024390243918,0.9719528555870056,0.24622093115337856,1
30,26.394444444444446,0.8916666666666693,0.8805555555555529,0.8541666666666679,1.0439024390243918,0.03198299023294226,0.9196703144445622,72.22222222222223,0.9629629629501235,1.0308943089430849,0.929418683052063,0.23985184057652842,1
31,27.275,0.8805555555555529,0.7472222222222236,0.8708333333333336,1.0111642743221656,0.03718427627828122,1.06923320202929,125.0,1.6666666666444443,0.8580542264752804,0.7935386896133423,0.18706579208003787,1
32,28.022222222222222,0.7472222222222236,0.8555555555555543,0.8708333333333336,0.8580542264752804,0.031560845670180915,0.907531555061898,66.66666666666667,0.8888888888770371,0.9824561403508755,9.858540579443797e-06,0.9965114603738232,0
33,28.877777777777776,0.8555555555555543,0.9361111111111136,0.8625000000000007,0.9919484702093375,0.029367742575911744,0.8444689146512948,94.44444444444444,1.259259259242469,1.0853462157810003,0.040436260402202606,0.9886374926879086,0
34,29.81388888888889,0.9361111111111136,0.719444444444445,0.8625000000000007,1.0853462157810003,0.0349443601277528,1.0048244530198196,130.55555555555554,1.7407407407175306,0.8341384863123993,0.7656185030937195,0.2093732408255155,1
35,30.533333333333335,0.719444444444445,0.8361111111111086,0.8458333333333314,0.8505747126436807,0.03181512306236979,0.91484329694492,66.66666666666667,0.8888888888770371,0.988505747126436,1.219500154547859e-05,0.9977981420363637,0
36,31.369444444444444,0.8361111111111086,0.966666666666665,0.8458333333333314,0.988505747126436,0.03276636634571403,0.9421962806132639,69.44444444444444,0.9259259259135801,1.1428571428571435,3.750369842236978e-06,0.9984024602007162,0
37,32.33611111111111,0.966666666666665,0.7638888888888928,0.8680555555555536,1.1136000000000006,0.0411289312399066,1.1826616851858378,108.33333333333333,1.4444444444251852,0.8800000000000066,0.7863354086875916,0.22742127422495229,1
38,33.1,0.7638888888888928,0.8944444444444457,0.8458333333333314,0.9031198686371167,0.03939142107678462,1.1326996113950278,80.55555555555556,1.074074074059753,1.05747126436782,0.32762768864631653,0.9911740482676351,0
39,33.99444444444445,0.8944444444444457,0.8499999999999943,0.8680555555555536,1.0304000000000038,0.03895241653401156,1.1200760435874486,75.0,0.9999999999866667,0.9791999999999956,0.0033114529214799404,0.9874276295824529,0
40,34.84444444444444,0.8499999999999943,0.81388888888889,0.8527777777777743,0.9967426710097694,0.039453562470872464,1.1344864860751172,75.0,0.9999999999866667,0.954397394136813,0.002069110982120037,0.9923844352568276,0
41,35.65833333333333,0.81388888888889,0.8222222222222229,0.8430555555555515,0.9654036243822136,0.036753611567353656,1.0568494459378732,69.44444444444444,0.9259259259135801,0.9752883031301538,0.0002238594606751576,0.9921502766313739,0
42,36.480555555555554,0.8222222222222229,0.8222222222222229,0.8430555555555515,0.9752883031301538,0.03659191753729533,1.0521999369837547,72.22222222222223,0.9629629629501235,0.9752883031301538,0.0002913456119131297,0.9926130501388817,0
43,37.30277777777778,0.8222222222222229,0.87777777777778,0.8291666666666657,0.9916247906197674,0.04578684132558395,1.3165998067294937,83.33333333333333,1.1111111110962961,1.0586264656616453,0.35175830125808716,0.9797619786289111,0
44,38.18055555555556,0.87777777777778,0.8916666666666657,0.8291666666666657,1.0586264656616453,0.04042865366736844,1.1625252160613435,80.55555555555556,1.074074074059753,1.0753768844221105,0.019186804071068764,0.9903170827395247,0
45,39.07222222222222,0.8916666666666657,0.875,0.8430555555555515,1.0576606260296582,0.043258701217214236,1.2439031829463463,77.77777777777777,1.0370370370232098,1.0378912685337778,0.026904312893748283,0.984792208971171,0
46,39.94722222222222,0.875,0.8472222222222214,0.8624999999999972,1.0144927536231918,0.043993677515061606,1.2650374132990287,77.77777777777777,1.0370370370232098,0.9822866344605499,0.037553515285253525,0.9852367930810273,0
47,40.794444444444444,0.8472222222222214,0.8444444444444414,0.8486111111111079,0.9983633387888736,0.03901658323070035,1.121921155807752,75.0,0.9999999999866667,0.9950900163666123,0.0006569636170752347,0.9962873787879944,0
48,41.638888888888886,0.8444444444444414,0.8222222222222229,0.8486111111111079,0.9950900163666123,0.03581606688662632,1.029890365343769,75.0,0.9999999999866667,0.9689034369885479,2.0283545381971635e-05,0.9987885299215973,0
49,42.46111111111111,0.8222222222222229,0.8222222222222229,0.8458333333333314,0.9720853858784922,0.027455915071076614,0.7894943488045872,66.66666666666667,0.8888888888770371,0.9720853858784922,9.783713039723807e-07,0.9828261354487728,0
50,43.28333333333333,0.8222222222222229,0.8500000000000014,0.8333333333333321,0.9866666666666688,0.040280038761503024,1.1582517970904174,72.22222222222223,0.9629629629501235,1.0200000000000031,0.0065573835745453835,0.9894959633624243,0
51,44.13333333333333,0.8500000000000014,0.87222222222222,0.8458333333333314,1.0049261083743881,0.035477001839823226,1.020140555962613,77.77777777777777,1.0370370370232098,1.0311986863710998,0.00015140675532165915,0.9971867091290105,0
52,45.00555555555555,0.87222222222222,0.8833333333333329,0.8486111111111114,1.027823240589195,0.030285687254496197,0.8708643975329095,63.888888888888886,0.8518518518404937,1.0409165302782315,5.909937872417004e-09,0.9941688986284081,0
53,45.888888888888886,0.8833333333333329,0.8638888888888943,0.8611111111111107,1.025806451612903,0.038895855139970924,1.1184496217093216,77.77777777777777,1.0370370370232098,1.0032258064516195,0.01669604331254959,0.9845007524978234,0
54,46.75277777777778,0.8638888888888943,0.8194444444444429,0.8569444444444478,1.008103727714751,0.026177781467696164,0.7527416398064042,122.22222222222223,1.6296296296079011,0.956239870340351,0.37934035062789917,0.9730993770429786,0
55,47.57222222222222,0.8194444444444429,0.81388888888889,0.8486111111111114,0.9656301145662826,0.03275978289398987,0.9420069735762048,63.888888888888886,0.8518518518404937,0.9590834697217685,4.492025595936866e-08,0.9982398301776355,0
56,48.38611111111111,0.81388888888889,0.9666666666666615,0.8458333333333314,0.9622331691297243,0.03078943189082519,0.8853495655774931,63.888888888888886,0.8518518518404937,1.1428571428571392,1.3484108194461442e-06,0.9950123617113773,0
57,49.352777777777774,0.9666666666666615,0.8666666666666671,0.8472222222222214,1.140983606557372,0.033588063976860635,0.9658241813602239,66.66666666666667,0.8888888888770371,1.0229508196721326,0.8835367560386658,0.21906483820513706,1
58,50.21944444444444,0.8666666666666671,0.875,0.8569444444444478,1.0113452188006449,0.0272696337302166,0.7841378321663328,69.44444444444444,0.9259259259135801,1.0210696920583429,0.5836352705955505,0.2801068749337891,1
59,51.09444444444444,0.875,0.8722222222222271,0.8652777777777807,1.0112359550561765,0.03438950689155712,0.988869658096452,150.0,1.9999999999733333,1.0080256821829878,0.8838257789611816,0.22496142790405127,1
60,51.96666666666667,0.8722222222222271,0.7388888888888872,0.8694444444444436,1.0031948881789203,0.02852891926152854,0.8203485651879212,63.888888888888886,0.8518518518404937,0.8498402555910531,0.42382341623306274,0.2659940674368763,0
61,52.705555555555556,0.7388888888888872,0.8333333333333357,0.8694444444444436,0.8498402555910531,0.03610494678077376,1.038197101554245,72.22222222222223,0.9629629629501235,0.9584664536741251,0.00545470742508769,0.9952340602807779,0
62,53.53888888888889,0.8333333333333357,0.8333333333333286,0.8652777777777807,0.963081861958266,0.03004885516086586,0.8640542948991903,61.111111111111114,0.8148148148039506,0.9630818619582577,6.148388020932316e-09,0.9935272986755941,0
63,54.37222222222222,0.8333333333333286,0.8222222222222229,0.848611111111115,0.9819967266775677,0.03558646021875331,1.0232880296989972,66.66666666666667,0.8888888888770371,0.9689034369885396,1.2326848263910506e-05,0.9934722698898926,0
64,55.19444444444444,0.8222222222222229,0.8361111111111157,0.8333333333333321,0.9866666666666688,0.027701708294541365,0.7965621285670731,122.22222222222223,1.6296296296079011,1.0033333333333403,0.559639573097229,0.9783491259267767,1
65,56.03055555555556,0.8361111111111157,1.0111111111111057,0.8347222222222257,1.0016638935108166,0.03477978627037562,1.000092134682445,69.44444444444444,0.9259259259135801,1.2113144758735326,0.0002570674696471542,0.9962277325643591,0
66,57.041666666666664,1.0111111111111057,0.7666666666666657,0.8513888888888914,1.1876019575856345,0.03712521574032091,1.0675349173122697,127.77777777777777,1.7037037036809874,0.9004893964110892,0.7661112546920776,0.20420303137457624,1
67,57.80833333333333,0.7666666666666657,0.8527777777777814,0.8347222222222257,0.918469217970045,0.029682841144543896,0.8535295683795532,122.22222222222223,1.6296296296079011,1.0216306156405992,0.6190671920776367,0.9911600009785595,1
68,58.66111111111111,0.8527777777777814,0.9305555555555571,0.8347222222222257,1.0216306156405992,0.03279395959668399,0.9429897240533945,66.66666666666667,0.8888888888770371,1.1148086522462535,1.0109994263984845e-06,0.9957640712548357,0
69,59.59166666666667,0.9305555555555571,0.7222222222222214,0.8347222222222257,1.1148086522462535,0.030511977147076392,0.877371359363217,136.11111111111111,1.8148148147906173,0.8652246256239555,0.64258873462677,0.24527585637687577,1
70,60.31388888888889,0.7222222222222214,0.8305555555555557,0.8333333333333321,0.8666666666666669,0.0322860014803366,0.9283833974659353,61.111111111111114,0.8148148148039506,0.9966666666666683,0.00018602061027195305,0.9876451680504674,0
71,61.144444444444446,0.8305555555555557,0.9888888888888872,0.8333333333333321,0.9966666666666683,0.029927547167872545,0.8605660857214914,63.888888888888886,0.8518518518404937,1.1866666666666663,1.181785137305269e-06,0.9933586600403892,0
72,62.13333333333333,0.9888888888888872,0.87777777777778,0.8347222222222221,1.1846921797004972,0.03410180582032169,0.9805968189178127,122.22222222222223,1.6296296296079011,1.0515806988352774,0.9248337149620056,0.20176030547638257,1
73,63.01111111111111,0.87777777777778,0.75,0.8444444444444485,1.0394736842105239,0.033616679755160445,0.9666470275555104,122.22222222222223,1.6296296296079011,0.8881578947368378,0.8455284833908081,0.2309256983167146,1
74,63.76111111111111,0.75,0.8638888888888872,0.8444444444444485,0.8881578947368378,0.034233053802097194,0.9843708522958852,75.0,0.9999999999866667,1.0230263157894666,0.00477968854829669,0.993975208283664,0
75,64.625,0.8638888888888872,0.8416666666666686,0.8583333333333343,1.006472491909382,0.041044677892438236,1.1802389816801653,77.77777777777777,1.0370370370232098,0.9805825242718458,0.02471291273832321,0.9867730906746068,0
76,65.46666666666667,0.8416666666666686,0.8222222222222229,0.847222222222225,0.9934426229508186,0.030545979932081406,0.8783491088403544,63.888888888888886,0.8518518518404937,0.9704918032786861,1.509207834260451e-07,0.9891475813090613,0
77,66.28888888888889,0.8222222222222229,0.8194444444444429,0.847222222222225,0.9704918032786861,0.030008792471750718,0.8629022929873094,61.111111111111114,0.8148148148039506,0.9672131147540933,2.3488340161748056e-07,0.9864119628643819,0
78,67.10833333333333,0.8194444444444429,0.9611111111111086,0.8361111111111121,0.9800664451827211,0.03344759933968449,0.9617851232202795,72.22222222222223,0.9629629629501235,1.1495016611295636,8.097543468466029e-05,0.9965621378987486,0
79,68.06944444444444,0.9611111111111086,0.875,0.8361111111111121,1.1495016611295636,0.03720903596530596,1.0699451663886494,141.66666666666666,1.8888888888637034,1.0465116279069755,0.9276432394981384,0.20031450696214814,1
80,68.94444444444444,0.875,0.8888888888888857,0.8527777777777779,1.0260586319218241,0.03379256575893562,0.9717046264610594,72.22222222222223,0.9629629629501235,1.0423452768729604,0.9596860408782959,0.24563850950916138,1
81,69.83333333333333,0.8888888888888857,0.74722222222222,0.8694444444444436,1.0223642172523935,0.033365547399451356,0.959425721140443,72.22222222222223,0.9629629629501235,0.8594249201277938,0.83702552318573,0.23998482310123365,1
82,70.58055555555555,0.74722222222222,0.9305555555555571,0.8527777777777779,0.8762214983713328,0.030467393878169623,0.8760893682599517,63.888888888888886,0.8518518518404937,1.0912052117263862,0.00043101783376187086,0.9871618596622878,0
83,71.5111111111111,0.9305555555555571,0.8333333333333428,0.8527777777777779,1.0912052117263862,0.03172052011641938,0.9121229909192506,127.77777777777777,1.7037037036809874,0.9771986970684149,0.8110796213150024,0.23585613032906283,1
84,72.34444444444445,0.8333333333333428,0.8472222222222143,0.8527777777777779,0.9771986970684149,0.030333400234436397,0.8722363834211925,130.55555555555554,1.7407407407175306,0.9934853420195346,0.8114688396453857,0.259883955632916,1
85,73.19166666666666,0.8472222222222143,0.75,0.8444444444444414,1.0032894736842048,0.0352751429987863,1.0143361085842488,108.33333333333333,1.4444444444251852,0.8881578947368453,0.882532000541687,0.20283525738371616,1
86,73.94166666666666,0.75,0.9722222222222285,0.8402777777777786,0.8925619834710735,0.031247161405084285,0.8985115696066108,66.66666666666667,0.8888888888770371,1.1570247933884361,0.000498379347845912,0.9929539016222949,0
87,74.91388888888889,0.9722222222222285,0.7611111111111057,0.8611111111111072,1.1290322580645287,0.032154505463518585,0.9246022318446335,66.66666666666667,0.8888888888770371,0.8838709677419333,0.6166235208511353,0.24223299748963056,1
88,75.675,0.7611111111111057,0.9666666666666686,0.8611111111111072,0.8838709677419333,0.029180929350562754,0.8390971036840341,127.77777777777777,1.7037037036809874,1.1225806451612976,0.8366649746894836,0.9831319504033043,1
89,76.64166666666667,0.9666666666666686,0.8333333333333286,0.8611111111111072,1.1225806451612976,0.03080578623415982,0.8858198344287652,66.66666666666667,0.8888888888770371,0.9677419354838699,0.5534260272979736,0.25910606818450554,1
90,77.475,0.8333333333333286,0.7194444444444485,0.8402777777777786,0.9917355371900761,0.03548185920829331,1.0202802295064475,111.11111111111111,1.4814814814617283,0.8561983471074421,0.8728355765342712,0.20073327860961598,1
91,78.19444444444444,0.7194444444444485,0.9305555555555571,0.8333333333333357,0.8633333333333358,0.030290062406173324,0.8709902049414519,63.888888888888886,0.8518518518404937,1.1166666666666654,0.0008495046058669686,0.9883096143351807,0
92,79.125,0.9305555555555571,0.8444444444444485,0.8402777777777786,1.1074380165289264,0.03297776945660542,0.9482751733012836,63.888888888888886,0.8518518518404937,1.0049586776859543,0.89422208070755,0.23662092795797363,1
93,79.96944444444445,0.8444444444444485,0.9027777777777715,0.8388888888888957,1.006622516556288,0.03202586946197624,0.9209033059116392,141.66666666666666,1.8888888888637034,1.0761589403973348,0.9288909435272217,0.2575076425238977,1
94,80.87222222222222,0.9027777777777715,0.87777777777778,0.8458333333333314,1.0673234811165795,0.0357761771655023,1.0287433371233918,133.33333333333334,1.7777777777540742,1.037766830870284,0.9188566207885742,0.21936908793565713,1
95,81.75,0.87777777777778,0.7388888888888943,0.8611111111111143,1.0193548387096762,0.032833123834784796,0.944115891022362,72.22222222222223,0.9629629629501235,0.8580645161290353,0.8483228087425232,0.24273065821624812,1
96,82.4888888888889,0.7388888888888943,0.9416666666666629,0.8611111111111143,0.8580645161290353,0.03213919887223835,0.9241620910850223,66.66666666666667,0.8888888888770371,1.0935483870967657,0.00022190013260114938,0.9955691922615422,0
97,83.43055555555556,0.9416666666666629,0.8222222222222229,0.8611111111111143,1.0935483870967657,0.039656753782923736,1.1403292486337637,105.55555555555556,1.407407407388642,0.9548387096774166,0.8675388693809509,0.21866490594871085,1
98,84.25277777777778,0.8222222222222229,0.7333333333333343,0.8611111111111143,0.9548387096774166,0.03191517264727519,0.9177202209767206,66.66666666666667,0.8888888888770371,0.8516129032258044,0.8821349143981934,0.2500562949731493,1
99,84.98611111111111,0.7333333333333343,0.8611111111111143,0.8388888888888886,0.874172185430465,0.028480073645700477,0.818944010374858,63.888888888888886,0.8518518518404937,1.0264900662251697,5.4479078244185075e-05,0.9847582873189946,0
100,85.84722222222223,0.8611111111111143,0.9777777777777743,0.8527777777777814,1.0097719869706834,0.03341044448592787,0.9607167360623365,66.66666666666667,0.8888888888770371,1.1465798045602515,8.635233825771138e-07,0.9990483620818873,0
101,86.825,0.9777777777777743,0.86944444444444,0.8694444444444471,1.1246006389776284,0.03137137745268168,0.9020833998426497,72.22222222222223,0.9629629629501235,0.9999999999999918,0.6455755233764648,0.2554599336680755,1
102,87.69444444444444,0.86944444444444,0.7666666666666657,0.8652777777777771,1.004815409309787,0.031182248213999876,0.8966449919532584,72.22222222222223,0.9629629629501235,0.8860353130016047,0.7622971534729004,0.24698055748446823,1
103,88.46111111111111,0.7666666666666657,0.6694444444444514,0.8652777777777771,0.8860353130016047,0.03398070464691161,0.9771145568335456,72.22222222222223,0.9629629629501235,0.773675762439816,2.1679734345525503e-05,0.9992657732070691,0
104,89.13055555555556,0.6694444444444514,0.86944444444444,0.8416666666666686,0.7953795379538019,0.040564810231717964,1.1664403956438967,105.55555555555556,1.407407407388642,1.0330033003300254,0.9569305181503296,0.9661543967896034,1
105,90.0,0.86944444444444,0.8166666666666629,0.8416666666666686,1.0330033003300254,0.031102691958337855,0.8943573532388094,125.0,1.6666666666444443,0.9702970297029636,0.6699959635734558,0.9751143825686148,1
106,90.81666666666666,0.8166666666666629,0.9472222222222229,0.8416666666666686,0.9702970297029636,0.03234252133740317,0.9300086249491127,119.44444444444444,1.592592592571358,1.1254125412541236,0.7021640539169312,0.9934326469130378,1
107,91.76388888888889,0.9472222222222229,0.7722222222222257,0.8416666666666686,1.1254125412541236,0.03682736996052139,1.0589703672195745,108.33333333333333,1.4444444444251852,0.9174917491749196,0.8435083627700806,0.2143868442138107,1
108,92.53611111111111,0.7722222222222257,1.00555555555556,0.8388888888888886,0.9205298013245078,0.031402318483092766,0.9029731086209768,69.44444444444444,0.9259259259135801,1.1986754966887474,0.0003773593925870955,0.9958412647681885,0
109,93.54166666666667,1.00555555555556,0.75277777777778,0.8652777777777771,1.1621187800963142,0.03958948649068274,1.1383949788435865,102.77777777777777,1.3703703703520986,0.8699839486356372,0.7626540660858154,0.22389015379865485,1
110,94.29444444444445,0.75277777777778,0.9416666666666629,0.8430555555555515,0.8929159802306494,0.03235010626188929,0.9302267293176032,69.44444444444444,0.9259259259135801,1.116968698517299,0.00035970559110864997,0.9956710263012639,0
111,95.23611111111111,0.9416666666666629,0.7222222222222143,0.8430555555555515,1.116968698517299,0.03523194842411758,1.0130940493590623,136.11111111111111,1.8148148147906173,0.8566721581548548,0.8031676411628723,0.2108075546497875,1
112,95.95833333333333,0.7222222222222143,0.9444444444444429,0.7944444444444443,0.9090909090908993,0.03298439831081457,0.9484657858859898,69.44444444444444,0.9259259259135801,1.188811188811187,0.0009749564924277365,0.9980013765193432,0
113,96.90277777777777,0.9444444444444429,0.8444444444444485,0.8430555555555515,1.120263591433282,0.035036541965270666,1.0074751401156377,111.11111111111111,1.4814814814617283,1.0016474464579999,0.9068815112113953,0.21994642437724016,1
114,97.74722222222222,0.8444444444444485,0.8583333333333343,0.8569444444444443,0.9854132901134571,0.03762944238702612,1.0820339455566355,105.55555555555556,1.407407407388642,1.001620745542951,0.9190677404403687,0.21606966795239518,1
115,98.60555555555555,0.8583333333333343,0.88333333333334,0.8513888888888914,1.008156606851548,0.03224544950360066,0.9272173260972338,125.0,1.6666666666444443,1.0375203915171336,0.9072450995445251,0.23865834994931584,1
116,99.4888888888889,0.88333333333334,0.87222222222222,0.8708333333333371,1.0143540669856492,0.03314930244632001,0.9532076013650594,141.66666666666666,1.8888888888637034,1.0015948963317316,0.8637707233428955,0.22238761211931413,1
117,100.36111111111111,0.87222222222222,0.8472222222222143,0.8652777777777771,1.0080256821829838,0.0320410524762041,0.9213398932153105,69.44444444444444,0.9259259259135801,0.9791332263242292,0.9087252020835876,0.2284937575344595,1
118,101.20833333333333,0.8472222222222143,0.8111111111111171,0.8652777777777771,0.9791332263242292,0.034186076771523737,0.9830200286185335,63.888888888888886,0.8518518518404937,0.9373996789727203,0.9450507760047913,0.2117795009853488,1
119,102.01944444444445,0.8111111111111171,0.7083333333333286,0.8527777777777743,0.9511400651465907,0.035309512115236336,1.0153243919155626,116.66666666666667,1.5555555555348148,0.8306188925081411,0.8459022641181946,0.20031931115019747,1
120,102.72777777777777,0.7083333333333286,0.9638888888888886,0.8527777777777743,0.8306188925081411,0.030464314634611543,0.8760008246662887,58.333333333333336,0.7777777777674074,1.1302931596091248,0.007632090710103512,0.9827899692202764,0
121,103.69166666666666,0.9638888888888886,0.8944444444444457,0.8527777777777743,1.1302931596091248,0.0345533831649087,0.9935819174175963,147.22222222222223,1.9629629629367902,1.048859934853426,0.9199002385139465,0.23612981097319485,1
122,104.58611111111111,0.8944444444444457,0.88055555555556,0.8652777777777771,1.0337078651685416,0.034972406142173416,1.005630915664909,136.11111111111111,1.8148148147906173,1.017656500802574,0.8945093750953674,0.21771871107296065,1
123,105.46666666666667,0.88055555555556,0.8583333333333343,0.8652777777777771,1.017656500802574,0.036473432199163366,1.0487928931963149,63.888888888888886,0.8518518518404937,0.9919743178170163,0.9543869495391846,0.20118206229501157,1
124,106.325,0.8583333333333343,0.8416666666666686,0.8652777777777771,0.9919743178170163,0.03717810072661987,1.0690556241512712,122.22222222222223,1.6296296296079011,0.972712680577852,0.8781722784042358,0.20456100065581156,1
125,107.16666666666667,0.8416666666666686,0.7111111111111086,0.8652777777777771,0.972712680577852,0.04010952907585953,1.1533487941169782,111.11111111111111,1.4814814814617283,0.8218298555377184,0.8186476230621338,0.22330044497255347,1
126,107.87777777777778,0.7111111111111086,0.8305555555555486,0.8527777777777743,0.8338762214983718,0.030816343286652326,0.8861234022851375,61.111111111111114,0.8148148148039506,0.9739413680781717,5.671315193467308e-06,0.9942202464725596,0
127,108.70833333333333,0.8305555555555486,0.9472222222222229,0.8444444444444414,0.9835526315789427,0.029017410439425035,0.8343951203069838,58.333333333333336,0.7777777777674074,1.1217105263157943,2.922665998994489e-06,0.9797249121019858,0
128,109.65555555555555,0.9472222222222229,0.74722222222222,0.8500000000000014,1.1143790849673192,0.036836561980190696,1.0592346835814308,61.111111111111114,0.8148148148039506,0.8790849673202573,0.8321623802185059,0.214693325438638,1
129,110.40277777777777,0.74722222222222,0.9972222222222342,0.8500000000000014,0.8790849673202573,0.03090728176483966,0.8887383366055537,63.888888888888886,0.8518518518404937,1.1732026143790972,0.0007336724665947258,0.9910407147606525,0
130,111.4,0.9972222222222342,0.7777777777777715,0.8694444444444471,1.1469648562300423,0.03839219420988856,1.1039668606363688,127.77777777777777,1.7037037036809874,0.8945686900958366,0.7559990882873535,0.20154794535702275,1
131,112.17777777777778,0.7777777777777715,0.8416666666666686,0.8500000000000014,0.9150326797385532,0.02977908627489707,0.8562970953884723,102.77777777777777,1.3703703703520986,0.9901960784313731,0.6154570579528809,0.9811219381994815,1
132,113.01944444444445,0.8416666666666686,0.8111111111111029,0.8416666666666686,1.0,0.0306256124915352,0.8806389416689767,113.88888888888889,1.5185185184982715,0.9636963696369518,0.41434285044670105,0.9883319072270721,0
133,113.83055555555555,0.8111111111111029,0.8222222222222229,0.8361111111111086,0.9700996677740795,0.0288778897716552,0.8303832059905032,125.0,1.6666666666444443,0.9833887043189407,0.7903593182563782,0.9683654939670134,1
134,114.65277777777777,0.8222222222222229,0.9500000000000028,0.8263888888888857,0.9949579831932819,0.030309699746942365,0.8715548763254715,127.77777777777777,1.7037037036809874,1.149579831932781,0.7533250451087952,0.9871402490791104,1
135,115.60277777777777,0.9500000000000028,0.88611111111112,0.8263888888888857,1.149579831932781,0.03688510797518008,1.0606306228026148,125.0,1.6666666666444443,1.07226890756304,0.9369902014732361,0.2068993201868608,1
136,116.4888888888889,0.88611111111112,0.8777777777777658,0.8361111111111086,1.059800664451841,0.03847595027319947,1.1063752647449516,127.77777777777777,1.7037037036809874,1.0498338870431783,0.9278447031974792,0.199292595538277,1
137,117.36666666666666,0.8777777777777658,0.76111111111112,0.8597222222222172,1.0210016155088772,0.040103442386275355,1.1531737714664057,119.44444444444444,1.592592592571358,0.8852988691437957,0.8413766026496887,0.19826796277574493,1
138,118.12777777777778,0.76111111111112,0.9500000000000028,0.8319444444444457,0.914858096828056,0.03282973723123726,0.9440185092976773,63.888888888888886,0.8518518518404937,1.141903171953257,0.0002632315445225686,0.9925790442397322,0
139,119.07777777777778,0.9500000000000028,0.8388888888888886,0.8597222222222172,1.1050080775444362,0.03141780297458661,0.9034183648980615,141.66666666666666,1.8888888888637034,0.9757673667205223,0.7849581837654114,0.25330864876827386,1
140,119.91666666666667,0.8388888888888886,0.8249999999999886,0.8402777777777786,0.9983471074380152,0.03180410311634734,0.9145264185933395,133.33333333333334,1.7777777777540742,0.9818181818181674,0.8556780219078064,0.2375745548887614,1
141,120.74166666666666,0.8249999999999886,0.7138888888888886,0.8402777777777786,0.9818181818181674,0.03510744757971991,1.0095140297961047,61.111111111111114,0.8148148148039506,0.849586776859503,0.9467998743057251,0.22352799412706037,1
142,121.45555555555555,0.7138888888888886,0.9777777777777885,0.8319444444444386,0.8580968280467502,0.03251565296938844,0.9349870219429058,66.66666666666667,0.8888888888770371,1.1752921535893366,0.0011912079062312841,0.9975610702681855,0
143,122.43333333333334,0.9777777777777885,0.87222222222222,0.8583333333333272,1.1391585760518006,0.034818064981075675,1.0011928383267776,63.888888888888886,0.8518518518404937,1.0161812297734676,0.8459015488624573,0.22668194012602882,1
144,123.30555555555556,0.87222222222222,0.7666666666666657,0.8749999999999929,0.9968253968254024,0.03812549678801169,1.096297981020903,63.888888888888886,0.8518518518404937,0.8761904761904822,0.9238770008087158,0.2234854720321826,1
145,124.07222222222222,0.7666666666666657,0.8555555555555543,0.8555555555555543,0.8961038961038963,0.03616207226212859,1.0398397437530438,75.0,0.9999999999866667,1.0,0.0023941088002175093,0.9980093260996962,0
146,124.92777777777778,0.8555555555555543,0.9277777777777771,0.8472222222222214,1.00983606557377,0.032227432621171455,0.9266992509639116,66.66666666666667,0.8888888888770371,1.0950819672131151,3.1783856684342027e-06,0.9914146347631343,0
147,125.85555555555555,0.9277777777777771,0.7138888888888886,0.8472222222222214,1.0950819672131151,0.032493857761397335,0.9343603011253534,63.888888888888886,0.8518518518404937,0.8426229508196725,0.7906240820884705,0.22376187938026715,1
148,126.56944444444444,0.7138888888888886,0.9750000000000085,0.8472222222222214,0.8426229508196725,0.031389924020132125,0.9026167060593225,63.888888888888886,0.8518518518404937,1.1508196721311588,0.014547831378877163,0.9876723678312255,0
149,127.54444444444445,0.9750000000000085,0.75555555555556,0.8472222222222214,1.1508196721311588,0.03384579218021537,0.9732351512568518,69.44444444444444,0.9259259259135801,0.8918032786885306,0.775700032711029,0.22020019118663342,1
150,128.3,0.75555555555556,0.9777777777777601,0.8402777777777715,0.8991735537190203,0.029873666003813748,0.8590167338087502,116.66666666666667,1.5555555555348148,1.1636363636363514,0.7861863374710083,0.9908119747180026,1
151,129.27777777777777,0.9777777777777601,0.75,0.8638888888888872,1.1318327974276345,0.03446351994123296,0.9909979020215078,125.0,1.6666666666444443,0.868167202572349,0.7557836771011353,0.21493685681356578,1
152,130.02777777777777,0.75,0.8472222222222285,0.8638888888888872,0.868167202572349,0.03023446531323313,0.8693915115242914,66.66666666666667,0.8888888888770371,0.9807073954984016,3.3869441722345073e-06,0.9955545641771544,0
153,130.875,0.8472222222222285,0.8305555555555486,0.8513888888888914,0.9951060358890746,0.03550454101046679,1.0209324443239214,69.44444444444444,0.9259259259135801,0.9755301794453397,5.0270460633328184e-05,0.9908312748412071,0
154,131.70555555555555,0.8305555555555486,0.8277777777777828,0.8388888888888886,0.990066225165555,0.030749796519973355,0.8842098511946619,58.333333333333336,0.7777777777674074,0.9867549668874236,1.836977681080043e-08,0.9898468501735476,0
155,132.53333333333333,0.8277777777777828,0.8333333333333428,0.8388888888888886,0.9867549668874236,0.03076745391172386,0.8847175891799217,63.888888888888886,0.8518518518404937,0.9933774834437202,2.8109361949191225e-08,0.9947376488871791,0
156,133.36666666666667,0.8333333333333428,0.8499999999999943,0.8319444444444457,1.0016694490818128,0.031887145035386914,0.9169142874961208,63.888888888888886,0.8518518518404937,1.0217028380634308,6.068165703254635e-08,0.9953631667811139,0
157,134.21666666666667,0.8499999999999943,0.9055555555555657,0.8319444444444457,1.0217028380634308,0.0430681338742554,1.2384234223940855,80.55555555555556,1.074074074059753,1.0884808013355698,0.10439833998680115,0.9856837965794034,0
158,135.12222222222223,0.9055555555555657,0.9861111111110858,0.8402777777777857,1.077685950413225,0.032228726488401784,0.9267364560930724,80.55555555555556,1.074074074059753,1.1735537190082235,0.00010369093070039526,0.9947856600820976,0
159,136.10833333333332,0.9861111111110858,0.7194444444444628,0.8402777777777857,1.1735537190082235,0.0327884740140138,0.9428319862214264,125.0,1.6666666666444443,0.8561983471074518,0.6999895572662354,0.23528617255967682,1
160,136.82777777777778,0.7194444444444628,0.8305555555555486,0.8402777777777857,0.8561983471074518,0.03587023860041349,1.0314480720087742,72.22222222222223,0.9629629629501235,0.9884297520660982,0.0027980715967714787,0.9977741282201846,0
161,137.65833333333333,0.8305555555555486,0.8194444444444571,0.8319444444444457,0.9983305509181871,0.03398070179414428,0.977114474802272,69.44444444444444,0.9259259259135801,0.9849749582637867,4.197795817617589e-07,0.9991736457362659,0
162,138.4777777777778,0.8194444444444571,0.8444444444444343,0.8319444444444457,0.9849749582637867,0.03155635434522072,0.9074024070926703,66.66666666666667,0.8888888888770371,1.0150250417362134,1.775720761543198e-07,0.995394193839563,0
163,139.32222222222222,0.8444444444444343,0.8722222222222342,0.8319444444444457,1.0150250417362134,0.04052527590334749,1.1653035867358172,75.0,0.9999999999866667,1.0484140233723,0.010887718759477139,0.9891091374689434,0
164,140.19444444444446,0.8722222222222342,0.98888888888888,0.8388888888888886,1.039735099337763,0.03083253537129649,0.8865890053906557,72.22222222222223,0.9629629629501235,1.1788079470198574,2.1274181563057937e-06,0.9967267803616846,0
165,141.18333333333334,0.98888888888888,0.75,0.8472222222222143,1.1672131147540987,0.033173179348314805,0.9538941812566076,72.22222222222223,0.9629629629501235,0.8852459016393525,0.7099840641021729,0.23943213751944098,1
166,141.93333333333334,0.75,0.8722222222222058,0.8472222222222143,0.8852459016393525,0.034684011436421455,0.9973381310381022,72.22222222222223,0.9629629629501235,1.0295081967213018,0.00045812854659743607,0.9985821068359146,0
167,142.80555555555554,0.8722222222222058,0.8222222222222229,0.8583333333333201,1.0161812297734594,0.030181302831070244,0.8678628252966655,113.88888888888889,1.5185185184982715,0.9579288025890123,0.19370847940444946,0.9917865079592338,0
168,143.62777777777777,0.8222222222222229,0.8138888888888971,0.8374999999999915,0.9817578772802761,0.033488955943498426,0.9629743316262761,66.66666666666667,0.8888888888770371,0.9718076285240661,3.780689326049469e-07,0.9968352498576333,0
169,144.44166666666666,0.8138888888888971,0.9388888888888971,0.8263888888888857,0.9848739495798456,0.0318313153213513,0.9153089050635052,66.66666666666667,0.8888888888770371,1.1361344537815268,1.8032360458164476e-05,0.9919708646708909,0
170,145.38055555555556,0.9388888888888971,0.8527777777777601,0.8374999999999915,1.1210613598673513,0.030397716096173314,0.8740857848797978,141.66666666666666,1.8888888888637034,1.0182421227197238,0.8180955052375793,0.26949192164601077,1
171,146.23333333333332,0.8527777777777601,0.7777777777777999,0.8486111111110972,1.0049099836333835,0.035572067490972636,1.0228741670680375,125.0,1.6666666666444443,0.9165302782324469,0.8560209274291992,0.2138326940506048,1
172,147.01111111111112,0.7777777777777999,1.0,0.8486111111110972,0.9165302782324469,0.03687657119982274,1.0603851479792774,75.0,0.9999999999866667,1.1783960720131126,0.09177025407552719,0.9942101614648804,0
173,148.01111111111112,1.0,0.8499999999999943,0.862499999999983,1.1594202898550954,0.040295515732823146,1.1586968371250408,105.55555555555556,1.407407407388642,0.9855072463768245,0.8647323846817017,0.2329526525913091,1
174,148.86111111111111,0.8499999999999943,0.7111111111111086,0.8513888888888772,0.998368678629697,0.029634912089684627,0.8521513692608212,69.44444444444444,0.9259259259135801,0.8352365415987034,0.6359764337539673,0.2793165082464939,1
175,149.57222222222222,0.7111111111111086,0.8388888888888744,0.8361111111111086,0.8504983388704315,0.031065792374939737,0.8932963063754781,72.22222222222223,0.9629629629501235,1.0033222591361983,0.0003067190700676292,0.9937816490832193,0
176,150.4111111111111,0.8388888888888744,0.8388888888889028,0.8444444444444343,0.9934210526315737,0.03198520146231894,0.9197338983059006,69.44444444444444,0.9259259259135801,0.9934210526316073,1.3715100521949353e-07,0.9973497528021644,0
177,151.25,0.8388888888889028,0.8527777777777885,0.8388888888888886,1.0000000000000169,0.036975415607896446,1.0632274171727503,75.0,0.9999999999866667,1.0165562913907416,0.0015111083630472422,0.9906950579732127,0
178,152.1027777777778,0.8527777777777885,0.8666666666666458,0.8444444444444485,1.0098684210526394,0.0302348969216727,0.8694039224172831,63.888888888888886,0.8518518518404937,1.0263157894736545,7.838091953260573e-09,0.9951651141557812,0
179,152.96944444444443,0.8666666666666458,0.875,0.8513888888888772,1.0179445350733989,0.03307007382740895,0.9509293838395484,69.44444444444444,0.9259259259135801,1.0277324632952833,1.4594553476854344e-07,0.998259801072047,0
180,153.84444444444443,0.875,0.8583333333333485,0.8513888888888772,1.0277324632952833,0.028166816526707644,0.8099363074981769,69.44444444444444,0.9259259259135801,1.0081566068515815,6.419510256705507e-09,0.9933232352810777,0
181,154.70277777777778,0.8583333333333485,0.8416666666666686,0.8513888888888914,1.0081566068515646,0.031408419383077826,0.9031485398913737,66.66666666666667,0.8888888888770371,0.9885807504078297,1.394498028162161e-08,0.9971948670317947,0
182,155.54444444444445,0.8416666666666686,0.8138888888888687,0.8513888888888914,0.9885807504078297,0.034779597509629445,1.000086706870551,69.44444444444444,0.9259259259135801,0.9559543230016048,2.615537232486531e-05,0.9913607389507763,0
183,156.35833333333332,0.8138888888888687,0.8138888888888971,0.8458333333333314,0.9622331691296991,0.031338371195309654,0.9011343054998479,66.66666666666667,0.8888888888770371,0.9622331691297327,7.270863022768026e-08,0.9970675844509315,0
184,157.17222222222222,0.8138888888888971,0.86944444444444,0.8402777777777857,0.9685950413223148,0.031007496912850263,0.8916200214014953,61.111111111111114,0.8148148148039506,1.0347107438016379,1.0356018975699044e-07,0.9927997018944801,0
185,158.04166666666666,0.86944444444444,1.0083333333333542,0.8472222222222285,1.0262295081967086,0.034229679153602546,0.9842738143385332,77.77777777777777,1.0370370370232098,1.1901639344262451,0.0007911183056421578,0.9957358763818362,0
186,159.05,1.0083333333333542,0.7638888888888857,0.8555555555555685,1.178571428571435,0.03472607805251002,0.9985477558344085,136.11111111111111,1.8148148147906173,0.8928571428571257,0.7496160268783569,0.24188147173114555,1
187,159.8138888888889,0.7638888888888857,0.8472222222222001,0.8555555555555685,0.8928571428571257,0.03544924842176603,1.0193425069207418,69.44444444444444,0.9259259259135801,0.9902597402596994,0.0003255037881899625,0.9963427172413876,0
188,160.6611111111111,0.8472222222222001,0.9361111111111313,0.8527777777777743,0.9934853420195221,0.0329180922980682,0.9465591576705578,66.66666666666667,0.8888888888770371,1.0977198697068686,4.1986169208030333e-07,0.9981254507427348,0
189,161.59722222222223,0.9361111111111313,0.7222222222222285,0.8527777777777743,1.0977198697068686,0.038600236937363495,1.109949125559106,97.22222222222223,1.2962962962790123,0.8469055374592942,0.8114111423492432,0.26361466829844715,1
190,162.31944444444446,0.7222222222222285,0.8416666666666401,0.8444444444444343,0.8552631578947546,0.03442185052861742,0.9897996988039931,69.44444444444444,0.9259259259135801,0.99671052631577,0.00022323323355522007,0.9987941024851221,0
191,163.1611111111111,0.8416666666666401,0.9583333333333428,0.8416666666666544,0.9999999999999831,0.03490868869307646,1.0037987215511064,72.22222222222223,0.9629629629501235,1.1386138613861665,0.00024481775471940637,0.9942750492048404,0
192,164.11944444444444,0.9583333333333428,0.75,0.8444444444444201,1.1348684210526754,0.03732473854504903,1.0732721920081851,116.66666666666667,1.5555555555348148,0.8881578947368677,0.8121204376220703,0.20565582462319737,1
193,164.86944444444444,0.75,0.88611111111112,0.8444444444444201,0.8881578947368677,0.03456608380137178,0.9939471239928594,75.0,0.9999999999866667,1.0493421052631986,0.0035258703865110874,0.9967626305607374,0
194,165.75555555555556,0.88611111111112,0.8722222222222058,0.8583333333333201,1.0323624595469518,0.029359975170349085,0.844245563042699,94.44444444444444,1.259259259242469,1.0161812297734594,0.001344399875961244,0.9927380291100609,0
195,166.62777777777777,0.8722222222222058,0.825000000000017,0.859722222222203,1.0145395799676935,0.032562443335722446,0.936332478093377,66.66666666666667,0.8888888888770371,0.9596122778675696,1.8546444380262983e-07,0.9929438237753916,0
196,167.45277777777778,0.825000000000017,0.9138888888888914,0.8444444444444201,0.9769736842105746,0.033209602788536435,0.9549415366313805,69.44444444444444,0.9259259259135801,1.0822368421052972,5.330231215339154e-05,0.9912353608945343,0
197,168.36666666666667,0.9138888888888914,0.7277777777777601,0.859722222222203,1.0630048465266826,0.03695704191512142,1.0626990819642896,105.55555555555556,1.407407407388642,0.8465266558966058,0.810247540473938,0.22691281292307597,1
198,169.09444444444443,0.7277777777777601,0.9611111111111086,0.856944444444423,0.8492706645056732,0.03398479391066107,0.9772321435398205,69.44444444444444,0.9259259259135801,1.121555915721257,0.0026485829148441553,0.9979491300921094,0
199,170.05555555555554,0.9611111111111086,0.8972222222222399,0.856944444444423,1.121555915721257,0.03551444916732423,1.0212173531978659,66.66666666666667,0.8888888888770371,1.04700162074559,0.9198271036148071,0.20468078644953785,1
200,170.95277777777778,0.8972222222222399,0.88055555555556,0.8791666666666629,1.020537124802552,0.03474599779641394,0.9991205477155413,130.55555555555554,1.7407407407175306,1.001579778830973,0.8772409558296204,0.22133857684432884,1
201,171.83333333333334,0.88055555555556,0.7416666666666458,0.88333333333334,0.9968553459119472,0.028083506807175557,0.8075407379970035,147.22222222222223,1.9629629629367902,0.839622641509404,0.4815150201320648,0.28037349954036683,0
202,172.575,0.7416666666666458,0.830555555555577,0.8763888888888829,0.8462757527733576,0.034314308040545506,0.9867073164751082,72.22222222222223,0.9629629629501235,0.9477020602219011,0.0005335438181646168,0.9978494856433027,0
203,173.40555555555557,0.830555555555577,0.8388888888888744,0.8763888888888829,0.9477020602219011,0.031303458361403656,0.9001303875827731,66.66666666666667,0.8888888888770371,0.9572107765451564,7.719565786601379e-08,0.9971822432555472,0
204,174.24444444444444,0.8388888888888744,0.9361111111111029,0.8555555555555401,0.9805194805194812,0.03180897647804658,0.9146665520221933,66.66666666666667,0.8888888888770371,1.0941558441558543,5.030292982155515e-07,0.996557519557808,0
205,175.18055555555554,0.9361111111111029,0.7305555555555543,0.8597222222222172,1.0888529886914347,0.03445117530495889,0.9906429322253385,113.88888888888889,1.5185185184982715,0.8497576736672087,0.781665563583374,0.21911351514992622,1
206,175.9111111111111,0.7305555555555543,0.9888888888889085,0.8597222222222172,0.8497576736672087,0.027949659447861305,0.8036919595641062,69.44444444444444,0.9259259259135801,1.1502423263328243,0.0010697967372834682,0.9901052326447779,0
207,176.9,0.9888888888889085,0.8722222222222058,0.8597222222222172,1.1502423263328243,0.034092531252986315,0.980330128899289,75.0,0.9999999999866667,1.0145395799676766,0.8360958099365234,0.2361118651615175,1
208,177.7722222222222,0.8722222222222058,0.75555555555556,0.8763888888888829,0.9952456418383399,0.03210686038451761,0.9232321984466486,69.44444444444444,0.9259259259135801,0.8621236133122138,0.8120260834693909,0.24790708513010823,1
209,178.52777777777777,0.75555555555556,0.8361111111111086,0.8555555555555401,0.8831168831169043,0.03245336354610026,0.9331958906857977,69.44444444444444,0.9259259259135801,0.977272727272742,9.58649798121769e-06,0.9986219645446347,0
210,179.36388888888888,0.8361111111111086,0.8194444444444571,0.8374999999999915,0.998341625207304,0.030133344686391398,0.8664837897006897,63.888888888888886,0.8518518518404937,0.9784411276948841,5.685063797500334e-08,0.9906422619446562,0
211,180.18333333333334,0.8194444444444571,0.8194444444444287,0.8333333333333428,0.9833333333333373,0.02781507793194709,0.7998220704712543,66.66666666666667,0.8888888888770371,0.9833333333333032,2.9202146833995357e-07,0.9859432093131746,0
212,181.00277777777777,0.8194444444444287,0.9861111111111143,0.8333333333333428,0.9833333333333032,0.034023232799557886,0.9783374531053478,72.22222222222223,0.9629629629501235,1.1833333333333236,0.0002331809955649078,0.996943433273281,0
213,181.98888888888888,0.9861111111111143,0.7722222222222399,0.8374999999999915,1.1774461028192529,0.03760535862499278,1.0813414174083638,69.44444444444444,0.9259259259135801,0.9220563847429825,0.8337636590003967,0.21186981275700945,1
214,182.76111111111112,0.7722222222222399,0.9722222222222001,0.8277777777777828,0.9328859060402841,0.028606429838757753,0.8225773804554739,63.888888888888886,0.8518518518404937,1.1744966442952682,1.3523642337531783e-05,0.9903629687347102,0
215,183.73333333333332,0.9722222222222001,0.7527777777777942,0.8277777777777828,1.1744966442952682,0.038853054366329756,1.1172188862256676,100.0,1.3333333333155555,0.9093959731543767,0.8472318053245544,0.23363910994218512,1
216,184.48611111111111,0.7527777777777942,0.9333333333333371,0.8277777777777828,0.9093959731543767,0.0310886726782411,0.8939542290893485,66.66666666666667,0.8888888888770371,1.1275167785234876,0.0008718061726540327,0.9886701942555687,0
217,185.41944444444445,0.9333333333333371,0.7222222222222285,0.8277777777777828,1.1275167785234876,0.03589253862667135,1.032089308866595,125.0,1.6666666666444443,0.8724832214765124,0.8077859282493591,0.22462114424113555,1
218,186.14166666666668,0.7222222222222285,0.9388888888888687,0.8194444444444429,0.8813559322033993,0.032906566260010324,0.9462277266515136,69.44444444444444,0.9259259259135801,1.1457627118643843,0.0010636880761012435,0.9973505484652745,0
219,187.08055555555555,0.9388888888888687,0.8499999999999943,0.8277777777777828,1.1342281879194318,0.034387502268151474,0.9888120151861304,61.111111111111114,0.8148148148039506,1.0268456375838795,0.9039897322654724,0.243708905508783,1
220,187.93055555555554,0.8499999999999943,0.7527777777777942,0.8347222222222257,1.0183028286189573,0.03962329321348568,1.139367090555596,100.0,1.3333333333155555,0.9018302828619128,0.8951307535171509,0.23578021222013446,1
221,188.68333333333334,0.7527777777777942,1.01111111111112,0.8347222222222115,0.9018302828619281,0.03420924814525671,0.9836863210574802,72.22222222222223,0.9629629629501235,1.2113144758735703,0.011971313506364822,0.9977123674971963,0
222,189.69444444444446,1.01111111111112,0.75,0.8916666666666657,1.1339563862928461,0.03461412050251539,0.9953284184785801,144.44444444444446,1.925925925900247,0.8411214953271037,0.7106324434280396,0.23475765745513089,1
223,190.44444444444446,0.75,0.924999999999983,0.8111111111111171,0.9246575342465685,0.032355543711713675,0.9303830830904476,66.66666666666667,0.8888888888770371,1.14041095890408,0.00011333441216265783,0.9950880401344124,0
224,191.36944444444444,0.924999999999983,0.7194444444444628,0.8874999999999886,1.0422535211267547,0.034783085405427946,1.0001870012521081,61.111111111111114,0.8148148148039506,0.810641627543067,0.736021101474762,0.26689967651757984,1
225,192.0888888888889,0.7194444444444628,0.9305555555555429,0.8013888888888943,0.897746967071074,0.03175842555155991,0.913212961031518,63.888888888888886,0.8518518518404937,1.1611785095320388,0.0017936237854883075,0.9896729141681083,0
226,193.01944444444445,0.9305555555555429,0.76111111111112,0.8874999999999886,1.048513302034428,0.037761163686377,1.0858215891731569,58.333333333333336,0.7777777777674074,0.8575899843505687,0.7419899106025696,0.2816383714838215,1
227,193.78055555555557,0.76111111111112,1.0027777777777658,0.8055555555555571,0.9448275862069057,0.0326012689883579,0.9374489090433195,66.66666666666667,0.8888888888770371,1.2448275862068792,0.0070309117436409,0.9907644077194022,0
228,194.78333333333333,1.0027777777777658,0.86944444444444,0.8874999999999886,1.1298904538341168,0.03447500066231931,0.9913280299518431,136.11111111111111,1.8148148147906173,0.9796557120500858,0.8292938470840454,0.22282109697290003,1
229,195.65277777777777,0.86944444444444,0.8472222222222285,0.8597222222222172,1.011308562197093,0.035292868176847,1.014845795763651,69.44444444444444,0.9259259259135801,0.9854604200323234,0.9499910473823547,0.22342856770773717,1
230,196.5,0.8472222222222285,0.8416666666666686,0.8583333333333343,0.987055016181236,0.035012209923769196,1.0067754726956823,63.888888888888886,0.8518518518404937,0.9805825242718458,0.9582952260971069,0.22716427976643438,1
231,197.34166666666667,0.8416666666666686,0.7277777777777885,0.8583333333333343,0.9805825242718458,0.03937814252488383,1.1323177868716474,111.11111111111111,1.4814814814617283,0.8478964401294614,0.8345417380332947,0.22093717640880195,1
232,198.06944444444446,0.7277777777777885,0.8277777777777544,0.8444444444444485,0.8618421052631664,0.029417877862288996,0.8459105539180274,58.333333333333336,0.7777777777674074,0.9802631578947044,8.160596917150542e-05,0.9808481573543495,0
233,198.8972222222222,0.8277777777777544,0.9416666666666913,0.8444444444444485,0.9802631578947044,0.030697969423515593,0.8827195639591999,63.888888888888886,0.8518518518404937,1.1151315789473921,1.0823534466908313e-05,0.9872745113685244,0
234,199.8388888888889,0.9416666666666913,0.875,0.8444444444444485,1.1151315789473921,0.03797928650708225,1.0920937069971781,136.11111111111111,1.8148148147906173,1.0361842105263108,0.9172461628913879,0.2036058562879513,1
235,200.7138888888889,0.875,0.8861111111110915,0.8583333333333343,1.0194174757281542,0.033526362675823,0.964049961547954,69.44444444444444,0.9259259259135801,1.0323624595469016,0.9558305740356445,0.23887454820529253,1
236,201.6,0.8861111111110915,0.76111111111112,0.8583333333333343,1.0323624595469016,0.03574352663805825,1.0278044717883326,69.44444444444444,0.9259259259135801,0.8867313915857699,0.904082179069519,0.21791752516399837,1
237,202.36111111111111,0.76111111111112,0.8333333333333428,0.8583333333333343,0.8867313915857699,0.031178598682411768,0.8965400497374504,69.44444444444444,0.9259259259135801,0.970873786407777,3.3644732866378035e-06,0.9978325206394292,0
238,203.19444444444446,0.8333333333333428,0.8194444444444287,0.8444444444444485,0.9868421052631643,0.031630223455788795,0.9095265120512462,66.66666666666667,0.8888888888770371,0.9703947368420819,6.992493695179292e-08,0.9958652759332451,0
239,204.01388888888889,0.8194444444444287,0.9444444444444571,0.8375000000000057,0.9784411276948335,0.03354675012946338,0.9646362024142272,66.66666666666667,0.8888888888770371,1.1276948590381501,3.749294046428986e-05,0.9930484737497598,0
240,204.95833333333334,0.9444444444444571,0.75555555555556,0.8375000000000057,1.1276948590381501,0.0349843813942125,1.0059752638239812,138.88888888888889,1.8518518518271603,0.9021558872305132,0.8403229713439941,0.2254978573765022,1
241,205.7138888888889,0.75555555555556,0.8777777777777658,0.8305555555555486,0.9096989966555313,0.03599326007131536,1.0349855522132119,72.22222222222223,0.9629629629501235,1.0568561872909643,0.000932584865950048,0.9983569336138489,0
242,206.59166666666667,0.8777777777777658,0.9694444444444343,0.8541666666666714,1.0276422764227444,0.034281821936609204,0.9857731791350854,72.22222222222223,0.9629629629501235,1.1349593495934778,9.14536758500617e-06,0.9974278973066153,0
243,207.5611111111111,0.9694444444444343,0.7638888888888857,0.8763888888888829,1.1061806656101387,0.03798417438743418,1.0922342579096314,63.888888888888886,0.8518518518404937,0.8716323296355015,0.7937031984329224,0.20534571683966563,1
244,208.325,0.7638888888888857,0.830555555555577,0.8541666666666714,0.8943089430894222,0.030472797704848835,0.8762447551998556,63.888888888888886,0.8518518518404937,0.9723577235772555,3.6239416658645496e-06,0.9913781062791782,0
245,209.15555555555557,0.830555555555577,0.8305555555555486,0.8319444444444599,0.9983305509182042,0.0318950673792273,0.9171420943521328,66.66666666666667,0.8888888888770371,0.99833055091817,5.2340904943548594e-08,0.997211723244094,0
246,209.98611111111111,0.8305555555555486,0.8194444444444287,0.8305555555555628,0.9999999999999829,0.02863868736618023,0.8235049450819133,69.44444444444444,0.9259259259135801,0.9866220735785677,1.0898818203486371e-07,0.990850200332555,0
247,210.80555555555554,0.8194444444444287,0.9361111111111313,0.8305555555555628,0.9866220735785677,0.03611158563089505,1.038388001571227,72.22222222222223,0.9629629629501235,1.127090301003359,0.0010558103676885366,0.9931649269933713,0
248,211.74166666666667,0.9361111111111313,0.8861111111110915,0.8305555555555628,1.127090301003359,0.03602064948812384,1.03577313440566,63.888888888888886,0.8518518518404937,1.0668896321069905,0.9515788555145264,0.21550089816260282,1
249,212.62777777777777,0.8861111111110915,0.9027777777777999,0.8541666666666714,1.0373983739837112,0.038513513430535905,1.1074553926650592,127.77777777777777,1.7037037036809874,1.056910569105711,0.920324444770813,0.20790345936140486,1
250,213.53055555555557,0.9027777777777999,0.7555555555555316,0.8541666666666714,1.056910569105711,0.035813226962705634,1.0298087033820165,63.888888888888886,0.8518518518404937,0.8845528455284223,0.898543119430542,0.20228500481837947,1
251,214.2861111111111,0.7555555555555316,0.9388888888888971,0.8541666666666714,0.8845528455284223,0.033286243017185975,0.9571453250410279,72.22222222222223,0.9629629629501235,1.0991869918699222,0.0005054144421592355,0.9981744816652895,0
252,215.225,0.9388888888888971,0.8277777777777828,0.8583333333333343,1.0938511326860925,0.037258316012263426,1.0713622132611003,133.33333333333334,1.7777777777540742,0.9644012944983867,0.868064820766449,0.21399314287499133,1
253,216.05277777777778,0.8277777777777828,0.7055555555555486,0.8305555555555628,0.9966555183946462,0.032366203023413906,0.9306895914085166,63.888888888888886,0.8518518518404937,0.8494983277591815,0.9227085113525391,0.24435863583343365,1
254,216.75833333333333,0.7055555555555486,0.8555555555555543,0.8305555555555628,0.8494983277591815,0.037347706439683485,1.0739326334092785,75.0,0.9999999999866667,1.03010033444815,0.23982053995132446,0.9896725625734775,0
255,217.61388888888888,0.8555555555555543,0.8666666666666742,0.8430555555555515,1.0148270181219146,0.030903045148335112,0.888616512773431,69.44444444444444,0.9259259259135801,1.028006589785846,5.571266470383307e-08,0.9966105654159871,0
256,218.48055555555555,0.8666666666666742,0.86944444444444,0.8611111111111143,1.0064516129032308,0.030715946847349705,0.8832365044613232,63.888888888888886,0.8518518518404937,1.00967741935483,2.0245256138196055e-08,0.9927109673197363,0
257,219.35,0.86944444444444,0.86944444444444,0.8680555555555571,1.0015999999999932,0.0346615853030121,0.9966932679713865,72.22222222222223,0.9629629629501235,1.0015999999999932,0.0008482557022944093,0.9833306359371676,0
258,220.21944444444443,0.86944444444444,0.8638888888889085,0.8680555555555571,1.0015999999999932,0.02904548551603753,0.835202418634883,66.66666666666667,0.8888888888770371,0.9952000000000207,4.386635499287195e-09,0.9945662438493443,0
259,221.08333333333334,0.8638888888889085,0.8166666666666629,0.8652777777777914,0.9983948635634099,0.030741397535639706,0.8839683385497565,63.888888888888886,0.8518518518404937,0.9438202247190819,2.8203166468898644e-09,0.9958928266316962,0
260,221.9,0.8166666666666629,0.8111111111111029,0.8597222222222314,0.9499192245557205,0.03366823890469258,0.9681296099818988,69.44444444444444,0.9259259259135801,0.94345718901452,2.6852223527384922e-05,0.9922322347624268,0
261,222.7111111111111,0.8111111111111029,0.8361111111111086,0.8597222222222314,0.94345718901452,0.03781741484328203,1.0874390901879756,75.0,0.9999999999866667,0.9725363489499059,0.20989710092544556,0.9744246720884331,0
262,223.54722222222222,0.8361111111111086,0.8666666666666742,0.8458333333333314,0.988505747126436,0.035658216940781924,1.0253513929627485,75.0,0.9999999999866667,1.0246305418719324,0.0009938437724485993,0.990495292485021,0
263,224.4138888888889,0.8666666666666742,0.8944444444444457,0.8597222222222314,1.0080775444264924,0.035539369531281,1.0219339378195438,75.0,0.9999999999866667,1.0403877221324622,3.354195359861478e-05,0.9973777268721953,0
264,225.30833333333334,0.8944444444444457,0.8777777777777658,0.8652777777777914,1.0337078651685245,0.028746832425318898,0.8266146543310892,69.44444444444444,0.9259259259135801,1.0144462279293442,3.8917735700749745e-09,0.9947452409389687,0
265,226.1861111111111,0.8777777777777658,0.8472222222222285,0.8666666666666742,1.0128205128204901,0.042274519959497464,1.2156030684116348,77.77777777777777,1.0370370370232098,0.9775641025641013,0.42671340703964233,0.9512154744311485,0
266,227.03333333333333,0.8472222222222285,0.8166666666666629,0.8652777777777914,0.9791332263242295,0.03213818813056589,0.9241330272262347,69.44444444444444,0.9259259259135801,0.9438202247190819,3.258558081142837e-07,0.9955514831757332,0
267,227.85,0.8166666666666629,0.8416666666666686,0.8555555555555685,0.9545454545454357,0.03132167454382587,0.9006541935838441,63.888888888888886,0.8518518518404937,0.9837662337662211,2.1027221919212025e-07,0.9933246023564128,0
268,228.69166666666666,0.8416666666666686,0.8416666666666686,0.8444444444444485,0.9967105263157868,0.0353029231738507,1.0151349270233856,72.22222222222223,0.9629629629501235,0.9967105263157868,0.00010229127656202763,0.9916979815528838,0
269,229.53333333333333,0.8416666666666686,0.9694444444444343,0.8416666666666686,1.0,0.040564015719321875,1.1664175494540996,83.33333333333333,1.1111111110962961,1.1518151815181372,0.2762962281703949,0.9887906490663461,0
270,230.50277777777777,0.9694444444444343,0.7583333333333542,0.8444444444444485,1.1480263157894561,0.03353306952415008,0.9642428168521321,147.22222222222223,1.9629629629367902,0.898026315789494,0.8139113783836365,0.2531413923316735,1
271,231.26111111111112,0.7583333333333542,0.86388888888888,0.8444444444444485,0.898026315789494,0.0417706962782713,1.2011156274324408,80.55555555555556,1.074074074059753,1.0230263157894581,0.875284731388092,0.960754709212167,1
272,232.125,0.86388888888888,0.9638888888889028,0.8555555555555543,1.009740259740251,0.03778853880750962,1.0866087602937002,77.77777777777777,1.0370370370232098,1.1266233766233946,0.027170618996024132,0.9887072578237981,0
273,233.0888888888889,0.9638888888889028,0.7222222222222001,0.8555555555555543,1.1266233766233946,0.035299195221534095,1.0150277298209265,63.888888888888886,0.8518518518404937,0.8441558441558196,0.7890815734863281,0.20491700113308042,1
274,233.8111111111111,0.7222222222222001,0.8194444444444571,0.8444444444444485,0.8552631578947065,0.036152721665307475,1.039570867508012,66.66666666666667,0.8888888888770371,0.9703947368421155,0.013465221039950848,0.9874479925883917,0
275,234.63055555555556,0.8194444444444571,0.9388888888888971,0.8416666666666686,0.9735973597359864,0.03043106466095793,0.8750447222661512,69.44444444444444,0.9259259259135801,1.1155115511551228,7.66537559684366e-05,0.9880285418451619,0
276,235.56944444444446,0.9388888888888971,0.8972222222222115,0.8416666666666686,1.1155115511551228,0.032994302646403295,0.9487505848794208,130.55555555555554,1.7407407407175306,1.0660066006600508,0.9237850904464722,0.24164305585739648,1
277,236.46666666666667,0.8972222222222115,0.7694444444444457,0.8527777777777743,1.0521172638436398,0.030750742875352004,0.8842370636267178,75.0,0.9999999999866667,0.9022801302931648,0.6843474507331848,0.2686356922470733,1
278,237.23611111111111,0.7694444444444457,0.8555555555555543,0.8527777777777743,0.9022801302931648,0.02950794460739701,0.8485004215692756,119.44444444444444,1.592592592571358,1.0032573289902307,0.5943365097045898,0.9896647622310863,1
279,238.09166666666667,0.8555555555555543,0.8472222222222285,0.8597222222222172,0.9951534733441078,0.0429364083712092,1.23463565790038,80.55555555555556,1.074074074059753,0.9854604200323234,0.19537952542304993,0.9772277830098697,0
280,238.9388888888889,0.8472222222222285,0.924999999999983,0.8513888888888914,0.9951060358890746,0.04379364106897632,1.2592853688550372,80.55555555555556,1.074074074059753,1.0864600326264042,0.18791238963603973,0.9855826923995623,0
281,239.86388888888888,0.924999999999983,0.7222222222222285,0.8597222222222172,1.0759289176090334,0.03532667769932522,1.015817987980273,138.88888888888889,1.8518518518271603,0.8400646203554243,0.7946633100509644,0.2023173643521104,1
282,240.5861111111111,0.7222222222222285,0.8444444444444343,0.8513888888888914,0.8482871125611795,0.030424435811209478,0.8748541098097121,63.888888888888886,0.8518518518404937,0.9918433931484354,1.081319624063326e-05,0.9934888847834433,0
283,241.43055555555554,0.8444444444444343,0.8611111111111143,0.8458333333333314,0.9983579638751956,0.0360275674049885,1.0359720589818764,75.0,0.9999999999866667,1.0180623973727483,7.264219311764464e-05,0.9973507011105635,0
284,242.29166666666666,0.8611111111111143,0.8638888888889085,0.8513888888888914,1.0114192495921703,0.0313914493818029,0.9026605678069948,108.33333333333333,1.4444444444251852,1.0146818923328096,0.26868656277656555,0.9920715728175837,0
285,243.15555555555557,0.8638888888889085,1.0111111111110915,0.8583333333333343,1.0064724919094068,0.03945203377453051,1.1344425284390345,77.77777777777777,1.0370370370232098,1.1779935275080664,0.144084170460701,0.9862391049739798,0
286,244.16666666666666,1.0111111111110915,0.7277777777777885,0.8583333333333343,1.1779935275080664,0.03421715749041564,0.9839137541366384,147.22222222222223,1.9629629629367902,0.8478964401294614,0.7302871346473694,0.22727755216708417,1
287,244.89444444444445,0.7277777777777885,0.8138888888888971,0.8513888888888914,0.8548123980424245,0.042342640774581136,1.2175618812359494,77.77777777777777,1.0370370370232098,0.9559543230016381,0.7895909547805786,0.9681680517787572,1
288,245.70833333333334,0.8138888888888971,0.8194444444444287,0.8513888888888914,0.9559543230016381,0.03794642656296716,1.0911488198894732,77.77777777777777,1.0370370370232098,0.9624796084828497,0.024797549471259117,0.988310621172162,0
289,246.52777777777777,0.8194444444444287,0.9416666666666629,0.8458333333333314,0.9688013136288833,0.03531521875201967,1.0154884861546167,75.0,0.9999999999866667,1.1133004926108354,0.0008217725553549826,0.9960798184556235,0
290,247.46944444444443,0.9416666666666629,0.7694444444444457,0.8527777777777743,1.1042345276872965,0.036419513870239055,1.0472424726085279,61.111111111111114,0.8148148148039506,0.9022801302931648,0.8363160490989685,0.2263237018847809,1
291,248.23888888888888,0.7694444444444457,0.8972222222222399,0.8319444444444315,0.9248747913188807,0.034482005650137405,0.9915294582517746,80.55555555555556,1.074074074059753,1.0784641068447793,0.010882794857025146,0.9968675110802181,0
292,249.13611111111112,0.8972222222222399,0.9777777777777601,0.8527777777777743,1.0521172638436733,0.037716896560454856,1.0845486887557831,72.22222222222223,0.9629629629501235,1.1465798045602444,0.0018867761828005314,0.9895074996425697,0
293,250.11388888888888,0.9777777777777601,0.7277777777777885,0.8625000000000114,1.1336553945249244,0.036403988288749994,1.0467960347893626,66.66666666666667,0.8888888888770371,0.8438003220611929,0.7731231451034546,0.20646694395652226,1
294,250.84166666666667,0.7277777777777885,0.8388888888888744,0.8416666666666686,0.8646864686468755,0.036201720889830445,1.0409798393363612,72.22222222222223,0.9629629629501235,0.9966996699669772,0.009938918985426426,0.9941055008933446,0
295,251.68055555555554,0.8388888888888744,0.8222222222222229,0.8291666666666515,1.0117252931323293,0.03534336006878765,1.016297689217007,72.22222222222223,0.9629629629501235,0.9916247906197844,2.1009327610954642e-05,0.9954776385574725,0
296,252.50277777777777,0.8222222222222229,0.8277777777777828,0.8208333333333258,1.0016920473773365,0.034151368686325824,0.9820219982469126,72.22222222222223,0.9629629629501235,1.0084602368866482,2.2009212443663273e-06,0.9991194205892713,0
297,253.33055555555555,0.8277777777777828,0.9694444444444628,0.8250000000000028,1.0033670033670061,0.03406093286883141,0.9794215179257676,69.44444444444444,0.9259259259135801,1.1750841750841932,0.00017149369523394853,0.9940387395798956,0
298,254.3,0.9694444444444628,0.7611111111110915,0.8333333333333286,1.163333333333362,0.03714091734420768,1.0679864166523456,69.44444444444444,0.9259259259135801,0.913333333333315,0.8508359789848328,0.21495037772532977,1
299,255.0611111111111,0.7611111111110915,0.88611111111112,0.8333333333333286,0.913333333333315,0.03707496107159563,1.066089845208246,75.0,0.9999999999866667,1.06333333333335,0.06901228427886963,0.9902660443729684,0
300,255.94722222222222,0.88611111111112,0.8638888888889085,0.8333333333333286,1.06333333333335,0.03327907240644233,0.9569391342568224,69.44444444444444,0.9259259259135801,1.0366666666666962,1.1508548425354093e-07,0.997361975457185,0
301,256.81111111111113,0.8638888888889085,0.9277777777777487,0.8513888888888914,1.0146818923328096,0.0337412128411576,0.970227974225087,69.44444444444444,0.9259259259135801,1.08972267536701,1.5915516087261494e-06,0.9967758128897886,0
302,257.7388888888889,0.9277777777777487,0.7027777777777828,0.8513888888888914,1.08972267536701,0.03641456249514157,1.047100095905797,130.55555555555554,1.7407407407175306,0.8254486133768387,0.7728967666625977,0.20671916964472292,1
303,258.44166666666666,0.7027777777777828,0.8472222222222285,0.8333333333333286,0.8433333333333441,0.038450344606935485,1.1056389742676371,72.22222222222223,0.9629629629501235,1.01666666666668,0.17142365872859955,0.990550667523121,0
304,259.2888888888889,0.8472222222222285,0.6833333333333371,0.8430555555555515,1.0049423393739827,0.03242356754362387,0.9323391071653365,69.44444444444444,0.9259259259135801,0.8105436573311452,6.055979184793614e-08,0.9982583867460791,0
305,259.97222222222223,0.6833333333333371,0.9416666666666629,0.8375000000000057,0.8159203980099492,0.04006284897241805,1.1520065085740174,91.66666666666667,1.222222222205926,1.124378109452724,0.9517457485198975,0.9697959189053673,1
306,260.9138888888889,0.9416666666666629,0.9638888888889028,0.8555555555555685,1.1006493506493296,0.03293862442156615,0.9471495585160086,69.44444444444444,0.9259259259135801,1.1266233766233757,6.858201828663368e-08,0.9979180246038788,0
307,261.8777777777778,0.9638888888889028,0.8583333333332916,0.8750000000000142,1.1015873015872997,0.032302358354217076,0.9288537390830082,66.66666666666667,0.8888888888770371,0.9809523809523174,0.7140769362449646,0.25594995296364675,1
308,262.7361111111111,0.8583333333332916,0.8277777777777828,0.8611111111111001,0.9967741935483515,0.03194630531933872,0.9186154404073502,136.11111111111111,1.8148148147906173,0.9612903225806634,0.8119707703590393,0.23627447078061442,1
309,263.56388888888887,0.8277777777777828,0.8333333333333712,0.8611111111111001,0.9612903225806634,0.036625088635541765,1.0531537713229637,63.888888888888886,0.8518518518404937,0.9677419354839274,0.9671818614006042,0.22150131763511854,1
310,264.39722222222224,0.8333333333333712,0.8222222222221944,0.8527777777777601,0.9771986970684686,0.0358597662875278,1.0311469408382865,116.66666666666667,1.5555555555348148,0.9641693811074793,0.8924103379249573,0.1996985434137104,1
311,265.21944444444443,0.8222222222221944,0.841666666666697,0.8402777777777999,0.978512396694156,0.04015603279311906,1.1546860076784187,102.77777777777777,1.3703703703520986,1.0016528925619932,0.9265514016151428,0.21189960527123664,1
312,266.06111111111113,0.841666666666697,0.8972222222221831,0.8375000000000341,1.0049751243781047,0.03166152223262446,0.9104265078216397,69.44444444444444,0.9259259259135801,1.0713101160861451,0.9719786047935486,0.2535220190063984,1
313,266.9583333333333,0.8972222222221831,0.88611111111112,0.8444444444444628,1.0624999999999305,0.03722727843018353,1.0704697281412563,155.55555555555554,2.0740740740464196,1.0493421052631455,0.9186348915100098,0.22050279673258377,1
314,267.84444444444443,0.88611111111112,0.8555555555555543,0.8499999999999943,1.0424836601307363,0.035093345567602095,1.0091085266888518,63.888888888888886,0.8518518518404937,1.0065359477124236,0.9516008496284485,0.21282746366772526,1
315,268.7,0.8555555555555543,0.7138888888889028,0.856944444444423,0.9983792544570738,0.03580782277864666,1.0296533061656636,113.88888888888889,1.5185185184982715,0.8330632090762121,0.8369739055633545,0.20389862904201195,1
316,269.4138888888889,0.7138888888889028,0.8249999999999886,0.8486111111111256,0.8412438625204602,0.02952515934160162,0.8489954309446882,63.888888888888886,0.8518518518404937,0.972176759410772,1.63635140779661e-05,0.99074881703392,0
317,270.2388888888889,0.8249999999999886,0.8249999999999886,0.8375000000000341,0.985074626865618,0.030348427061860972,0.8726684795761176,111.11111111111111,1.4814814814617283,0.985074626865618,0.24316228926181793,0.9931583339753421,0
318,271.06388888888887,0.8249999999999886,0.9861111111111427,0.830555555555577,0.9933110367892583,0.0253766099522735,0.7297039671514604,130.55555555555554,1.7407407407175306,1.187290969899673,0.787216067314148,0.9684598869506146,1
319,272.05,0.9861111111111427,0.8694444444444116,0.8375000000000341,1.177446102819227,0.02977808946564366,0.8562684321561463,75.0,0.9999999999866667,1.038142620232091,0.6125284433364868,0.2559781672945197,1
320,272.9194444444444,0.8694444444444116,0.8638888888889369,0.8486111111111256,1.0245499181668831,0.03634028336354005,1.044964200799708,125.0,1.6666666666444443,1.0180032733224613,0.9139185547828674,0.20316041772461152,1
321,273.78333333333336,0.8638888888889369,0.8583333333332916,0.8597222222222456,1.0048465266559252,0.03513641106470102,1.0103468742908184,113.88888888888889,1.5185185184982715,0.9983844911146255,0.9182881116867065,0.18773857727224763,1
322,274.64166666666665,0.8583333333332916,0.7416666666666742,0.8611111111111143,0.9967741935483351,0.03312326294938257,0.9524588360944576,125.0,1.6666666666444443,0.8612903225806509,0.7964852452278137,0.2310932862099594,1
323,275.3833333333333,0.7416666666666742,0.8194444444444571,0.856944444444423,0.8654781199352007,0.027843960122421105,0.8006525773438646,125.0,1.6666666666444443,0.9562398703403953,0.8129153847694397,0.9718992425941453,1
324,276.2027777777778,0.8194444444444571,0.9250000000000114,0.8402777777777715,0.9752066115702703,0.03342525420262574,0.9611425892021824,66.66666666666667,0.8888888888770371,1.1008264462810136,1.909580760184326e-06,0.9978549255884697,0
325,277.1277777777778,0.9250000000000114,0.8499999999999659,0.8416666666666401,1.099009900990147,0.037651964973249255,1.0826815821222935,113.88888888888889,1.5185185184982715,1.0099009900990013,0.9219246506690979,0.1948027661667609,1
326,277.97777777777776,0.8499999999999659,0.875,0.8541666666666288,0.9951219512195164,0.03604012780060867,1.0363332329341997,127.77777777777777,1.7037037036809874,1.0243902439024846,0.9117634892463684,0.21619783029662387,1
327,278.85277777777776,0.875,0.7750000000000341,0.8611111111111143,1.0161290322580607,0.033613843502956514,0.9665654711739077,69.44444444444444,0.9259259259135801,0.9000000000000363,0.8847509026527405,0.23809668321396338,1
328,279.6277777777778,0.7750000000000341,0.8666666666666742,0.8611111111111143,0.9000000000000363,0.028490589818783767,0.8192464027445464,136.11111111111111,1.8148148147906173,1.0064516129032308,0.7013230919837952,0.9849397468627953,1
329,280.49444444444447,0.8666666666666742,0.9444444444444002,0.8611111111111143,1.0064516129032308,0.029247386852099135,0.8410080879569246,122.22222222222223,1.6296296296079011,1.0967741935483317,0.42516636848449707,0.9913415133990913,0
330,281.43888888888887,0.9444444444444002,0.8194444444444571,0.8611111111111143,1.0967741935483317,0.03412615692318117,0.9812970344467778,63.888888888888886,0.8518518518404937,0.9516129032258176,0.8631041646003723,0.2054502010000363,1
331,282.2583333333333,0.8194444444444571,0.7416666666666742,0.8541666666666288,0.9593495934959924,0.03309265758396822,0.9515787793571322,113.88888888888889,1.5185185184982715,0.8682926829268767,0.8508191704750061,0.21566053912662703,1
332,283.0,0.7416666666666742,0.9638888888889028,0.8347222222222115,0.8885191347753949,0.030129181526576985,0.8663640781143834,63.888888888888886,0.8518518518404937,1.154742096505855,3.1043211492942646e-05,0.9949454257222846,0
333,283.9638888888889,0.9638888888889028,0.86388888888888,0.8583333333333201,1.1229773462783508,0.030269633452608153,0.8704027707455805,75.0,0.9999999999866667,1.0064724919093904,0.602929413318634,0.27134796502790837,1
334,284.8277777777778,0.86388888888888,0.8722222222222058,0.8652777777777771,0.9983948635633934,0.03398323148113896,0.9771872159067433,150.0,1.9999999999733333,1.0080256821829674,0.8839282989501953,0.23090887033140972,1
335,285.7,0.8722222222222058,0.8527777777778169,0.8652777777777771,1.0080256821829674,0.03351037335798173,0.9635901889982413,72.22222222222223,0.9629629629501235,0.985553772070672,0.9298468828201294,0.24220624394900314,1
336,286.5527777777778,0.8527777777778169,0.7305555555555543,0.8652777777777771,0.985553772070672,0.03519223119112761,1.0119519810319073,119.44444444444444,1.592592592571358,0.8443017656500794,0.8170673847198486,0.20213320994054362,1
337,287.28333333333336,0.7305555555555543,0.8361111111111086,0.8583333333333485,0.8511326860841258,0.029491127831537494,0.8480168554789875,63.888888888888886,0.8518518518404937,0.9741100323624394,1.0741457117546815e-05,0.9906525268534186,0
338,288.11944444444447,0.8361111111111086,0.9333333333333371,0.8583333333333485,0.9741100323624394,0.033355635432650146,0.9591407027116332,69.44444444444444,0.9259259259135801,1.0873786407766843,2.6247655569022754e-06,0.9979788110509497,0
339,289.0527777777778,0.9333333333333371,0.8361111111111086,0.8583333333333485,1.0873786407766843,0.03499431031231548,1.0062607696871715,136.11111111111111,1.8148148147906173,0.9741100323624394,0.8785091638565063,0.21363068520489342,1
340,289.8888888888889,0.8361111111111086,0.9027777777777715,0.8444444444444628,0.9901315789473439,0.03220538502745348,0.9260652727992786,69.44444444444444,0.9259259259135801,1.0690789473683904,0.9768550395965576,0.26047685123524156,1
341,290.7916666666667,0.9027777777777715,0.8805555555555316,0.8583333333333485,1.051779935275055,0.03747332526179649,1.0775448004015264,133.33333333333334,1.7777777777540742,1.0258899676374944,0.8987323045730591,0.20358832304927132,1
342,291.6722222222222,0.8805555555555316,0.8527777777777601,0.8680555555555429,1.014399999999987,0.03937043619158446,1.1320961913948948,125.0,1.6666666666444443,0.982399999999994,0.8734396696090698,0.1868514624183733,1
343,292.525,0.8527777777777601,0.830555555555577,0.8583333333333485,0.9935275080905768,0.029506438627263556,0.8484571171373637,66.66666666666667,0.8888888888770371,0.9676375404530824,0.7680584788322449,0.25929116891364196,1
344,293.35555555555555,0.830555555555577,0.7111111111111086,0.8527777777777885,0.9739413680781888,0.030979310841858506,0.8908095314321977,138.88888888888889,1.8518518518271603,0.8338762214983578,0.6944530606269836,0.24927290063765678,1
345,294.06666666666666,0.7111111111111086,0.9388888888888687,0.8444444444444343,0.8421052631579018,0.029202904069650815,0.839728986339982,122.22222222222223,1.6296296296079011,1.1118421052631473,0.807164192199707,0.9893137690905764,1
346,295.00555555555553,0.9388888888888687,0.7555555555555884,0.8444444444444343,1.1118421052631473,0.03300302786147291,0.9490014782833278,63.888888888888886,0.8518518518404937,0.8947368421053128,0.8179418444633484,0.22626299637480501,1
347,295.7611111111111,0.7555555555555884,0.9777777777777601,0.8444444444444343,0.8947368421053128,0.03183349565158853,0.9153716004206391,66.66666666666667,0.8888888888770371,1.1578947368420982,0.0002110115747200325,0.9957628253116937,0
348,296.7388888888889,0.9777777777777601,0.7527777777777942,0.8666666666666458,1.1282051282051349,0.03765488060320703,1.082765421009794,66.66666666666667,0.8888888888770371,0.8685897435897835,0.7540461421012878,0.23590345109176464,1
349,297.4916666666667,0.7527777777777942,0.8777777777777942,0.8444444444444343,0.8914473684210827,0.0345729042620325,0.9941432462176676,75.0,0.9999999999866667,1.0394736842105583,0.002348028589040041,0.9970717617802436,0
350,298.36944444444447,0.8777777777777942,0.8416666666666401,0.8652777777777771,1.0144462279293938,0.03813483849894691,1.096566601752444,75.0,0.9999999999866667,0.9727126805778191,0.0001536397321615368,0.996191188202179,0
351,299.2111111111111,0.8416666666666401,0.8194444444444571,0.8472222222222001,0.9934426229508143,0.032032009554791144,0.92107986417116,66.66666666666667,0.8888888888770371,0.9672131147541385,2.960717893074616e-08,0.9978700614338091,0
352,300.03055555555557,0.8194444444444571,0.8166666666666629,0.8361111111111086,0.9800664451827423,0.030607141020723143,0.880107794854803,63.888888888888886,0.8518518518404937,0.97674418604651,7.039088245619496e-08,0.9926081760368519,0
353,300.84722222222223,0.8166666666666629,0.8499999999999659,0.825000000000017,0.9898989898989649,0.033816838733519865,0.9724025954128619,69.44444444444444,0.9259259259135801,1.0303030303029677,1.0728368806667277e-06,0.9986604850666659,0
354,301.6972222222222,0.8499999999999659,0.9972222222222626,0.8305555555555486,1.0234113712374258,0.03175948360877876,0.9132433854479992,69.44444444444444,0.9259259259135801,1.200668896321129,1.2534812412923202e-05,0.9952086451213557,0
355,302.69444444444446,0.9972222222222626,0.8972222222221831,0.845833333333303,1.1789819376027173,0.03448935025291653,0.9917406521738611,147.22222222222223,1.9629629629367902,1.0607553366173974,0.92043137550354,0.23419838870034176,1
356,303.59166666666664,0.8972222222221831,0.8555555555555543,0.845833333333303,1.0607553366173974,0.03269293148782262,0.94008466258267,69.44444444444444,0.9259259259135801,1.011494252873598,0.9390922784805298,0.2300190087367851,1
357,304.4472222222222,0.8555555555555543,0.716666666666697,0.8527777777777601,1.0032573289902473,0.03526555662768655,1.0140604526540349,122.22222222222223,1.6296296296079011,0.8403908794788804,0.8206756114959717,0.20747661473533124,1
358,305.1638888888889,0.716666666666697,0.9361111111111313,0.845833333333303,0.8472906403941549,0.029706014863893012,0.8541959282666504,100.0,1.3333333333155555,1.106732348111722,0.6119390726089478,0.9892739299088704,1
359,306.1,0.9361111111111313,0.8416666666666401,0.8527777777777601,1.0977198697068868,0.035394867858073165,1.0177787947804187,127.77777777777777,1.7037037036809874,0.9869706840390773,0.8826990127563477,0.21164965377004913,1
360,306.94166666666666,0.8416666666666401,0.8472222222222285,0.845833333333303,0.9950738916256201,0.030535091164823384,0.8780360025318085,138.88888888888889,1.8518518518271603,1.0016420361248382,0.8309745788574219,0.2546426879288821,1
361,307.7888888888889,0.8472222222222285,0.7472222222222058,0.8486111111110972,0.9983633387888945,0.03449231864541744,0.9918260082473498,66.66666666666667,0.8888888888770371,0.8805237315875565,0.9274774789810181,0.2162738890325145,1
362,308.5361111111111,0.7472222222222058,0.9972222222222626,0.8486111111110972,0.8805237315875565,0.031315615749066834,0.9004799730484717,69.44444444444444,0.9259259259135801,1.1751227495909016,0.0011539271799847484,0.9952803136359671,0
363,309.53333333333336,0.9972222222222626,0.8611111111110858,0.8527777777777601,1.1693811074919283,0.03934467722851113,1.131355492870558,113.88888888888889,1.5185185184982715,1.0097719869706754,0.8888314366340637,0.20132068354590937,1
364,310.39444444444445,0.8611111111110858,0.8472222222222285,0.8583333333333201,1.0032362459546786,0.03158006124255655,0.908084098503278,72.22222222222223,0.9629629629501235,0.9870550161812524,0.9030367136001587,0.24475043391138984,1
365,311.2416666666667,0.8472222222222285,0.8166666666666629,0.8513888888888914,0.9951060358890746,0.035417087184900546,1.0184177111275536,141.66666666666666,1.8888888888637034,0.9592169657422439,0.8575466275215149,0.22089164393506283,1
366,312.05833333333334,0.8166666666666629,0.8166666666666629,0.8472222222222285,0.9639344262294965,0.03259175392633787,0.9371753036044226,63.888888888888886,0.8518518518404937,0.9639344262294965,0.9598828554153442,0.2288119030994456,1
367,312.875,0.8166666666666629,0.8527777777777601,0.8444444444444343,0.9671052631579018,0.03656106415433239,1.0513127485062377,58.333333333333336,0.7777777777674074,1.0098684210526228,0.9805764555931091,0.2115847533148728,1
368,313.72777777777776,0.8527777777777601,0.9027777777777715,0.8472222222222285,1.006557377049152,0.03667486525651386,1.0545850971723598,66.66666666666667,0.8888888888770371,1.0655737704917878,0.985410213470459,0.2025241573680463,1
369,314.63055555555553,0.9027777777777715,0.8833333333333826,0.8472222222222285,1.0655737704917878,0.03310401638624089,0.9519054015141519,72.22222222222223,0.9629629629501235,1.0426229508197224,0.9520580172538757,0.23534541653331803,1
370,315.5138888888889,0.8833333333333826,0.8527777777777601,0.8499999999999943,1.0392156862745747,0.03821434701593696,1.098852867742231,147.22222222222223,1.9629629629367902,1.0032679738561951,0.88116055727005,0.20793352169063445,1
371,316.3666666666667,0.8527777777777601,0.8388888888889028,0.8527777777777601,1.0,0.03252178713995223,0.9351634099082013,69.44444444444444,0.9259259259135801,0.9837133550488967,0.9434309601783752,0.2311634892938053,1
372,317.2055555555556,0.8388888888889028,0.7027777777777828,0.8527777777777601,0.9837133550488967,0.03609723886408618,1.0379754605471927,119.44444444444444,1.592592592571358,0.8241042345277103,0.8244913220405579,0.19668443807465774,1
373,317.90833333333336,0.7027777777777828,0.9472222222221944,0.8499999999999943,0.8267973856209265,0.03108160925212924,0.8937511203973209,63.888888888888886,0.8518518518404937,1.114379084967295,0.0010334255639463663,0.9923774412585947,0
374,318.85555555555555,0.9472222222221944,0.7333333333333485,0.8499999999999943,1.114379084967295,0.03163561808242169,0.9096816344439823,69.44444444444444,0.9259259259135801,0.8627450980392393,0.6367019414901733,0.266638144125326,1
375,319.5888888888889,0.7333333333333485,0.9749999999999659,0.8458333333333314,0.8669950738916454,0.028258943585494502,0.8125854194325606,61.111111111111114,0.8148148148039506,1.1527093596058735,0.002859825501218438,0.9799883242401992,0
376,320.56388888888887,0.9749999999999659,0.8777777777777942,0.8527777777777601,1.1433224755700162,0.03173927117922522,0.9126621773962252,66.66666666666667,0.8888888888770371,1.0293159609120928,0.7522596716880798,0.2509510898153913,1
377,321.44166666666666,0.8777777777777942,0.7805555555555657,0.8652777777777771,1.0144462279293938,0.0354917859321259,1.0205656722734318,63.888888888888886,0.8518518518404937,0.9020866773675886,0.9121502637863159,0.22130298406715165,1
378,322.22222222222223,0.7805555555555657,0.8388888888889028,0.8652777777777771,0.9020866773675886,0.030298231884222558,0.8712251181372371,66.66666666666667,0.8888888888770371,0.9695024077046717,2.3713353130006e-06,0.9930538677575955,0
379,323.06111111111113,0.8388888888889028,0.8111111111110745,0.8458333333333314,0.9917898193760449,0.03198343320494044,0.9196830520964793,69.44444444444444,0.9259259259135801,0.9589490968800902,1.2412488104018848e-07,0.9971704416056831,0
380,323.8722222222222,0.8111111111110745,0.9333333333333371,0.8388888888889028,0.9668874172184834,0.02777014126601302,0.7985299174427639,125.0,1.6666666666444443,1.1125827814569398,0.8027759194374084,0.9725927005770371,1
381,324.80555555555554,0.9333333333333371,0.841666666666697,0.8388888888889028,1.1125827814569398,0.03372502458473614,0.9697624812000446,66.66666666666667,0.8888888888770371,1.0033112582781651,0.9106597900390625,0.22241838828556082,1
382,325.64722222222224,0.841666666666697,0.8888888888888573,0.8402777777777999,1.0016528925619932,0.03352809237832511,0.9640996991125914,66.66666666666667,0.8888888888770371,1.057851239669356,0.9798704385757446,0.23274238282403575,1
383,326.5361111111111,0.8888888888888573,0.8777777777777942,0.8597222222222456,1.0339256865912114,0.041135195728695804,1.1828418204493838,127.77777777777777,1.7037037036809874,1.0210016155088766,0.8850187659263611,0.1945323894362177,1
384,327.4138888888889,0.8777777777777942,0.75,0.8597222222222456,1.0210016155088766,0.03082883063532634,0.8864824757738253,66.66666666666667,0.8888888888770371,0.8723747980613656,0.7071003317832947,0.2598077132998103,1
385,328.1638888888889,0.75,0.9499999999999886,0.8597222222222456,0.8723747980613656,0.02874557902198391,0.8265786127405181,66.66666666666667,0.8888888888770371,1.1050080775443831,3.5107354051433504e-05,0.9921272441762401,0
386,329.1138888888889,0.9499999999999886,0.8444444444444343,0.8597222222222456,1.1050080775443831,0.03516441610968964,1.0111521588606205,61.111111111111114,0.8148148148039506,0.982229402261674,0.8664335608482361,0.21569495213530837,1
387,329.9583333333333,0.8444444444444343,0.7111111111111086,0.8430555555555657,1.001647446457966,0.033161301729854105,0.9535526405493427,63.888888888888886,0.8518518518404937,0.843492586490926,0.9250001311302185,0.2115266416432393,1
388,330.6694444444444,0.7111111111111086,0.8250000000000455,0.8430555555555657,0.843492586490926,0.031763174866651686,0.9133495275023839,66.66666666666667,0.8888888888770371,0.9785831960461707,1.1540068953763694e-05,0.9980384398821562,0
389,331.49444444444447,0.8250000000000455,0.9805555555555543,0.8430555555555657,0.9785831960461707,0.03200956855136684,0.9204345735174293,66.66666666666667,0.8888888888770371,1.163097199341006,4.329311650508316e-06,0.9966204410436954,0
390,332.475,0.9805555555555543,0.875,0.8611111111111143,1.1387096774193493,0.03216018880115405,0.9247656561171058,147.22222222222223,1.9629629629367902,1.0161290322580607,0.8384279012680054,0.2455111283539277,1
391,333.35,0.875,0.8777777777777374,0.8597222222222172,1.0177705977382936,0.032798306031584776,0.9431147057115449,136.11111111111111,1.8148148147906173,1.0210016155088444,0.889762818813324,0.23686349707935206,1
392,334.22777777777776,0.8777777777777374,0.7416666666666742,0.8763888888888687,1.0015847860538598,0.03688604164348261,1.0606574704180227,63.888888888888886,0.8518518518404937,0.8462757527734037,0.9108948111534119,0.21244343711919078,1
393,334.96944444444443,0.7416666666666742,0.9250000000000114,0.8597222222222172,0.86268174474961,0.029693299558856474,0.8538302998968187,58.333333333333336,0.7777777777674074,1.0759289176090665,5.3890180424787104e-05,0.9854212048491033,0
394,335.89444444444445,0.9250000000000114,0.8222222222221944,0.8597222222222172,1.0759289176090665,0.038537089362660905,1.1081333181733624,105.55555555555556,1.407407407388642,0.9563812600969038,0.8524346947669983,0.2607158488031763,1
395,336.71666666666664,0.8222222222221944,0.8694444444444684,0.8597222222222172,0.9563812600969038,0.03235525953533635,0.9303749116037796,130.55555555555554,1.7407407407175306,1.0113085621971258,0.8792644143104553,0.2312786409635263,1
396,337.5861111111111,0.8694444444444684,0.8694444444444684,0.8569444444444514,1.0145867098865675,0.034543535373303416,0.9932987443454022,141.66666666666666,1.8888888888637034,1.0145867098865675,0.8948929309844971,0.22257721844603262,1
397,338.4555555555556,0.8694444444444684,0.8611111111110858,0.8694444444444684,1.0,0.038390725404556666,1.1039246251652137,66.66666666666667,0.8888888888770371,0.9904153354632024,0.9693209528923035,0.20622966577099333,1
398,339.31666666666666,0.8611111111110858,0.8694444444444684,0.8694444444444684,0.9904153354632024,0.03574567026124169,1.0278661116347885,125.0,1.6666666666444443,1.0,0.8887601494789124,0.21462834712949502,1
399,340.18611111111113,0.8694444444444684,0.8361111111111086,0.8694444444444684,1.0,0.043167665042697305,1.2412854393697128,108.33333333333333,1.4444444444251852,0.9616613418530057,0.8728612065315247,0.22847172230243767,1
400,341.02222222222224,0.8361111111111086,0.7222222222222285,0.8694444444444684,0.9616613418530057,0.03352702901069012,0.9640691219951888,125.0,1.6666666666444443,0.8306709265175563,0.7966705560684204,0.22188196386702908,1
401,341.74444444444447,0.7222222222222285,0.8388888888888459,0.8652777777777771,0.8346709470305055,0.02987933057223929,0.8591796183729253,125.0,1.6666666666444443,0.9695024077046059,0.8326606154441833,0.9808276079496872,1
402,342.5833333333333,0.8388888888888459,0.9333333333333371,0.8499999999999659,0.9869281045751525,0.030672287343415566,0.8819810762033911,61.111111111111114,0.8148148148039506,1.098039215686323,1.8009443465416552e-06,0.9865287438392552,0
403,343.51666666666665,0.9333333333333371,0.7472222222222626,0.8652777777777771,1.0786516853932635,0.03510569314230934,1.0094635809796149,119.44444444444444,1.592592592571358,0.8635634028892929,0.7916144132614136,0.20742317626582157,1
404,344.2638888888889,0.7472222222222626,1.0166666666666515,0.8499999999999659,0.8790849673203442,0.030100986632685615,0.8655533344427645,108.33333333333333,1.4444444444251852,1.1960784313725792,0.831108033657074,0.9875489019046098,1
405,345.28055555555557,1.0166666666666515,0.8722222222222058,0.8652777777777771,1.1749598715890683,0.03419273955204798,0.9832116167538258,130.55555555555554,1.7407407407175306,1.0080256821829674,0.8632408976554871,0.22929168621363033,1
406,346.15277777777777,0.8722222222222058,0.7277777777777601,0.8652777777777771,1.0080256821829674,0.033820518882560435,0.9725084180329701,144.44444444444446,1.925925925900247,0.8410914927768662,0.775731086730957,0.22042877883538092,1
407,346.88055555555553,0.7277777777777601,0.9277777777778056,0.8499999999999659,0.8562091503268109,0.03002046157821146,0.8632378379357295,61.111111111111114,0.8148148148039506,1.0915032679739327,8.668164082337171e-05,0.9893097643325179,0
408,347.80833333333334,0.9277777777778056,0.7138888888889028,0.8541666666666572,1.0861788617886625,0.03620453661627667,1.0410608055001667,119.44444444444444,1.592592592571358,0.8357723577236028,0.7919032573699951,0.20998408157765464,1
409,348.52222222222224,0.7138888888889028,0.9527777777777828,0.8374999999999773,0.8524046434494593,0.02968093276850928,0.8534746930606713,105.55555555555556,1.407407407388642,1.1376451077943985,0.8890900015830994,0.9780931709280756,1
410,349.475,0.9527777777777828,0.7666666666666515,0.8555555555555259,1.1136363636364082,0.034737179036969525,0.9988669644448029,122.22222222222223,1.6296296296079011,0.8961038961039095,0.791816771030426,0.21672473432587042,1
411,350.2416666666667,0.7666666666666515,0.8777777777777942,0.8555555555555259,0.8961038961039095,0.027482622831443378,0.790262329978196,127.77777777777777,1.7037037036809874,1.0259740259740808,0.7808965444564819,0.9752903533687225,1
412,351.11944444444447,0.8777777777777942,0.9666666666666401,0.875,1.003174603174622,0.03138446022567748,0.9024595947471042,63.888888888888886,0.8518518518404937,1.1047619047618744,1.9224908953674458e-07,0.9924800037218715,0
413,352.0861111111111,0.9666666666666401,0.86388888888888,0.875,1.1047619047618744,0.03639889727762032,1.0466496428550136,119.44444444444444,1.592592592571358,0.9873015873015772,0.8581580519676208,0.20507542526145467,1
414,352.95,0.86388888888888,0.716666666666697,0.875,0.9873015873015772,0.03835400617072335,1.1028687642504056,122.22222222222223,1.6296296296079011,0.8190476190476537,0.7719710469245911,0.18819979130028563,1
415,353.6666666666667,0.716666666666697,0.8138888888888687,0.8680555555555429,0.825600000000047,0.03098363311764404,0.8909338183954192,119.44444444444444,1.592592592571358,0.9375999999999903,0.8069165349006653,0.9847257634186144,1
416,354.48055555555555,0.8138888888888687,0.9333333333333371,0.8388888888888744,0.9701986754966815,0.029657648624841302,0.8528051579242522,125.0,1.6666666666444443,1.1125827814569775,0.8874452114105225,0.9687608899362417,1
417,355.4138888888889,0.9333333333333371,0.7527777777777942,0.8708333333333371,1.0717703349282293,0.03521870995526559,1.0127133774230364,125.0,1.6666666666444443,0.864433811802248,0.7749819159507751,0.2071686016010632,1
418,356.1666666666667,0.7527777777777942,1.0,0.8388888888888744,0.8973509933775186,0.03105936604517412,0.893111517377538,63.888888888888886,0.8518518518404937,1.192052980132471,0.0007220708066597581,0.9909878622055228,0
419,357.1666666666667,1.0,0.7805555555555088,0.8708333333333371,1.1483253588516698,0.03726909432387116,1.0716721434193899,122.22222222222223,1.6296296296079011,0.896331738436944,0.7539842128753662,0.204122393215184,1
420,357.9472222222222,0.7805555555555088,0.9583333333333712,0.8388888888888744,0.9304635761589007,0.029913023739440332,0.8601484647956247,61.111111111111114,0.8148148148039506,1.14238410596033,0.00025860065943561494,0.9827458198266059,0
421,358.90555555555557,0.9583333333333712,0.8166666666666629,0.8708333333333371,1.1004784688995604,0.035293568968017,1.0148659470012613,58.333333333333336,0.7777777777674074,0.9377990430621925,0.7518014907836914,0.23540801611508322,1
422,359.72222222222223,0.8166666666666629,0.7249999999999659,0.8402777777777715,0.9719008264462838,0.034314168236976125,0.986703296425961,133.33333333333334,1.7777777777540742,0.8628099173553379,0.839275062084198,0.22081816101919222,1
423,360.4472222222222,0.7249999999999659,0.8388888888889028,0.8152777777777658,0.8892674616694772,0.03129704316850667,0.8999459188252922,63.888888888888886,0.8518518518404937,1.0289608177172382,2.0760724510182627e-05,0.9925763485157405,0
424,361.2861111111111,0.8388888888889028,0.8583333333333485,0.8152777777777658,1.0289608177172382,0.030051924658460336,0.8641425582478433,61.111111111111114,0.8148148148039506,1.052810902896116,1.377983039674291e-06,0.9823993871076593,0
425,362.14444444444445,0.8583333333333485,0.9777777777777601,0.8277777777777828,1.0369127516778642,0.030620705829206594,0.8804978506811185,100.0,1.3333333333155555,1.1812080536912466,0.7513935565948486,0.9779047179822341,1
426,363.1222222222222,0.9777777777777601,0.8722222222222626,0.8486111111111256,1.152209492634984,0.03572064653895707,1.0271465549462346,119.44444444444444,1.592592592571358,1.027823240589228,0.8973103165626526,0.22152535367033138,1
427,363.99444444444447,0.8722222222222626,0.8555555555555543,0.8486111111111256,1.027823240589228,0.033557857484016684,0.9649555941965555,136.11111111111111,1.8148148147906173,1.0081833060556278,0.9040562510490417,0.21688847175335035,1
428,364.85,0.8555555555555543,0.7361111111110858,0.8569444444444514,0.9983792544570407,0.0329423166946184,0.9472557297618566,69.44444444444444,0.9259259259135801,0.8589951377633347,0.8875876069068909,0.23420500610937656,1
429,365.5861111111111,0.7361111111110858,0.8138888888888687,0.8472222222222285,0.8688524590163571,0.03453811669817772,0.9931429304386841,66.66666666666667,0.8888888888770371,0.960655737704887,0.00037155082100071013,0.9934759382618771,0
430,366.4,0.8138888888888687,0.8166666666666629,0.8472222222222285,0.960655737704887,0.03393231133069011,0.9757230078876125,69.44444444444444,0.9259259259135801,0.9639344262294965,8.796434485702775e-06,0.9947075929770444,0
431,367.21666666666664,0.8166666666666629,0.9833333333333485,0.8277777777777828,0.986577181208043,0.033512618061974135,0.9636547354215587,63.888888888888886,0.8518518518404937,1.1879194630872594,0.00014760365593247116,0.9913302279228953,0
432,368.2,0.9833333333333485,0.7833333333333599,0.8472222222222285,1.1606557377049274,0.0355604872288635,1.0225411768373651,152.77777777777777,2.0370370370098763,0.9245901639344506,0.8434800505638123,0.24439127801715366,1
433,368.98333333333335,0.7833333333333599,0.8805555555555316,0.8472222222222285,0.9245901639344506,0.035307977328940754,1.015280259162972,69.44444444444444,0.9259259259135801,1.039344262295046,0.00012115229037590325,0.9968799222103503,0
434,369.8638888888889,0.8805555555555316,0.841666666666697,0.8569444444444514,1.0275526742301095,0.03376465261761688,0.9709019845796476,72.22222222222223,0.9629629629501235,0.9821717990275801,8.664898132337839e-07,0.9963671556114256,0
435,370.7055555555556,0.841666666666697,0.8333333333333144,0.8486111111111256,0.9918166939443722,0.029333456652093214,0.8434830235226181,58.333333333333336,0.7777777777674074,0.9819967266775386,8.287521779948293e-09,0.9861635115380833,0
436,371.5388888888889,0.8333333333333144,0.8194444444444571,0.8375000000000057,0.9950248756218611,0.030260128565098705,0.870129457874554,63.888888888888886,0.8518518518404937,0.9784411276948675,8.503661774739157e-08,0.9903042199635664,0
437,372.35833333333335,0.8194444444444571,0.9555555555555202,0.8263888888888857,0.9915966386554813,0.03122477403925493,0.8978678213009673,66.66666666666667,0.8888888888770371,1.156302521008365,4.6807654143776745e-06,0.9943000430602618,0
438,373.31388888888887,0.9555555555555202,0.7388888888889369,0.8263888888888857,1.156302521008365,0.038676655208860704,1.1121465315947918,141.66666666666666,1.8888888888637034,0.8941176470588851,0.8512851595878601,0.20307559679142984,1
439,374.0527777777778,0.7388888888889369,0.8611111111110858,0.8263888888888857,0.8941176470588851,0.04201904537120507,1.2082569011759814,80.55555555555556,1.074074074059753,1.0420168067226625,0.6921177506446838,0.9805266719775168,1
440,374.9138888888889,0.8611111111110858,1.0,0.8375000000000057,1.0281923714759165,0.03364513775852065,0.9674653369352189,72.22222222222223,0.9629629629501235,1.1940298507462606,3.2843221561051905e-05,0.9976469157499074,0
441,375.9138888888889,1.0,0.8611111111110858,0.8513888888888914,1.1745513866231614,0.03626597393218079,1.0428274344246247,63.888888888888886,0.8518518518404937,1.011419249592137,0.8383552432060242,0.217709603615226,1
442,376.775,0.8611111111110858,0.8277777777777828,0.8513888888888914,1.011419249592137,0.033610960966767536,0.9664825838971394,63.888888888888886,0.8518518518404937,0.9722675367047339,0.9388864040374756,0.24144361130832626,1
443,377.60277777777776,0.8277777777777828,0.8166666666666629,0.8513888888888914,0.9722675367047339,0.03029438337750632,0.871114454395164,125.0,1.6666666666444443,0.9592169657422439,0.7663402557373047,0.2597147162914822,1
444,378.4194444444444,0.8166666666666629,0.8277777777777828,0.8375000000000057,0.9751243781094416,0.030176773665629892,0.8677325892251049,127.77777777777777,1.7037037036809874,0.9883913764510772,0.8255228996276855,0.2483968740513791,1
445,379.2472222222222,0.8277777777777828,0.8666666666666742,0.8305555555555486,0.9966555183946633,0.036206178338909954,1.0411080132052433,111.11111111111111,1.4814814814617283,1.0434782608695832,0.9522443413734436,0.20498435954419697,1
446,380.1138888888889,0.8666666666666742,0.8944444444444457,0.8444444444444343,1.0263157894737054,0.029832336991465983,0.8578283187948719,75.0,0.9999999999866667,1.0592105263158036,0.8999637365341187,0.26611364767320517,1
447,381.0083333333333,0.8944444444444457,0.7583333333333258,0.8611111111110858,1.0387096774193867,0.03199109777834154,0.9199034467681012,125.0,1.6666666666444443,0.8806451612903397,0.7459955215454102,0.22737786892961726,1
448,381.76666666666665,0.7583333333333258,0.8472222222222285,0.8444444444444343,0.8980263157894754,0.03172978947870657,0.9123895312667062,66.66666666666667,0.8888888888770371,1.00328947368423,4.474174784263596e-05,0.9911806383351003,0
449,382.6138888888889,0.8472222222222285,0.8277777777777828,0.8541666666666572,0.9918699186992054,0.03308446528603657,0.9513432099760347,66.66666666666667,0.8888888888770371,0.9691056910569272,5.7181779311576975e-08,0.9984610541429304,0
450,383.44166666666666,0.8277777777777828,0.8444444444444343,0.8375000000000057,0.9883913764510772,0.03314677166879448,0.9531348289023929,69.44444444444444,0.9259259259135801,1.008291873963497,1.2075718132109614e-06,0.9960954497043828,0
451,384.2861111111111,0.8444444444444343,0.9333333333333371,0.8361111111111086,1.009966777408629,0.034339936588108626,0.9874442649037719,69.44444444444444,0.9259259259135801,1.1162790697674498,7.584066224808339e-06,0.9969830920486271,0
452,385.21944444444443,0.9333333333333371,0.7333333333333485,0.8361111111111086,1.1162790697674498,0.036093966184039865,1.0378813546907562,58.333333333333336,0.7777777777674074,0.8770764119601536,0.8458741903305054,0.22281584191515952,1
453,385.9527777777778,0.7333333333333485,0.875,0.8361111111111086,0.8770764119601536,0.03810710899382859,1.0957692403267043,75.0,0.9999999999866667,1.04651162790698,0.05405811220407486,0.996537653625984,0
454,386.8277777777778,0.875,0.8694444444444116,0.8458333333333314,1.034482758620692,0.035875877302592195,1.0316102127894822,75.0,0.9999999999866667,1.0279146141214741,1.2227049410284963e-05,0.9986969709525477,0
455,387.6972222222222,0.8694444444444116,0.8638888888889369,0.8569444444444514,1.0145867098865013,0.030831161683860964,0.8865495050329161,125.0,1.6666666666444443,1.0081037277147966,0.4801369607448578,0.9891841099182093,0
456,388.56111111111113,0.8638888888889369,0.8361111111111086,0.8555555555555827,1.0097402597402838,0.032816567916839505,0.9436398258967509,66.66666666666667,0.8888888888770371,0.9772727272726933,2.283824613869001e-07,0.9938031378798762,0
457,389.39722222222224,0.8361111111111086,0.8249999999999886,0.8458333333333314,0.988505747126436,0.03556813711074968,1.0227611490547373,69.44444444444444,0.9259259259135801,0.9753694581280675,0.0001921606162795797,0.9880646282132501,0
458,390.22222222222223,0.8249999999999886,0.8249999999999886,0.8458333333333314,0.9753694581280675,0.030938425153503996,0.8896338641918485,63.888888888888886,0.8518518518404937,0.9753694581280675,3.298091399983605e-08,0.994838614412056,0
459,391.0472222222222,0.8249999999999886,0.8805555555555884,0.8402777777777715,0.9818181818181757,0.03284053802249971,0.9443290858580377,66.66666666666667,0.8888888888770371,1.0479338842975676,5.627657060358615e-07,0.9963187528514701,0
460,391.9277777777778,0.8805555555555884,0.8777777777777374,0.8541666666666856,1.030894308943105,0.038835659227823636,1.1167186893277787,77.77777777777777,1.0370370370232098,1.027642276422694,0.0038280279841274023,0.9919891759003711,0
461,392.80555555555554,0.8777777777777374,0.86388888888888,0.8666666666666742,1.0128205128204573,0.031151714784556722,0.8957670037335036,75.0,0.9999999999866667,0.9967948717948528,3.2233202773568337e-07,0.9965361485679638,0
462,393.6694444444444,0.86388888888888,0.966666666666697,0.8638888888889085,0.9999999999999671,0.02958298520502201,0.8506582126173061,63.888888888888886,0.8518518518404937,1.1189710610932573,2.3928198089606667e-08,0.9946507799205209,0
463,394.6361111111111,0.966666666666697,0.8222222222221944,0.8666666666666742,1.1153846153846405,0.04053236369132436,1.1655073959528395,58.333333333333336,0.7777777777674074,0.9487179487179084,0.8720068335533142,0.1968977390462826,1
464,395.4583333333333,0.8222222222221944,0.8361111111111086,0.8638888888889085,0.951768488745927,0.03645038317758689,1.048130118991449,61.111111111111114,0.8148148148039506,0.9678456591639623,0.9729576110839844,0.1989811598532888,1
465,396.2944444444444,0.8361111111111086,0.7305555555555543,0.8499999999999943,0.9836601307189579,0.03340769448167922,0.9606376597391515,66.66666666666667,0.8888888888770371,0.8594771241830108,0.921535849571228,0.22078279906923187,1
466,397.025,0.7305555555555543,0.8472222222222285,0.8361111111111086,0.8737541528239214,0.0332108070458353,0.9549761650285583,86.11111111111111,1.1481481481328395,1.013289036544861,0.0634489431977272,0.9960660814687945,0
467,397.8722222222222,0.8472222222222285,0.9777777777778169,0.8416666666666686,1.0066006600660118,0.0301525697626165,0.8670366064250918,122.22222222222223,1.6296296296079011,1.1617161716172055,0.6870184540748596,0.9888966121375957,1
468,398.85,0.9777777777778169,0.7777777777777715,0.8555555555555543,1.1428571428571903,0.02726315044977597,0.7839514055527473,72.22222222222223,0.9629629629501235,0.9090909090909031,0.14522650837898254,0.26749823249795746,0
469,399.6277777777778,0.7777777777777715,0.86388888888888,0.8555555555555543,0.9090909090909031,0.03789192971059793,1.0895817638703327,77.77777777777777,1.0370370370232098,1.009740259740251,0.14710646867752075,0.9892800216688294,0
470,400.4916666666667,0.86388888888888,0.8277777777777828,0.8555555555555543,1.009740259740251,0.034907039647532355,1.0037513032758596,72.22222222222223,0.9629629629501235,0.9675324675324749,2.1407649910543114e-06,0.9978980671000174,0
471,401.31944444444446,0.8277777777777828,0.8166666666666629,0.8416666666666686,0.9834983498349873,0.02956655909274438,0.8501858800513565,61.111111111111114,0.8148148148039506,0.9702970297029636,3.809672932675312e-07,0.9833741756290681,0
472,402.1361111111111,0.8166666666666629,0.8305555555555202,0.8319444444444457,0.9816360601001609,0.03735604053947052,1.0741722803002016,66.66666666666667,0.8888888888770371,0.9983305509181529,7.974324398674071e-05,0.9932186456055823,0
473,402.96666666666664,0.8305555555555202,0.8583333333333485,0.8291666666666515,1.0016750418760225,0.040443885733905754,1.1629632138632995,75.0,0.9999999999866667,1.035175879397022,0.012222619727253914,0.9891149922166262,0
474,403.825,0.8583333333333485,0.8888888888889142,0.8333333333333144,1.0300000000000415,0.03475255182564386,0.9993090087093025,72.22222222222223,0.9629629629501235,1.0666666666667213,1.2887041521025822e-05,0.9956139107737345,0
475,404.7138888888889,0.8888888888889142,0.98888888888888,0.8388888888888744,1.059602649006671,0.03719606573592749,1.0695722076739065,75.0,0.9999999999866667,1.1788079470198773,0.0013306064065545797,0.9945472367399277,0
476,405.7027777777778,0.98888888888888,0.7305555555555543,0.8527777777777885,1.1596091205211476,0.03415582056533337,0.9821500119484745,150.0,1.9999999999733333,0.8566775244299552,0.772987425327301,0.23188487500613209,1
477,406.43333333333334,0.7305555555555543,0.8444444444444343,0.8444444444444343,0.8651315789473772,0.039418957129559104,1.1334914101020663,72.22222222222223,0.9629629629501235,1.0,0.464591383934021,0.9799735830254264,0
478,407.27777777777777,0.8444444444444343,0.9305555555555429,0.8374999999999773,1.0082918739635311,0.03632401105480092,1.044496290851768,69.44444444444444,0.9259259259135801,1.1111111111111263,0.00011999450362054631,0.9941395128066339,0
479,408.2083333333333,0.9305555555555429,0.8277777777777828,0.8513888888888914,1.0929853181076492,0.037185257248387886,1.0692614098072335,108.33333333333333,1.4444444444251852,0.9722675367047339,0.8853447437286377,0.22716686819328646,1
480,409.0361111111111,0.8277777777777828,0.7277777777778169,0.8374999999999773,0.9883913764511109,0.02926795104137906,0.841599410853365,69.44444444444444,0.9259259259135801,0.8689883913765214,0.7008212804794312,0.27276550846923897,1
481,409.7638888888889,0.7277777777778169,0.8805555555555316,0.8374999999999773,0.8689883913765214,0.030766165077530393,0.8846805287756462,130.55555555555554,1.7407407407175306,1.0514096185737976,0.8630209565162659,0.9869590430093172,1
482,410.64444444444445,0.8805555555555316,0.8833333333333258,0.8513888888888914,1.0342577487764777,0.03890495409699114,1.118711262056361,75.0,0.9999999999866667,1.037520391517117,0.014763522893190384,0.982624833839199,0
483,411.52777777777777,0.8833333333333258,0.98888888888888,0.86944444444444,1.0159744408945652,0.035219476320573366,1.0127354142438103,72.22222222222223,0.9629629629501235,1.1373801916932864,6.604030204471201e-05,0.9950795243897376,0
484,412.51666666666665,0.98888888888888,0.7194444444444343,0.8819444444444287,1.1212598425196951,0.03242317648126981,0.9323278621743114,63.888888888888886,0.8518518518404937,0.8157480314960661,0.49532756209373474,0.2417273651510542,0
485,413.2361111111111,0.7194444444444343,0.8166666666667197,0.862499999999983,0.8341384863124042,0.02786459629250348,0.8012459700469973,66.66666666666667,0.8888888888770371,0.9468599033817228,8.094454642559867e-06,0.9900734074782045,0
486,414.0527777777778,0.8166666666667197,0.9444444444444002,0.8361111111111086,0.976744186046578,0.028907931026694644,0.8312470417440463,125.0,1.6666666666444443,1.129568106312243,0.6157426238059998,0.9910366567525388,1
487,414.9972222222222,0.9444444444444002,0.86388888888888,0.862499999999983,1.095008051529761,0.038563333721290005,1.1088879742382591,119.44444444444444,1.592592592571358,1.0016103059581416,0.8938561081886292,0.1961803062711801,1
488,415.8611111111111,0.86388888888888,0.8777777777777942,0.8722222222222058,0.99044585987262,0.0396167200925567,1.1391780805803682,111.11111111111111,1.4814814814617283,1.00636942675163,0.9048299789428711,0.19884210425186066,1
489,416.7388888888889,0.8777777777777942,0.8694444444444684,0.8708333333333371,1.0079744816587066,0.03457666792136247,0.99425147017466,63.888888888888886,0.8518518518404937,0.9984051036682848,0.9387465119361877,0.23331004456249071,1
490,417.60833333333335,0.8694444444444684,0.7527777777777374,0.8736111111111313,0.9952305246422938,0.03725436428964584,1.0712485815476225,144.44444444444446,1.925925925900247,0.8616852146263249,0.7683223485946655,0.21259521656169966,1
491,418.3611111111111,0.7527777777777374,0.830555555555577,0.8736111111111313,0.8616852146263249,0.03288518620066026,0.9456129434257393,66.66666666666667,0.8888888888770371,0.9507154213036592,9.595242772775237e-06,0.9981553213760592,0
492,419.19166666666666,0.830555555555577,0.830555555555577,0.8666666666666742,0.9583333333333497,0.0345910405080269,0.994664753648181,72.22222222222223,0.9629629629501235,0.9583333333333497,5.899348252569325e-06,0.9989752508042153,0
493,420.02222222222224,0.830555555555577,0.8249999999999886,0.8472222222222285,0.980327868852477,0.033047469789495604,0.9502794051319893,66.66666666666667,0.8888888888770371,0.973770491803258,1.1935811983221356e-07,0.9980134396177929,0
494,420.84722222222223,0.8249999999999886,0.8388888888889028,0.830555555555577,0.9933110367892583,0.032689274288403875,0.9399794998785287,69.44444444444444,0.9259259259135801,1.0100334448160442,6.385917004081421e-07,0.9964831579884564,0
495,421.68611111111113,0.8388888888889028,0.98888888888888,0.8347222222222399,1.0049916805324413,0.039388799050639495,1.1326242150799302,75.0,0.9999999999866667,1.1846921797004635,0.013072519563138485,0.9955037909763885,0
496,422.675,0.98888888888888,0.7916666666666288,0.8513888888888914,1.1615008156606714,0.035692064052685574,1.0263246660626293,66.66666666666667,0.8888888888770371,0.9298531810766248,0.7763447165489197,0.228850061631302,1
497,423.46666666666664,0.7916666666666288,0.8722222222222626,0.8347222222222399,0.94841930116466,0.03290256069921618,0.9461125468222279,69.44444444444444,0.9259259259135801,1.0449251247920397,3.7049944694445003e-06,0.9976839813669933,0
498,424.3388888888889,0.8722222222222626,0.8249999999999886,0.8347222222222399,1.0449251247920397,0.03308581403017809,0.9513819930897992,66.66666666666667,0.8888888888770371,0.9883527454242583,9.912269405276675e-08,0.9951459890952505,0
499,425.1638888888889,0.8249999999999886,0.9333333333333371,0.830555555555577,0.9933110367892583,0.038552751454218666,1.1085836813371215,69.44444444444444,0.9259259259135801,1.1237458193979688,0.0020964504219591618,0.9926540819750087,0
500,426.09722222222223,0.9333333333333371,0.8249999999999886,0.830555555555577,1.1237458193979688,0.03671513938269392,1.0557431789532763,63.888888888888886,0.8518518518404937,0.9933110367892583,0.9303323030471802,0.20308636864127833,1
501,426.9222222222222,0.8249999999999886,0.7416666666666742,0.830555555555577,0.9933110367892583,0.0327822850362249,0.9426540222753489,66.66666666666667,0.8888888888770371,0.8929765886287486,0.9416183829307556,0.21603514815192398,1
502,427.6638888888889,0.7416666666666742,0.9861111111110858,0.8277777777777828,0.8959731543624198,0.04060912245287807,1.1677145927740349,77.77777777777777,1.0370370370232098,1.1912751677851972,0.6101276874542236,0.9908439745640544,1
503,428.65,0.9861111111110858,0.7555555555555884,0.8319444444444457,1.1853088480801013,0.03537186438388871,1.0171173302899987,147.22222222222223,1.9629629629367902,0.9081803005008728,0.8251676559448242,0.220402033932531,1
504,429.40555555555557,0.7555555555555884,0.9805555555555543,0.8319444444444457,0.9081803005008728,0.03203256379764559,0.9210958014145669,63.888888888888886,0.8518518518404937,1.1786310517529182,3.208751149941236e-05,0.9982298090296953,0
505,430.3861111111111,0.9805555555555543,0.7472222222222058,0.8486111111111256,1.1554828150572618,0.03231255743584164,0.9291470134934493,69.44444444444444,0.9259259259135801,0.880523731587527,0.670926034450531,0.22847777647095419,1
506,431.1333333333333,0.7472222222222058,0.8194444444444571,0.8249999999999886,0.9057239057238983,0.032298549295409824,0.9287442096648554,66.66666666666667,0.8888888888770371,0.9932659932660223,2.4136772935889894e-06,0.9978143506198505,0
507,431.9527777777778,0.8194444444444571,0.8111111111111313,0.8249999999999886,0.9932659932660223,0.03158843819263981,0.9083249775537059,72.22222222222223,0.9629629629501235,0.9831649831650212,3.10530367642059e-06,0.9931499488331357,0
508,432.7638888888889,0.8111111111111313,0.9583333333333144,0.8222222222222229,0.9864864864865103,0.04095595523128251,1.1776877631390232,77.77777777777777,1.0370370370232098,1.1655405405405166,0.3465610146522522,0.9815674782176449,0
509,433.72222222222223,0.9583333333333144,0.7527777777777942,0.8222222222222229,1.1655405405405166,0.03392118826359896,0.9754031642915385,66.66666666666667,0.8888888888770371,0.9155405405405598,0.8219829201698303,0.2421136758305904,1
510,434.475,0.7527777777777942,1.0138888888888573,0.8152777777777942,0.9233390119250441,0.03708924719043591,1.0665006423010237,77.77777777777777,1.0370370370232098,1.243611584327023,0.3814326226711273,0.9927047312496919,0
511,435.4888888888889,1.0138888888888573,0.7527777777777942,0.8152777777777942,1.243611584327023,0.02747114762340529,0.7899323605754653,155.55555555555554,2.0740740740464196,0.9233390119250441,0.4466153383255005,0.28733361271158037,0
512,436.2416666666667,0.7527777777777942,0.9416666666666629,0.8152777777777942,0.9233390119250441,0.036226759567075745,1.0416998260545431,75.0,0.9999999999866667,1.1550255536626637,0.016948629170656204,0.9969359839574494,0
513,437.18333333333334,0.9416666666666629,0.7138888888889028,0.8152777777777942,1.1550255536626637,0.03438123900854791,0.9886319152677957,116.66666666666667,1.5555555555348148,0.8756388415672908,0.8317996263504028,0.2095998219843096,1
514,437.89722222222224,0.7138888888889028,0.8444444444444343,0.8152777777777942,0.8756388415672908,0.0369080903819002,1.061291481498473,66.66666666666667,0.8888888888770371,1.0357751277682803,0.0032160349655896425,0.994211013768612,0
515,438.7416666666667,0.8444444444444343,0.8388888888889028,0.8152777777777942,1.0357751277682803,0.033259677894443014,0.9563814454097508,77.77777777777777,1.0370370370232098,1.0289608177172025,0.0006082443287596107,0.9882568477367983,0
516,439.5805555555556,0.8388888888889028,0.8555555555555543,0.8291666666666799,1.0117252931323288,0.03925338330999262,1.1287303378697504,75.0,0.9999999999866667,1.031825795644873,0.008976091630756855,0.987728066057102,0
517,440.43611111111113,0.8555555555555543,0.875,0.8416666666666686,1.0165016501650128,0.045148186260333276,1.2982352917043873,83.33333333333333,1.1111111110962961,1.0396039603960372,0.6863212585449219,0.9549540841859714,1
518,441.31111111111113,0.875,0.8666666666666742,0.8499999999999943,1.0294117647058891,0.04625965262758179,1.3301954872963917,83.33333333333333,1.1111111110962961,1.0196078431372706,0.651378870010376,0.9520937932317652,1
