beat_index,peak_time_s,rr_prev_s,rr_next_s,rr_baseline_s,prematurity_index,aa_ratio,morph_index,qrs_width_ms,width_index,pause_index,pvc_score,morphology_score,is_pvc_candidate
0,0.24444444444444444,,0.9833333333333334,1.02222222222224,,0.04277561107557126,1.114128128051991,91.66666666666667,1.374999999979375,0.9619565217391138,0.7354110479354858,0.33797402618915995,1
1,1.2277777777777779,0.9833333333333334,0.9666666666666668,1.02222222222224,0.9619565217391138,0.04330910341654473,1.1280234017426172,86.11111111111111,1.2916666666472916,0.9456521739130272,0.4722974896430969,0.34404007817003107,0
2,2.1944444444444446,0.9666666666666668,1.0138888888888888,1.02222222222224,0.9456521739130272,0.043765587120209185,1.1399129182559269,83.33333333333333,1.2499999999812497,0.9918478260869393,0.6391270756721497,0.333802085293138,1
3,3.2083333333333335,1.0138888888888888,0.9388888888888887,1.02222222222224,0.9918478260869393,0.0440080232507229,1.1462273788906148,86.11111111111111,1.2916666666472916,0.9184782608695491,0.39177045226097107,0.3363979574686387,0
4,4.147222222222222,0.9388888888888887,0.9083333333333332,1.02222222222224,0.9184782608695491,0.044353844645460716,1.1552345989740143,83.33333333333333,1.2499999999812497,0.8885869565217236,0.5785054564476013,0.3313278512576067,1
5,5.055555555555555,0.9083333333333332,0.9361111111111109,0.9666666666666668,0.9396551724137928,0.04344893258279811,1.1316653744305052,105.55555555555556,1.5833333333095831,0.9683908045977008,0.7835860848426819,0.29932070772890285,1
6,5.991666666666666,0.9361111111111109,1.0,0.9527777777777777,0.9825072886297375,0.045989766205402724,1.1978436039511278,105.55555555555556,1.5833333333095831,1.0495626822157436,0.835746705532074,0.2952407775815364,1
7,6.991666666666666,1.0,1.033333333333334,0.9666666666666668,1.0344827586206895,0.04441241473034991,1.1567601079590797,119.44444444444444,1.7916666666397913,1.06896551724138,0.7976920008659363,0.292289239992263,1
8,8.025,1.033333333333334,0.9694444444444432,0.9750000000000001,1.0598290598290605,0.04518110194085028,1.1767812373213058,94.44444444444444,1.4166666666454164,0.994301994301993,0.44496631622314453,0.3196589868072698,0
9,8.994444444444444,0.9694444444444432,0.9861111111111125,0.9694444444444432,1.0,0.04502905980608145,1.1728211672080873,88.88888888888889,1.333333333313333,1.0171919770773665,0.6574891805648804,0.33401652107695334,1
10,9.980555555555556,0.9861111111111125,0.9194444444444443,0.9763888888888883,1.0099573257468015,0.04610642310801909,1.2008820348061935,91.66666666666667,1.374999999979375,0.9416785206258894,0.531098484992981,0.30839004547665977,1
11,10.9,0.9194444444444443,0.5083333333333329,0.968055555555555,0.9497847919655671,0.04383152370285098,1.1416302941049608,86.11111111111111,1.2916666666472916,0.5251076040172165,0.7509564161300659,0.3584279776666852,1
12,11.408333333333333,0.5083333333333329,1.3777777777777782,0.9541666666666659,0.5327510917030567,0.034563611060536334,0.9002394196440633,47.22222222222222,0.7083333333227082,1.443959243085882,0.9672800898551941,0.9434512083121531,1
13,12.786111111111111,1.3777777777777782,1.0222222222222221,0.9541666666666659,1.443959243085882,0.04915166549140177,1.2801980307850405,91.66666666666667,1.374999999979375,1.0713245997088798,0.06450554728507996,0.2982459979833758,0
14,13.808333333333334,1.0222222222222221,1.049999999999999,0.9777777777777779,1.0454545454545452,0.046701077928362394,1.2163703386589593,94.44444444444444,1.4166666666454164,1.0738636363636351,0.6845118999481201,0.3010057515998247,1
15,14.858333333333333,1.049999999999999,1.0166666666666675,0.9930555555555562,1.0573426573426554,0.04454295518631584,1.1601601480796855,119.44444444444444,1.7916666666397913,1.0237762237762238,0.6501728296279907,0.3091471001763845,1
16,15.875,1.0166666666666675,1.1083333333333343,1.0083333333333337,1.0082644628099178,0.04439122308798859,1.1562081531362098,108.33333333333333,1.6249999999756248,1.0991735537190088,0.7576562762260437,0.32583468737879057,1
17,16.983333333333334,1.1083333333333343,1.0138888888888893,1.0194444444444448,1.0871934604904638,0.03915793899360691,1.0199027009163235,77.77777777777777,1.1666666666491665,0.9945504087193461,0.017580293118953705,0.4534520994069165,0
18,17.997222222222224,1.0138888888888893,1.1305555555555529,1.0152777777777784,0.9986320109439122,0.039921874281149454,1.0398000622972974,86.11111111111111,1.2916666666472916,1.1135430916552636,0.6264144778251648,0.3477884648066788,1
19,19.127777777777776,1.1305555555555529,1.1138888888888907,1.0194444444444448,1.108991825613076,0.04031464363495855,1.0500300829542186,113.88888888888889,1.708333333307708,1.0926430517711185,0.5842787623405457,0.311031320365838,1
20,20.241666666666667,1.1138888888888907,1.1111111111111107,1.0361111111111105,1.0750670241286886,0.04138850709681303,1.0779997941624502,77.77777777777777,1.1666666666491665,1.0723860589812335,0.11282351613044739,0.3738229593885305,0
21,21.352777777777778,1.1111111111111107,1.0249999999999986,1.0791666666666666,1.0296010296010294,0.04259915610741088,1.1095322043838363,83.33333333333333,1.2499999999812497,0.9498069498069486,0.16861701011657715,0.3601478806329207,0
22,22.377777777777776,1.0249999999999986,1.0472222222222243,1.0791666666666666,0.9498069498069486,0.03920252078629879,1.0210638726211356,83.33333333333333,1.2499999999812497,0.9703989703989724,0.3255869448184967,0.39649149438816134,0
23,23.425,1.0472222222222243,1.0277777777777786,1.0486111111111116,0.9986754966887432,0.043845647465402204,1.1419981598288296,86.11111111111111,1.2916666666472916,0.9801324503311262,0.4561581611633301,0.30209871929579846,0
24,24.45277777777778,1.0277777777777786,1.091666666666665,1.0486111111111116,0.9801324503311262,0.040578359644059245,1.0568987966012924,83.33333333333333,1.2499999999812497,1.0410596026490047,0.4010980427265167,0.40063713751547253,0
25,25.544444444444444,1.091666666666665,1.0833333333333321,1.0694444444444446,1.020779220779219,0.043470333759847365,1.132222786767219,83.33333333333333,1.2499999999812497,1.0129870129870118,0.28330832719802856,0.3640361183346156,0
26,26.627777777777776,1.0833333333333321,1.0444444444444443,1.0874999999999986,0.9961685823754791,0.045364983693936836,1.1815705980854876,91.66666666666667,1.374999999979375,0.9604086845466167,0.3657877743244171,0.2891923252724794,0
27,27.67222222222222,1.0444444444444443,0.33611111111111214,1.0652777777777782,0.9804432855280307,0.041016354128907785,1.0683067452718396,83.33333333333333,1.2499999999812497,0.315514993481096,0.4492223858833313,0.39039773356263396,0
28,28.008333333333333,0.33611111111111214,0.4527777777777793,1.0652777777777782,0.315514993481096,0.02155486355503203,0.56141523590527,22.22222222222222,0.33333333332833326,0.4250325945241212,0.43039149045944214,0.47547249328985935,0
29,28.461111111111112,0.4527777777777793,0.219444444444445,1.0458333333333343,0.4329349269588324,0.030921856806305832,0.805386751311095,69.44444444444444,1.0416666666510415,0.20982735723771614,0.9885494112968445,0.8580040800382596,1
30,28.680555555555557,0.219444444444445,1.030555555555555,1.0361111111111114,0.21179624664879404,0.03791564266939801,0.9875460087879165,77.77777777777777,1.1666666666491665,0.9946380697050929,0.5166184902191162,0.33474383801881813,1
31,29.711111111111112,1.030555555555555,0.5,1.0291666666666668,1.0013495276653166,0.04322218769400324,1.1257596058828139,86.11111111111111,1.2916666666472916,0.48582995951416996,0.3398977816104889,0.36604956307821446,0
32,30.211111111111112,0.5,0.219444444444445,1.0291666666666668,0.48582995951416996,0.03590676802121348,0.9352231150876062,63.888888888888886,0.9583333333189582,0.21322537112010848,0.8690989017486572,0.9657541494569551,1
33,30.430555555555557,0.219444444444445,1.1749999999999972,0.7638888888888893,0.28727272727272785,0.027666881906185093,0.720608088864382,69.44444444444444,1.0416666666510415,1.5381818181818137,0.38370954990386963,0.31114778478038374,0
34,31.605555555555554,1.1749999999999972,1.0249999999999986,0.7652777777777775,1.5353901996370205,0.046688345392896284,1.216038708658884,77.77777777777777,1.1666666666491665,1.3393829401088915,0.0024782372638583183,0.985187950951284,0
35,32.63055555555555,1.0249999999999986,0.9777777777777814,0.7624999999999993,1.3442622950819667,0.04612774415608942,1.201437360113709,83.33333333333333,1.2499999999812497,1.2823315118397145,0.01874113269150257,0.9823293630048864,0
36,33.608333333333334,0.9777777777777814,0.2083333333333357,0.7388888888888907,1.3233082706766934,0.04468511326972283,1.1638627794476835,77.77777777777777,1.1666666666491665,0.2819548872180476,0.00024364575801882893,0.9827719790013623,0
37,33.81666666666667,0.2083333333333357,0.93055555555555,0.47638888888888964,0.43731778425656403,0.04185428076726415,1.0901312759696609,88.88888888888889,1.333333333313333,1.9533527696792856,0.6061508059501648,0.3446008511692319,1
38,34.74722222222222,0.93055555555555,0.7611111111111128,0.715277777777775,1.300970873786405,0.043776518988672984,1.1401976483121772,88.88888888888889,1.333333333313333,1.064077669902919,0.8789694905281067,0.3673492188393708,1
39,35.50833333333333,0.7611111111111128,1.0333333333333314,0.8458333333333314,0.8998357963875246,0.04479147648422923,1.1666331022108638,77.77777777777777,1.1666666666491665,1.2216748768472911,0.2800314426422119,0.9873069357944936,0
40,36.541666666666664,1.0333333333333314,0.22500000000000142,0.9541666666666657,1.0829694323144097,0.04712431807077979,1.22739399760225,77.77777777777777,1.1666666666491665,0.23580786026201045,0.0001870245614554733,0.9800279186080167,0
41,36.766666666666666,0.22500000000000142,1.1333333333333329,0.8458333333333314,0.26600985221675105,0.045881227881035345,1.195016628553028,91.66666666666667,1.374999999979375,1.3399014778325147,0.8779358863830566,0.30677978039476983,1
42,37.9,1.1333333333333329,0.9861111111111143,0.9541666666666657,1.187772925764193,0.04217843165074392,1.0985740686717846,83.33333333333333,1.2499999999812497,1.0334788937409067,0.07773257791996002,0.3495462467715376,0
43,38.88611111111111,0.9861111111111143,1.3027777777777771,0.9819444444444478,1.004243281471004,0.04359685937395044,1.135518256827068,83.33333333333333,1.2499999999812497,1.3267326732673215,0.20741529762744904,0.9886944658993033,0
44,40.18888888888889,1.3027777777777771,0.8583333333333343,0.9819444444444478,1.3267326732673215,0.042991706077622524,1.1197565110034682,83.33333333333333,1.2499999999812497,0.8741159830268721,0.006898968480527401,0.346030285410278,0
45,41.047222222222224,0.8583333333333343,1.2361111111111072,0.9541666666666657,0.8995633187772945,0.04409944113389957,1.1486084374539667,77.77777777777777,1.1666666666491665,1.2954876273653537,0.3987065255641937,0.9853721488544,0
46,42.28333333333333,1.2361111111111072,1.1055555555555543,0.9583333333333321,1.2898550724637656,0.04420451430972157,1.1513451600335747,86.11111111111111,1.2916666666472916,1.1536231884057973,0.09954481571912766,0.32930822432244916,0
47,43.388888888888886,1.1055555555555543,1.1055555555555614,1.0097222222222229,1.0949105914718,0.0439677563634989,1.1451785926650693,91.66666666666667,1.374999999979375,1.0949105914718071,0.3974074721336365,0.31417383029860935,0
48,44.49444444444445,1.1055555555555614,1.0666666666666629,1.0694444444444429,1.0337662337662408,0.04431178148789058,1.1541390273193912,111.11111111111111,1.6666666666416665,0.9974025974025953,0.46792471408843994,0.2992993157963078,0
49,45.56111111111111,1.0666666666666629,0.8666666666666671,1.0861111111111086,0.9820971867007661,0.0427915711528585,1.114543822196025,86.11111111111111,1.2916666666472916,0.7979539641943757,0.196073517203331,0.3867085147044097,0
50,46.42777777777778,0.8666666666666671,1.2416666666666671,1.0861111111111086,0.7979539641943757,0.04449449167243365,1.1588978735582298,86.11111111111111,1.2916666666472916,1.143222506393865,0.6749415397644043,0.9808438515076305,1
51,47.669444444444444,1.2416666666666671,1.0361111111111114,1.1055555555555578,1.1231155778894453,0.04312142837513946,1.1231352414731233,122.22222222222223,1.8333333333058333,0.9371859296482395,0.21389876306056976,0.3105254055332912,0
52,48.705555555555556,1.0361111111111114,0.8888888888888857,1.0861111111111086,0.9539641943734041,0.042568770474023986,1.1087407840395376,113.88888888888889,1.708333333307708,0.8184143222506384,0.4504181444644928,0.30918153409748883,0
53,49.59444444444444,0.8888888888888857,0.21666666666666856,1.0861111111111086,0.8184143222506384,0.04116544342551884,1.072189906137792,108.33333333333333,1.6249999999756248,0.19948849104859556,0.7233351469039917,0.9794630686358241,1
54,49.81111111111111,0.21666666666666856,0.8861111111111128,1.0513888888888872,0.20607661822985684,0.04319625392375896,1.1250841381999668,113.88888888888889,1.708333333307708,0.8428005284015883,0.6826744675636292,0.3200722053106729,1
55,50.69722222222222,0.8861111111111128,1.2055555555555557,1.0513888888888872,0.8428005284015883,0.04848599047216005,1.2628599438604962,72.22222222222223,1.0833333333170834,1.1466314398943218,0.19512821733951569,0.9842408649172307,0
56,51.90277777777778,1.2055555555555557,1.0,1.0513888888888872,1.1466314398943218,0.03351665788315089,0.8729706102840336,55.55555555555556,0.8333333333208333,0.9511228533685617,7.113577993322906e-08,0.7093172936946474,0
57,52.90277777777778,1.0,1.0333333333333314,1.0180555555555557,0.9822646657571622,0.030974308816866043,0.8067529097099726,50.0,0.7499999999887499,1.015006821282399,3.228290097467834e-06,0.7248007516647743,0
58,53.93611111111111,1.0333333333333314,1.06666666666667,1.0166666666666657,1.01639344262295,0.03575522958099015,0.9312761641384858,55.55555555555556,0.8333333333208333,1.0491803278688567,0.00023197509290184826,0.5613816558715743,0
59,55.00277777777778,1.06666666666667,1.0694444444444429,1.0166666666666657,1.0491803278688567,0.04370172707206739,1.1382496275604923,113.88888888888889,1.708333333307708,1.0519125683060104,0.609322726726532,0.3305623361882467,1
60,56.07222222222222,1.0694444444444429,0.9083333333333314,1.0347222222222214,1.033557046979865,0.041170714975459,1.0723272082573663,86.11111111111111,1.2916666666472916,0.8778523489932875,0.1831754446029663,0.637434567933302,0
61,56.980555555555554,0.9083333333333314,1.1833333333333371,1.0166666666666657,0.8934426229508187,0.041052115210865284,1.0692381738662324,58.333333333333336,0.8749999999868749,1.163934426229513,0.06712935119867325,0.9720294741193667,0
62,58.16388888888889,1.1833333333333371,1.0222222222222186,1.0166666666666657,1.163934426229513,0.028610663207417873,0.7451896966542809,66.66666666666667,0.999999999985,1.0054644808743143,4.798318968823878e-07,0.6633898964706769,0
63,59.18611111111111,1.0222222222222186,1.0277777777777786,1.027777777777775,0.9945945945945938,0.031309520530311954,0.8154837913832417,50.0,0.7499999999887499,1.0000000000000036,2.361171482334612e-06,0.6362917989635708,0
64,60.21388888888889,1.0277777777777786,1.0472222222222243,1.030555555555555,0.9973045822102439,0.04377991645180816,1.1402861382050797,83.33333333333333,1.2499999999812497,1.016172506738547,0.5287814736366272,0.3322212102589389,1
65,61.26111111111111,1.0472222222222243,1.0361111111111114,1.0402777777777779,1.0066755674232328,0.04638494761656713,1.2081364487472828,108.33333333333333,1.6249999999756248,0.9959946595460616,0.5878838896751404,0.30631864948253773,1
66,62.297222222222224,1.0361111111111114,1.0194444444444457,1.0347222222222214,1.0013422818791957,0.044573118102957554,1.160945767571953,91.66666666666667,1.374999999979375,0.985234899328861,0.40240103006362915,0.3583755143666115,0
67,63.31666666666667,1.0194444444444457,1.0972222222222214,1.0347222222222214,0.985234899328861,0.0428516395884624,1.116108357033322,86.11111111111111,1.2916666666472916,1.0604026845637584,0.47609537839889526,0.40828837606409707,0
68,64.41388888888889,1.0972222222222214,0.9694444444444485,1.0416666666666679,1.0533333333333315,0.04337378703961443,1.1297081431659237,83.33333333333333,1.2499999999812497,0.9306666666666695,0.12256529182195663,0.3789909850469324,0
69,65.38333333333334,0.9694444444444485,1.3861111111111057,1.031944444444445,0.9394347240915243,0.04329198539262232,1.1275775478677321,77.77777777777777,1.1666666666491665,1.3432032301480425,0.29532673954963684,0.989203821702471,0
70,66.76944444444445,1.3861111111111057,0.9388888888888829,1.031944444444445,1.3432032301480425,0.044456201226041284,1.157900565459322,86.11111111111111,1.2916666666472916,0.9098250336473692,0.00338718737475574,0.3696863050655746,0
71,67.70833333333333,0.9388888888888829,1.3194444444444429,1.031944444444445,0.9098250336473692,0.044015950232479506,1.1464338440496977,77.77777777777777,1.1666666666491665,1.2786002691790017,0.3296273350715637,0.9862542303674576,0
72,69.02777777777777,1.3194444444444429,1.0611111111111171,1.031944444444445,1.2786002691790017,0.041886372192565136,1.0909671251532982,80.55555555555556,1.2083333333152082,1.0282637954239622,0.005303011275827885,0.3697827704403197,0
73,70.08888888888889,1.0611111111111171,1.0694444444444429,1.0416666666666679,1.0186666666666713,0.04299987973475106,1.1199694010379289,88.88888888888889,1.333333333313333,1.026666666666664,0.3522389829158783,0.3838659110676582,0
74,71.15833333333333,1.0694444444444429,1.0388888888888914,1.0541666666666707,1.0144927536231831,0.04245652836350687,1.1058173402982405,83.33333333333333,1.2499999999812497,0.9855072463768102,0.24441716074943542,0.38779478330003053,0
75,72.19722222222222,1.0388888888888914,1.0972222222222285,1.0500000000000043,0.9894179894179878,0.04376888271312476,1.1399987548500405,80.55555555555556,1.2083333333152082,1.0449735449735467,0.533520519733429,0.3514954766022147,1
76,73.29444444444445,1.0972222222222285,1.11388888888888,1.06527777777778,1.029986962190356,0.04499285134118779,1.1718780861346143,86.11111111111111,1.2916666666472916,1.0456323337679165,0.3382844924926758,0.36793684875249255,0
77,74.40833333333333,1.11388888888888,1.0944444444444485,1.0833333333333321,1.0282051282051212,0.0439671307696512,1.1451622985272432,86.11111111111111,1.2916666666472916,1.010256410256415,0.24182063341140747,0.37251803631080316,0
78,75.50277777777778,1.0944444444444485,0.8083333333333371,1.0819444444444457,1.0115532734274737,0.04235465943365761,1.1031640751018859,80.55555555555556,1.2083333333152082,0.7471116816431349,0.14058314263820648,0.3659367124398494,0
79,76.31111111111112,0.8083333333333371,1.2611111111111057,1.0819444444444457,0.7471116816431349,0.04546009828701634,1.1840479406850095,80.55555555555556,1.2083333333152082,1.1655969191270796,0.5889945030212402,0.9843765462752698,1
80,77.57222222222222,1.2611111111111057,1.0750000000000028,1.0819444444444457,1.1655969191270796,0.043753612234957245,1.1396010219170105,83.33333333333333,1.2499999999812497,0.9935815147625175,0.012542416341602802,0.3796209490147608,0
81,78.64722222222223,1.0750000000000028,1.12222222222222,1.0847222222222257,0.9910371318822018,0.04398501978566717,1.1456282335641816,86.11111111111111,1.2916666666472916,1.0345710627400715,0.3337826430797577,0.4025494156692303,0
82,79.76944444444445,1.12222222222222,1.0638888888888829,1.0847222222222257,1.0345710627400715,0.043304250675825336,1.127897007874764,80.55555555555556,1.2083333333152082,0.980793854033282,0.13753259181976318,0.38306061716794104,0
83,80.83333333333333,1.0638888888888829,0.9861111111111143,1.0847222222222257,0.980793854033282,0.04332976887037617,1.1285616515259316,80.55555555555556,1.2083333333152082,0.9090909090909091,0.23090076446533203,0.3757335748381593,0
84,81.81944444444444,0.9861111111111143,0.9472222222222229,1.0847222222222257,0.9090909090909091,0.04001480620175258,1.0422205552869808,75.0,1.1249999999831248,0.8732394366197161,0.31687361001968384,0.420393214801011,0
85,82.76666666666667,0.9472222222222229,0.9833333333333343,1.0847222222222257,0.8732394366197161,0.04032701986623334,1.0503524327006233,77.77777777777777,1.1666666666491665,0.9065300896286792,0.41267088055610657,0.39693391028850694,0
86,83.75,0.9833333333333343,1.0999999999999943,1.0694444444444429,0.9194805194805217,0.044599474151722225,1.1616322338674585,86.11111111111111,1.2916666666472916,1.0285714285714247,0.5929861664772034,0.3702785999707865,1
87,84.85,1.0999999999999943,1.194444444444457,1.0694444444444429,1.0285714285714247,0.04214051458870538,1.0975864856942885,83.33333333333333,1.2499999999812497,1.1168831168831304,0.3600185811519623,0.357202815504544,0
88,86.04444444444445,1.194444444444457,1.23333333333332,1.0694444444444429,1.1168831168831304,0.04391306472361917,1.1437541011656576,80.55555555555556,1.2083333333152082,1.1532467532467425,0.09060166031122208,0.40129449078061474,0
89,87.27777777777777,1.23333333333332,1.2111111111111228,1.0874999999999986,1.134099616858227,0.044705474140325586,1.164393096094945,86.11111111111111,1.2916666666472916,1.1136653895274706,0.08533690869808197,0.34367255413781994,0
90,88.4888888888889,1.2111111111111228,1.1305555555555458,1.0874999999999986,1.1136653895274706,0.04210948669915542,1.096778337227616,77.77777777777777,1.1666666666491665,1.0395913154533767,0.017100811004638672,0.38670191432554857,0
91,89.61944444444444,1.1305555555555458,1.2083333333333428,1.1111111111111072,1.0174999999999947,0.04433053389127946,1.154627450034083,80.55555555555556,1.2083333333152082,1.0875000000000123,0.26620322465896606,0.3561079732870639,0
92,90.82777777777778,1.2083333333333428,1.1749999999999972,1.11527777777777,1.0834371108343872,0.04207470980274905,1.0958725426049691,88.88888888888889,1.333333333313333,1.0535491905354966,0.1260983943939209,0.3419389912799878,0
93,92.00277777777778,1.1749999999999972,0.875,1.1527777777777715,1.019277108433738,0.04231411883725672,1.1021081598819154,83.33333333333333,1.2499999999812497,0.7590361445783174,0.08654110878705978,0.3757383064068248,0
94,92.87777777777778,0.875,0.21388888888888857,1.1527777777777715,0.7590361445783174,0.041959082503163464,1.0928609286595503,83.33333333333333,1.2499999999812497,0.18554216867469953,0.21958869695663452,0.9860983528619065,0
95,93.09166666666667,0.21388888888888857,0.8361111111111086,1.1527777777777715,0.18554216867469953,0.04134409244040656,1.0768429756680797,86.11111111111111,1.2916666666472916,0.7253012048192788,0.5294138193130493,0.37306869027822204,1
96,93.92777777777778,0.8361111111111086,0.2083333333333286,1.1527777777777715,0.7253012048192788,0.04575283939964266,1.1916726384885783,83.33333333333333,1.2499999999812497,0.18072289156626195,0.6455527544021606,0.9789104865225777,1
97,94.1361111111111,0.2083333333333286,1.0305555555555657,1.1527777777777715,0.18072289156626195,0.038710564283670756,1.0082504360956435,116.66666666666667,1.7499999999737499,0.8939759036144715,0.5167187452316284,0.33323120086719393,1
98,95.16666666666667,1.0305555555555657,0.8111111111111029,1.0805555555555557,0.9537275064267444,0.04281925911601036,1.1152649793643343,80.55555555555556,1.2083333333152082,0.7506426735218432,0.35371822118759155,0.32077286816047046,0
99,95.97777777777777,0.8111111111111029,0.20000000000000284,0.9527777777777828,0.8513119533527566,0.04379840906448813,1.140767794443994,80.55555555555556,1.2083333333152082,0.20991253644315055,0.03199813514947891,0.9857737660769759,0
100,96.17777777777778,0.20000000000000284,1.0972222222222285,0.8555555555555543,0.23376623376623742,0.0405825311026572,1.0570074458816212,83.33333333333333,1.2499999999812497,1.2824675324675416,0.7754359841346741,0.4116974746443567,1
101,97.275,1.0972222222222285,0.8805555555555458,0.8555555555555543,1.2824675324675416,0.04378802358665801,1.1404972956087267,88.88888888888889,1.333333333313333,1.0292207792207693,0.1925257444381714,0.3789677002526316,0
102,98.15555555555555,0.8805555555555458,0.9833333333333343,0.8555555555555543,1.0292207792207693,0.045017245931644835,1.1725134645363977,80.55555555555556,1.2083333333152082,1.1493506493506522,0.030828062444925308,0.9793068647300558,0
103,99.13888888888889,0.9833333333333343,1.1805555555555571,0.8555555555555543,1.1493506493506522,0.04581781813427751,1.1933650663501933,75.0,1.1249999999831248,1.3798701298701337,0.040507346391677856,0.9807701931484014,0
104,100.31944444444444,1.1805555555555571,0.99444444444444,0.8583333333333272,1.3754045307443483,0.040255601364970174,1.0484922754960884,75.0,1.1249999999831248,1.1585760517799384,0.13013575971126556,0.3780607837690987,0
105,101.31388888888888,0.99444444444444,1.0444444444444514,0.93194444444444,1.0670640834575265,0.04494952552401418,1.17074962740848,86.11111111111111,1.2916666666472916,1.1207153502235596,0.654370903968811,0.3815870977592881,1
106,102.35833333333333,1.0444444444444514,1.24166666666666,0.9888888888888872,1.0561797752809077,0.042454499816468004,1.1057645050199534,86.11111111111111,1.2916666666472916,1.2556179775280853,0.6893286108970642,0.3400872569139598,1
107,103.6,1.24166666666666,1.1388888888889,1.0125000000000028,1.2263374485596608,0.044144261346644835,1.1497758190171794,86.11111111111111,1.2916666666472916,1.1248285322359475,0.04785240814089775,0.42402704865341273,0
108,104.7388888888889,1.1388888888889,1.36666666666666,1.0194444444444457,1.1171662125340693,0.045562682870853494,1.1867198457141523,77.77777777777777,1.1666666666491665,1.3405994550408638,0.02550802193582058,0.9852152819867899,0
109,106.10555555555555,1.36666666666666,1.0888888888888886,1.07083333333334,1.2762645914396746,0.03793776224707415,0.9881221324960288,75.0,1.1249999999831248,1.016861219195843,3.215585456928238e-05,0.4396685075236139,0
110,107.19444444444444,1.0888888888888886,1.1138888888888943,1.0930555555555586,0.9961880559085103,0.043354791553357024,1.1292133891457412,77.77777777777777,1.1666666666491665,1.0190597204574354,0.23029014468193054,0.39707623024528993,0
111,108.30833333333334,1.1138888888888943,1.1027777777777743,1.1013888888888914,1.0113493064312762,0.043190787258578854,1.1249417541336575,88.88888888888889,1.333333333313333,1.0012610340479138,0.27005288004875183,0.35198755524054604,0
112,109.41111111111111,1.1027777777777743,1.0861111111111086,1.1083333333333343,0.9949874686716752,0.042604169394622304,1.1096627798252106,83.33333333333333,1.2499999999812497,0.9799498746867137,0.1905224472284317,0.41658934587469826,0
113,110.49722222222222,1.0861111111111086,1.0861111111111086,1.1083333333333343,0.9799498746867137,0.04435600367220199,1.1552908327100424,86.11111111111111,1.2916666666472916,0.9799498746867137,0.2571779787540436,0.39879196936723865,0
114,111.58333333333333,1.0861111111111086,1.0222222222222257,1.0958333333333314,0.9911280101394164,0.04123534526550235,1.0740105605754486,80.55555555555556,1.2083333333152082,0.932826362484162,0.14354285597801208,0.43372178221660157,0
115,112.60555555555555,1.0222222222222257,1.0472222222222172,1.0958333333333314,0.932826362484162,0.042527991923779394,1.107678671104005,83.33333333333333,1.2499999999812497,0.9556400506970819,0.36045828461647034,0.37246091892365785,0
116,113.65277777777777,1.0472222222222172,1.0916666666666686,1.0958333333333314,0.9556400506970819,0.0411901378966,1.0728330951921874,77.77777777777777,1.1666666666491665,0.9961977186311821,0.300658255815506,0.399022129068558,0
117,114.74444444444444,1.0916666666666686,1.0916666666666686,1.0902777777777786,1.0012738853503196,0.036961049872318866,0.9626828061516584,77.77777777777777,1.1666666666491665,1.0012738853503196,0.08678953349590302,0.43275471124240206,0
118,115.83611111111111,1.0916666666666686,1.0694444444444429,1.0902777777777786,1.0012738853503196,0.03894467146293407,1.014347961924915,83.33333333333333,1.2499999999812497,0.9808917197452208,0.1863853484392166,0.40697966846793343,0
119,116.90555555555555,1.0694444444444429,1.0555555555555571,1.0874999999999986,0.9833971902937418,0.039044454891586096,1.0169469084222142,75.0,1.1249999999831248,0.9706257982120078,0.09814134240150452,0.697752739704657,0
120,117.96111111111111,1.0555555555555571,1.0361111111111114,1.0861111111111086,0.971867007672638,0.03464829283806529,0.9024450304560694,69.44444444444444,1.0416666666510415,0.9539641943734041,0.005752476863563061,0.581322131989169,0
121,118.99722222222222,1.0361111111111114,0.8388888888888886,1.0777777777777757,0.9613402061855691,0.03296426142169671,0.8585829622746293,63.888888888888886,0.9583333333189582,0.7783505154639188,0.006833340041339397,0.4834325423613635,0
122,119.83611111111111,0.8388888888888886,1.26111111111112,1.0625,0.7895424836601305,0.04150289058539271,1.0809790119645335,58.333333333333336,0.8749999999868749,1.1869281045751716,0.25601643323898315,0.9761095889832543,0
123,121.09722222222223,1.26111111111112,1.1472222222222115,1.0625,1.1869281045751716,0.03143463337821073,0.818742464714137,50.0,0.7499999999887499,1.0797385620914932,2.9621086833353516e-11,0.9042873621278805,0
124,122.24444444444444,1.1472222222222115,1.063888888888897,1.0625,1.0797385620914932,0.03944605861878216,1.0274070280452667,80.55555555555556,1.2083333333152082,1.0013071895424914,0.03021330200135708,0.3970624372242288,0
125,123.30833333333334,1.063888888888897,1.0722222222222229,1.06666666666667,0.9973958333333379,0.03624010446434851,0.9439051537087596,66.66666666666667,0.999999999985,1.0052083333333308,0.024886829778552055,0.41136979113143923,0
126,124.38055555555556,1.0722222222222229,0.8305555555555486,1.0708333333333329,1.0012970168612203,0.03867265903329365,1.0072631607631795,80.55555555555556,1.2083333333152082,0.7756160830090729,0.10640430450439453,0.3680263538456988,0
127,125.21111111111111,0.8305555555555486,1.2250000000000085,1.06666666666667,0.7786458333333244,0.04611875436092951,1.2012032130518382,55.55555555555556,0.8333333333208333,1.1484375000000044,0.15872955322265625,0.9759859968095628,0
128,126.43611111111112,1.2250000000000085,1.0805555555555486,1.06666666666667,1.1484375000000044,0.03238050710062594,0.843378571440146,72.22222222222223,1.0833333333170834,1.0130208333333237,2.0764011424034834e-05,0.5387340427730907,0
129,127.51666666666667,1.0805555555555486,0.8944444444444315,1.06805555555556,1.0117035110533052,0.03800555178334577,0.9898877701397406,50.0,0.7499999999887499,0.8374512353705956,1.991476892726496e-05,0.6981457830262547,0
130,128.4111111111111,0.8944444444444315,1.200000000000017,1.06805555555556,0.8374512353705956,0.045285010946901176,1.1794876380830552,52.77777777777778,0.7916666666547916,1.1235370611183468,0.022333113476634026,0.9785712001353035,0
131,129.61111111111111,1.200000000000017,0.4361111111111029,1.0763888888888857,1.1148387096774384,0.033615361915693885,0.8755414429674996,50.0,0.7499999999887499,0.4051612903225742,1.1457079551746574e-07,0.7440704692866258,0
132,130.04722222222222,0.4361111111111029,0.30555555555557135,1.0763888888888857,0.4051612903225742,0.023033092959337247,0.5999170110439197,33.333333333333336,0.4999999999925,0.283870967741951,0.91459721326828,0.5696486552081758,1
133,130.3527777777778,0.30555555555557135,0.21944444444443434,1.06805555555556,0.28608582574773794,0.029833952997157628,0.7770513470021869,41.666666666666664,0.6249999999906248,0.20546163849153715,0.7191617488861084,0.9054095488763367,1
134,130.57222222222222,0.21944444444443434,0.9277777777777771,0.9791666666666643,0.22411347517729518,0.03358779082403108,0.8748233298191365,52.77777777777778,0.7916666666547916,0.9475177304964556,0.33039286732673645,0.7551132090510493,0
135,131.5,0.9277777777777771,1.0416666666666572,0.9111111111111043,1.0182926829268362,0.03174221167173711,0.8267536098451922,58.333333333333336,0.8749999999868749,1.1432926829268273,0.0006881163571961224,0.9546255022387742,0
136,132.54166666666666,1.0416666666666572,0.8361111111111086,0.9111111111111043,1.1432926829268273,0.032710290762936675,0.8519680747836114,41.666666666666664,0.6249999999906248,0.9176829268292723,8.756890611943957e-13,0.9570952155082539,0
137,133.37777777777777,0.8361111111111086,0.49444444444446844,0.9111111111111043,0.9176829268292723,0.025877913956354578,0.6740128570728731,22.22222222222222,0.33333333332833326,0.5426829268292986,1.499903845569861e-08,0.5216046822242295,0
138,133.87222222222223,0.49444444444446844,0.38888888888888573,0.86527777777777,0.5714285714286043,0.03967023465742199,1.0332458886483955,63.888888888888886,0.9583333333189582,0.4494382022471914,0.9917532205581665,0.8033417957356752,1
139,134.26111111111112,0.38888888888888573,0.8444444444444343,0.6652777777777885,0.5845511482254555,0.028214577207998685,0.7348732910674413,44.44444444444444,0.6666666666566665,1.2693110647181272,0.9738481044769287,0.6022149530216206,1
140,135.10555555555555,0.8444444444444343,0.8305555555555486,0.6652777777777885,1.2693110647181272,0.0339698313432181,0.8847739086134375,55.55555555555556,0.8333333333208333,1.248434237995794,0.5761924386024475,0.8180254321597757,1
141,135.9361111111111,0.8305555555555486,0.20000000000001705,0.6625000000000085,1.2536687631026988,0.036865686849780206,0.9601989929900259,47.22222222222222,0.7083333333227082,0.30188679245285205,1.2882076589448843e-05,0.9143167342307521,0
142,136.13611111111112,0.20000000000001705,1.0666666666666629,0.6625000000000085,0.30188679245285205,0.028849543388946845,0.7514115394937766,44.44444444444444,0.6666666666566665,1.6100628930817347,0.12299276143312454,0.7600707343588631,0
143,137.20277777777778,1.0666666666666629,1.0777777777777828,0.8333333333333286,1.2800000000000027,0.03263072117476328,0.8498956154056524,55.55555555555556,0.8333333333208333,1.2933333333333468,0.0008897052030079067,0.7122127584178893,0
144,138.28055555555557,1.0777777777777828,1.0416666666666572,0.8402777777777715,1.2826446280991892,0.03128984388294865,0.8149712959274903,58.333333333333336,0.8749999999868749,1.2396694214876014,0.00016845281061250716,0.7418729971134923,0
145,139.32222222222222,1.0416666666666572,1.0777777777777828,0.8402777777777715,1.2396694214876014,0.03448191551778087,0.8981115879233302,52.77777777777778,0.7916666666547916,1.2826446280991892,1.765228262229357e-05,0.9349949065284822,0
146,140.4,1.0777777777777828,1.0250000000000057,0.8402777777777715,1.2826446280991892,0.030890239342346457,0.8045632468643069,55.55555555555556,0.8333333333208333,1.2198347107438177,0.0004474939196370542,0.5998327223988186,0
147,141.425,1.0250000000000057,0.9833333333333201,0.93472222222222,1.0965824665676165,0.031522675056236744,0.8210355870673487,58.333333333333336,0.8749999999868749,1.0520059435363924,0.00015213149890769273,0.5837051579198064,0
148,142.40833333333333,0.9833333333333201,0.9861111111111143,1.0041666666666629,0.9792531120331855,0.031944087504742945,0.8320116421273815,55.55555555555556,0.8333333333208333,0.9820193637621092,0.0008161382284015417,0.48448028287140815,0
149,143.39444444444445,0.9861111111111143,1.0749999999999886,1.00555555555556,0.9806629834254132,0.030711573202414768,0.7999097312973009,47.22222222222222,0.7083333333227082,1.069060773480647,1.6061580026871525e-05,0.5475407965345799,0
150,144.46944444444443,1.0749999999999886,1.0777777777777828,1.0333333333333314,1.0403225806451522,0.030720765677215805,0.8001491573273382,50.0,0.7499999999887499,1.0430107526881789,1.1062824114560499e-06,0.49912592682595003,0
151,145.54722222222222,1.0777777777777828,1.0500000000000114,1.05416666666666,1.0223978919631205,0.03298315249011078,0.8590749966409389,61.111111111111114,0.9166666666529166,0.9960474308300565,3.821839709416963e-05,0.5997069197987347,0
152,146.59722222222223,1.0500000000000114,1.0361111111110972,1.0583333333333371,0.9921259842519757,0.03290533085421895,0.8570480642058901,58.333333333333336,0.8749999999868749,0.9790026246718994,4.7740661102579907e-05,0.5821931506883811,0
153,147.63333333333333,1.0361111111110972,0.9861111111111143,1.0458333333333343,0.990703851261606,0.03116042324889324,0.811600422546004,61.111111111111114,0.9166666666529166,0.9428950863213833,7.364447810687125e-05,0.5900340166493774,0
154,148.61944444444444,0.9861111111111143,1.0138888888888857,1.0388888888888772,0.9491978609625805,0.03692538869621131,0.9617539796923319,58.333333333333336,0.8749999999868749,0.9759358288770132,8.915228733030744e-08,0.9860038938975962,0
155,149.63333333333333,1.0138888888888857,1.0944444444444628,1.0305555555555515,0.9838274932614564,0.03654387322017561,0.9518170761052022,58.333333333333336,0.8749999999868749,1.0619946091644425,9.142746648649336e-08,0.9832918853953658,0
156,150.7277777777778,1.0944444444444628,1.049999999999983,1.0305555555555515,1.0619946091644425,0.038285971929998816,0.9971915576299221,58.333333333333336,0.8749999999868749,1.0188679245282894,0.00011491627810755745,0.6314799403296576,0
157,151.77777777777777,1.049999999999983,1.1111111111111143,1.04305555555554,1.0066577896138469,0.03346159100210294,0.8715363453008583,69.44444444444444,1.0416666666510415,1.0652463382157311,0.0086861252784729,0.9434644779781072,0
158,152.88888888888889,1.1111111111111143,1.0305555555555657,1.0499999999999972,1.0582010582010641,0.0350518173306472,0.9129551780901769,50.0,0.7499999999887499,0.9814814814814937,5.697916662938951e-07,0.672052364637507,0
159,153.91944444444445,1.0305555555555657,1.0305555555555372,1.0499999999999972,0.9814814814814937,0.03263289812542464,0.8499523159858247,47.22222222222222,0.7083333333227082,0.9814814814814667,9.856780707195867e-07,0.7612836300673704,0
160,154.95,1.0305555555555372,1.0861111111111086,1.04305555555554,0.9880159786950703,0.03451309210581735,0.8989236093718788,50.0,0.7499999999887499,1.041278295605872,9.868238521448802e-06,0.7113876521864347,0
161,156.0361111111111,1.0861111111111086,0.8611111111111143,1.04305555555554,1.041278295605872,0.04075815225555962,1.0615816521035693,63.888888888888886,0.9583333333189582,0.8255659121171923,0.0052008917555212975,0.742903107639181,0
162,156.8972222222222,0.8611111111111143,1.3472222222222285,1.0333333333333314,0.8333333333333379,0.03373478509820482,0.878651923997025,58.333333333333336,0.8749999999868749,1.3037634408602237,0.669891893863678,0.9593775099133204,1
163,158.24444444444444,1.3472222222222285,0.9916666666666742,1.0402777777777743,1.2950600801068195,0.036793786485538826,0.9583262852436191,58.333333333333336,0.8749999999868749,0.9532710280373936,2.884844363393313e-08,0.7561809765774019,0
164,159.23611111111111,0.9916666666666742,1.063888888888897,1.0402777777777743,0.9532710280373936,0.03598180025513309,0.9371773951135006,55.55555555555556,0.8333333333208333,1.0226969292389967,3.3881835292959295e-07,0.9761671548692448,0
165,160.3,1.063888888888897,1.0194444444444457,1.05694444444444,1.0065703022339147,0.034451211433492154,0.8973118732473272,52.77777777777778,0.7916666666547916,0.9645203679369303,3.4812149690699457e-11,0.9763230854234362,0
166,161.31944444444446,1.0194444444444457,1.1361111111110915,1.0402777777777743,0.9799732977303116,0.03445267798093007,0.8973500707554543,55.55555555555556,0.8333333333208333,1.0921228304405723,5.461966452458e-07,0.9684031523791728,0
167,162.45555555555555,1.1361111111110915,1.0527777777777771,1.0472222222222314,1.0848806366047463,0.03613184175836432,0.9410853570320291,55.55555555555556,0.8333333333208333,1.005305039787789,2.0614002096408512e-06,0.7033255805476782,0
168,163.50833333333333,1.0527777777777771,1.1833333333333371,1.0416666666666714,1.0106666666666615,0.035817642258310696,0.932901756797513,55.55555555555556,0.8333333333208333,1.1359999999999986,7.002851276638467e-08,0.9756679795753258,0
169,164.69166666666666,1.1833333333333371,1.0083333333333258,1.0583333333333371,1.118110236220472,0.037287161918561636,0.9711766790497864,58.333333333333336,0.8749999999868749,0.9527559055118004,1.955450670720893e-06,0.7906968112856757,0
170,165.7,1.0083333333333258,0.9777777777777885,1.0583333333333371,0.9527559055118004,0.03598554345848707,0.9372748901121886,58.333333333333336,0.8749999999868749,0.9238845144357024,3.2348090872602597e-10,0.9919529430320199,0
171,166.67777777777778,0.9777777777777885,1.0222222222222115,1.0361111111111114,0.9436997319034953,0.035194174419215705,0.9166629927213122,61.111111111111114,0.9166666666529166,0.9865951742627239,2.1071406841599583e-09,0.9953988443962198,0
172,167.7,1.0222222222222115,1.1583333333333314,1.0374999999999943,0.9852744310575586,0.03731638320635885,0.9719377729968783,61.111111111111114,0.9166666666529166,1.1164658634538196,5.958995075161511e-09,0.9974901491000676,0
173,168.85833333333332,1.1583333333333314,1.0916666666666686,1.0374999999999943,1.1164658634538196,0.041364852747529685,1.0773836959881709,66.66666666666667,0.999999999985,1.052208835341373,3.6719727258827106e-09,0.9961988097546541,0
174,169.95,1.0916666666666686,1.1138888888889085,1.0583333333333371,1.0314960629921242,0.0388512773624481,1.0119154310567597,63.888888888888886,0.9583333333189582,1.0524934383202247,1.2041214692004587e-09,0.9971062985080821,0
175,171.0638888888889,1.1138888888889085,1.0333333333333314,1.0722222222222229,1.0388601036269607,0.038534957975456696,1.0036766165165614,66.66666666666667,0.999999999985,0.9637305699481842,6.148314635190388e-10,0.9969669812876609,0
176,172.09722222222223,1.0333333333333314,1.0250000000000057,1.0722222222222229,0.9637305699481842,0.03813683565722729,0.993307173228866,63.888888888888886,0.9583333333189582,0.9559585492228027,1.0739425349015619e-08,0.9967165099395487,0
177,173.12222222222223,1.0250000000000057,1.044444444444423,1.0430555555555543,0.9826897470040014,0.036926385488869555,0.9617799420271874,61.111111111111114,0.9166666666529166,1.0013315579227502,5.973443961693192e-10,0.9963712932310627,0
178,174.16666666666666,1.044444444444423,1.0944444444444628,1.0388888888888772,1.0053475935828784,0.036307048957164315,0.9456487814580509,63.888888888888886,0.9583333333189582,1.0534759358289065,7.330705487085254e-10,0.9975122252678823,0
179,175.26111111111112,1.0944444444444628,1.1055555555555543,1.0388888888888772,1.0534759358289065,0.040462643068773126,1.0538848573923272,66.66666666666667,0.999999999985,1.064171122994663,5.226239707667446e-08,0.9961637192838204,0
180,176.36666666666667,1.1055555555555543,1.0583333333333371,1.0680555555555458,1.0351105331599564,0.03968974803394985,1.0337541315727232,66.66666666666667,0.999999999985,0.9908972691807668,3.2044011888388013e-09,0.9982968531111857,0
181,177.425,1.0583333333333371,1.044444444444423,1.0750000000000028,0.9844961240310087,0.03894112169373128,1.014255505087538,63.888888888888886,0.9583333333189582,0.9715762273901584,2.0811821155319876e-09,0.999403565915951,0
182,178.46944444444443,1.044444444444423,1.02222222222224,1.0750000000000028,0.9715762273901584,0.03631695132387324,0.9459066972424732,61.111111111111114,0.9166666666529166,0.9509043927648718,9.886481217025178e-11,0.9961876541683821,0
183,179.49166666666667,1.02222222222224,1.0527777777777771,1.05138888888888,0.9722589167767753,0.03683666032438337,0.9594429717996541,58.333333333333336,0.8749999999868749,1.0013210039630198,1.8776781518514696e-10,0.9954627781859788,0
184,180.54444444444445,1.0527777777777771,1.1055555555555543,1.0486111111111,1.0039735099337848,0.0413301363209086,1.076479476353864,69.44444444444444,1.0416666666510415,1.0543046357615993,5.895090907870326e-06,0.9971733657455318,0
185,181.65,1.1055555555555543,1.1111111111111143,1.0486111111111,1.0543046357615993,0.04215804572936217,1.0980430995551183,69.44444444444444,1.0416666666510415,1.0596026490066366,1.4480675645245356e-06,0.9967702955202378,0
186,182.76111111111112,1.1111111111111143,1.0194444444444457,1.0555555555555571,1.05263157894737,0.03825759401114342,0.9964524299630719,66.66666666666667,0.999999999985,0.9657894736842103,2.026706441560222e-10,0.9981553789306302,0
187,183.78055555555557,1.0194444444444457,1.0583333333333371,1.0555555555555571,0.9657894736842103,0.038515621260296465,1.003172974891756,66.66666666666667,0.999999999985,1.0026315789473705,1.4106055346019275e-07,0.9983110023435318,0
188,184.8388888888889,1.0583333333333371,1.0305555555555372,1.0583333333333371,1.0,0.04158282048685907,1.083060856016715,69.44444444444444,1.0416666666510415,0.9737532808398742,2.3048874027153943e-06,0.9979020672590921,0
189,185.86944444444444,1.0305555555555372,1.069444444444457,1.0555555555555571,0.9763157894736654,0.04053373944346006,1.0557366245290092,66.66666666666667,0.999999999985,1.0131578947368525,8.056917977228295e-07,0.9986620865773763,0
190,186.9388888888889,1.069444444444457,1.0749999999999886,1.0555555555555571,1.0131578947368525,0.04100026135849511,1.0678875950195295,66.66666666666667,0.999999999985,1.0184210526315667,1.0927126226079054e-07,0.9991842877719044,0
191,188.01388888888889,1.0749999999999886,1.0861111111111086,1.0555555555555571,1.0184210526315667,0.04174116382196791,1.0871850463929236,69.44444444444444,1.0416666666510415,1.0289473684210486,3.2366751838708296e-06,0.9969888285279578,0
192,189.1,1.0861111111111086,1.0472222222222172,1.063888888888897,1.0208877284595197,0.042120912479434836,1.0970759316482253,69.44444444444444,1.0416666666510415,0.9843342036553402,1.4951858702261234e-06,0.9978640875056046,0
193,190.1472222222222,1.0472222222222172,0.9638888888889028,1.063888888888897,0.9843342036553402,0.03834412630904034,0.9987062391933273,66.66666666666667,0.999999999985,0.906005221932121,2.0579845383394968e-08,0.9968295485162679,0
194,191.11111111111111,0.9638888888889028,1.0388888888888914,1.063888888888897,0.906005221932121,0.04084646670637145,1.063881879062083,69.44444444444444,1.0416666666510415,0.9765013054830236,0.00010014801227953285,0.9981167776829079,0
195,192.15,1.0388888888888914,0.9861111111111143,1.0527777777777771,0.9868073878627999,0.04014829308362584,1.0456973376421925,69.44444444444444,1.0416666666510415,0.9366754617414284,5.062165655544959e-07,0.9987096472333254,0
196,193.13611111111112,0.9861111111111143,1.0527777777777771,1.0430555555555543,0.945406125166449,0.03918802567453624,1.020686334782918,63.888888888888886,0.9583333333189582,1.0093209054593881,1.9399710993184272e-07,0.9993124726705298,0
197,194.1888888888889,1.0527777777777771,1.0277777777777715,1.0499999999999972,1.0026455026455048,0.04161018398947356,1.083773562327116,72.22222222222223,1.0833333333170834,0.9788359788359755,1.0544455108174589e-05,0.9975399369900424,0
198,195.21666666666667,1.0277777777777715,1.2527777777777658,1.0430555555555543,0.985352862849529,0.03894533291858118,1.0143651901146093,63.888888888888886,0.9583333333189582,1.2010652463382057,9.191737149194523e-07,0.9988560408484111,0
199,196.46944444444443,1.2527777777777658,1.200000000000017,1.0499999999999972,1.1931216931216848,0.03808886403314014,0.9920577104064786,63.888888888888886,0.9583333333189582,1.1428571428571621,3.5927101679940343e-13,0.9988354607195638,0
200,197.66944444444445,1.200000000000017,1.299999999999983,1.0499999999999972,1.1428571428571621,0.0414896651654769,1.0806345443587413,66.66666666666667,0.999999999985,1.2380952380952253,1.7079328173963404e-08,0.9977715384613122,0
201,198.96944444444443,1.299999999999983,1.194444444444457,1.0499999999999972,1.2380952380952253,0.04068231618990331,1.0596064355784511,69.44444444444444,1.0416666666510415,1.1375661375661528,2.3439895857624293e-11,0.9976281695695326,0
202,200.1638888888889,1.194444444444457,1.11388888888888,1.0499999999999972,1.1375661375661528,0.04104880998296396,1.069152086320505,66.66666666666667,0.999999999985,1.0608465608465554,1.6611337305683094e-10,0.9985887156868032,0
203,201.27777777777777,1.11388888888888,1.0583333333333371,1.0833333333333286,1.0282051282051246,0.037831599884466,0.985357041095856,63.888888888888886,0.9583333333189582,0.9769230769230847,2.3115391545314168e-11,0.9988101945389071,0
204,202.3361111111111,1.0583333333333371,1.0583333333333371,1.0861111111111086,0.9744245524296733,0.039926471904998886,1.0399198114235884,63.888888888888886,0.9583333333189582,0.9744245524296733,1.5768945260674627e-08,0.9984955273822779,0
205,203.39444444444445,1.0583333333333371,1.0250000000000057,1.0861111111111086,0.9744245524296733,0.039375475207633716,1.0255686214916957,66.66666666666667,0.999999999985,0.943734015345276,4.881416870716748e-08,0.9982746321911771,0
206,204.41944444444445,1.0250000000000057,1.1527777777777715,1.0861111111111086,0.943734015345276,0.042020202420202185,1.0944528502486246,69.44444444444444,1.0416666666510415,1.0613810741687946,0.0001378302404191345,0.9980509697633633,0
207,205.57222222222222,1.1527777777777715,1.0777777777777828,1.1333333333333258,1.0171568627450993,0.040888680132803376,1.0649813646003765,66.66666666666667,0.999999999985,0.9509803921568736,2.597167148010726e-09,0.9982568556957881,0
208,206.65,1.0777777777777828,1.0361111111110972,1.1333333333333258,0.9509803921568736,0.03944245535463182,1.0273131778852866,66.66666666666667,0.999999999985,0.9142156862745037,3.7284763720890624e-08,0.9986310946638837,0
209,207.6861111111111,1.0361111111110972,1.01666666666668,1.0958333333333314,0.9455006337135504,0.03685943538366475,0.9600361680983255,61.111111111111114,0.9166666666529166,0.9277566539924091,9.038255699422848e-10,0.9946267832936602,0
210,208.70277777777778,1.01666666666668,1.055555555555543,1.06805555555556,0.9518855656697094,0.03688185226071925,0.960620035228251,58.333333333333336,0.8749999999868749,0.9882964889466681,4.35249880581523e-09,0.9899624421202857,0
211,209.75833333333333,1.055555555555543,1.0583333333333371,1.0583333333333371,0.997375328083974,0.03820217672676492,0.9950090384192958,61.111111111111114,0.9166666666529166,1.0,5.831353178109566e-10,0.9961292760330691,0
212,210.81666666666666,1.0583333333333371,1.1527777777777715,1.0583333333333371,1.0,0.0408933964766558,1.0651042058927724,72.22222222222223,1.0833333333170834,1.089238845144347,1.853102548921015e-05,0.9981942665623935,0
213,211.96944444444443,1.1527777777777715,1.1000000000000227,1.0583333333333371,1.089238845144347,0.04101721021368304,1.0683290427470626,72.22222222222223,1.0833333333170834,1.0393700787401752,6.556685860914513e-08,0.9981008776062004,0
214,213.06944444444446,1.1000000000000227,0.99444444444444,1.0583333333333371,1.0393700787401752,0.03666967963119114,0.9550938138928644,63.888888888888886,0.9583333333189582,0.9396325459317509,1.2899684792566646e-11,0.9962953033426734,0
215,214.0638888888889,0.99444444444444,1.0361111111110972,1.05694444444444,0.940867279894875,0.039717097880386444,1.0344664821960512,66.66666666666667,0.999999999985,0.9802890932982826,1.3126067415214493e-06,0.9988998750600964,0
216,215.1,1.0361111111110972,1.0916666666666686,1.05694444444444,0.9802890932982826,0.03958486340742961,1.031022319924259,69.44444444444444,1.0416666666510415,1.03285151116952,1.0079505727844662e-06,0.9990942236668452,0
217,216.19166666666666,1.0916666666666686,1.0277777777777715,1.05694444444444,1.03285151116952,0.037084571591885857,0.9659000371563027,58.333333333333336,0.8749999999868749,0.9724047306176065,4.243084185873158e-05,0.8361171518282,0
218,217.21944444444443,1.0277777777777715,1.0944444444444628,1.04583333333332,0.9827357237715868,0.03851768963636119,1.003226847551787,63.888888888888886,0.9583333333189582,1.04648074369193,4.6642373519034663e-08,0.99656346201128,0
219,218.3138888888889,1.0944444444444628,1.0722222222222229,1.05694444444444,1.0354796320630966,0.0388462539518733,1.0117845919435497,69.44444444444444,1.0416666666510415,1.014454664914591,1.2889719513964337e-08,0.9987864551743684,0
220,219.38611111111112,1.0722222222222229,1.0027777777777658,1.06527777777778,1.006518904823988,0.03859954194688693,1.005358762425935,66.66666666666667,0.999999999985,0.9413298565840806,2.0254447008483112e-08,0.9948367246936812,0
221,220.38888888888889,1.0027777777777658,1.0277777777777715,1.06527777777778,0.9413298565840806,0.032045047382271194,0.8346412302625501,58.333333333333336,0.8749999999868749,0.9647979139504483,3.815047583399789e-11,0.9890678075567779,0
222,221.41666666666666,1.0277777777777715,1.0777777777777828,1.05416666666666,0.9749670619235838,0.036016255620212705,0.9380748151720868,61.111111111111114,0.9166666666529166,1.0223978919631205,4.298444267192281e-09,0.9905277406140198,0
223,222.49444444444444,1.0777777777777828,1.0583333333333371,1.05416666666666,1.0223978919631205,0.04088720089430691,1.0649428365425517,66.66666666666667,0.999999999985,1.0039525691699704,4.37390980323471e-07,0.9944391988990795,0
224,223.55277777777778,1.0583333333333371,1.063888888888897,1.0472222222222172,1.0106100795756052,0.0379902516099062,0.98948926376743,66.66666666666667,0.999999999985,1.015915119363408,2.225487705231899e-08,0.9952914363050269,0
225,224.61666666666667,1.063888888888897,0.98888888888888,1.0611111111111171,1.0026178010471225,0.04059977275601201,1.0574565197929857,66.66666666666667,0.999999999985,0.9319371727748555,1.0443375941804334e-07,0.9973425178547504,0
226,225.60555555555555,0.98888888888888,0.9472222222222229,1.0611111111111171,0.9319371727748555,0.036622731139188645,0.9538709994386841,61.111111111111114,0.9166666666529166,0.8926701570680584,3.7033069943959163e-09,0.9949348640369295,0
227,226.55277777777778,0.9472222222222229,0.9527777777777828,1.0430555555555543,0.9081225033288965,0.03797351180871508,0.989053261033721,61.111111111111114,0.9166666666529166,0.9134487350199794,8.92320812795333e-08,0.9967507218397884,0
228,227.50555555555556,0.9527777777777828,1.0527777777777771,1.0430555555555543,0.9134487350199794,0.03933772132758789,1.024585288731637,66.66666666666667,0.999999999985,1.0093209054593881,7.0280257205013186e-06,0.9983310893759316,0
229,228.55833333333334,1.0527777777777771,1.0999999999999943,1.0402777777777743,1.0120160213618186,0.0401283022290375,1.0451766583850028,66.66666666666667,0.999999999985,1.0574098798397844,2.483682521869923e-07,0.997353023988219,0
230,229.65833333333333,1.0999999999999943,1.2694444444444457,1.0402777777777743,1.0574098798397844,0.03993753180727916,1.0402078762323455,66.66666666666667,0.999999999985,1.2202937249666275,2.0450097792945598e-07,0.9993663628064289,0
231,230.92777777777778,1.2694444444444457,1.1472222222222115,1.0555555555555571,1.2026315789473678,0.04285617422306495,1.116226465549696,72.22222222222223,1.0833333333170834,1.086842105263146,1.2985736930204439e-08,0.9947805543611598,0
232,232.075,1.1472222222222115,0.76111111111112,1.0611111111111171,1.0811518324607168,0.03945768640235227,1.027709883817905,66.66666666666667,0.999999999985,0.717277486910999,2.961684716917823e-11,0.9985013512235614,0
233,232.8361111111111,0.76111111111112,1.4611111111111086,1.0555555555555571,0.7210526315789547,0.03199811870881732,0.8334189319997677,58.333333333333336,0.8749999999868749,1.3842105263157851,0.9392004609107971,0.9643306957229807,1
234,234.29722222222222,1.4611111111111086,1.24444444444444,1.0583333333333371,1.380577427821515,0.04007041828680768,1.0436690205844148,66.66666666666667,0.999999999985,1.175853018372695,1.9839772186225346e-13,0.9877462607338277,0
235,235.54166666666666,1.24444444444444,1.14166666666668,1.0763888888888857,1.1561290322580637,0.0424966791004188,1.106863101287524,63.888888888888886,0.9583333333189582,1.060645161290338,7.367951249115379e-10,0.9897822208223085,0
236,236.68333333333334,1.14166666666668,1.0333333333333314,1.1208333333333371,1.018587360594804,0.040228931668809746,1.0477976399803868,63.888888888888886,0.9583333333189582,0.9219330855018539,6.0410707547475795e-09,0.9901900876862704,0
237,237.71666666666667,1.0333333333333314,1.0861111111111086,1.1208333333333371,0.9219330855018539,0.03813183380706757,0.9931768956754863,63.888888888888886,0.9583333333189582,0.9690210656753352,2.3027739644021494e-06,0.9884150295301313,0
238,238.80277777777778,1.0861111111111086,0.9638888888889028,1.1208333333333371,0.9690210656753352,0.042021158722417774,1.0944777579745582,63.888888888888886,0.9583333333189582,0.8599752168525497,4.855648967350135e-07,0.9935040050132589,0
239,239.76666666666668,0.9638888888889028,1.0916666666666401,1.1208333333333371,0.8599752168525497,0.029628492718080882,0.7716999546933219,41.666666666666664,0.6249999999906248,0.9739776951672593,1.4033250295142352e-07,0.9214077012421819,0
240,240.85833333333332,1.0916666666666401,1.01666666666668,1.11666666666666,0.9776119402984895,0.036534599480667,0.9515755334649224,72.22222222222223,1.0833333333170834,0.9104477611940471,0.012271230109035969,0.6074657894266955,0
241,241.875,1.01666666666668,1.0805555555555486,1.0888888888888744,0.9336734693877797,0.03260997415905728,0.8493552412721221,44.44444444444444,0.6666666666566665,0.992346938775517,1.9503856307778733e-09,0.9522585717333887,0
242,242.95555555555555,1.0805555555555486,1.0277777777777715,1.0833333333333286,0.9974358974358953,0.032923863577815626,0.8575307651686418,44.44444444444444,0.6666666666566665,0.948717948717947,1.2417366614114744e-11,0.9544081747406367,0
243,243.98333333333332,1.0277777777777715,1.0527777777777771,1.0833333333333286,0.948717948717947,0.031247171727217367,0.8138598623841835,44.44444444444444,0.6666666666566665,0.9717948717948754,6.766320836959494e-10,0.9459357121029487,0
244,245.0361111111111,1.0527777777777771,1.1111111111111143,1.0666666666666629,0.9869791666666696,0.03301725882899174,0.8599633260075262,47.22222222222222,0.7083333333227082,1.0416666666666734,2.7831454918469944e-09,0.9539705981047824,0
245,246.1472222222222,1.1111111111111143,1.0777777777777828,1.0666666666666629,1.0416666666666734,0.035039870947216153,0.912644024106064,61.111111111111114,0.9166666666529166,1.010416666666675,3.3934182283701375e-05,0.7969001341060944,0
246,247.225,1.0777777777777828,1.1388888888888857,1.06527777777778,1.011734028683184,0.033036558965047265,0.8604660148976208,63.888888888888886,0.9583333333189582,1.0691003911342842,0.00025013761478476226,0.7085019209856246,0
247,248.36388888888888,1.1388888888888857,1.1138888888889085,1.0791666666666657,1.0553410553410534,0.0343605833368147,0.8949513853627291,69.44444444444444,1.0416666666510415,1.0321750321750511,0.0002732710854616016,0.567471847891319,0
248,249.4777777777778,1.1138888888889085,1.0694444444444287,1.0791666666666657,1.0321750321750511,0.031175328187614412,0.8119886346850851,61.111111111111114,0.9166666666529166,0.9909909909909772,4.81118559036986e-06,0.5816248395324246,0
249,250.54722222222222,1.0694444444444287,1.01666666666668,1.0791666666666657,0.9909909909909772,0.03201119796978095,0.8337595927680724,58.333333333333336,0.8749999999868749,0.9420849420849552,2.3198936105472967e-05,0.5487228757545609,0
250,251.5638888888889,1.01666666666668,1.0999999999999943,1.0736111111111057,0.9469598965071322,0.04050331730483304,1.054944253373867,77.77777777777777,1.1666666666491665,1.0245795601552392,0.2942170798778534,0.46590624647974316,0
251,252.6638888888889,1.0999999999999943,1.10833333333332,1.0791666666666657,1.0193050193050148,0.042674304427701204,1.1114895079805842,83.33333333333333,1.2499999999812497,1.0270270270270156,0.1355389803647995,0.5309339409085674,0
252,253.7722222222222,1.10833333333332,1.0888888888889028,1.0888888888888886,1.017857142857131,0.031112760696122864,0.8103590097558413,50.0,0.7499999999887499,1.000000000000013,1.1468710425788231e-07,0.6432511164499222,0
253,254.86111111111111,1.0888888888889028,1.0305555555555657,1.0944444444444485,0.9949238578680293,0.03131230640419224,0.8155563519001622,55.55555555555556,0.8333333333208333,0.9416243654822392,1.2225568752910476e-06,0.6563523045118987,0
254,255.89166666666668,1.0305555555555657,1.0333333333333314,1.0944444444444485,0.9416243654822392,0.03163952598543822,0.8240790715141839,58.333333333333336,0.8749999999868749,0.9441624365482181,3.891838059644215e-05,0.656767980923967,0
255,256.925,1.0333333333333314,1.0361111111110972,1.0833333333333428,0.9538461538461438,0.0315983009354455,0.8230053291029746,55.55555555555556,0.8333333333208333,0.9564102564102352,1.2283639989618678e-05,0.6487578874592907,0
256,257.9611111111111,1.0361111111110972,1.0500000000000114,1.0791666666666657,0.960102960102948,0.03295440448321119,0.8583262297079387,55.55555555555556,0.8333333333208333,0.9729729729729844,2.7956528356298804e-05,0.6168892181989215,0
257,259.0111111111111,1.0500000000000114,1.0472222222222172,1.05972222222222,0.9908256880734073,0.03616778375597593,0.9420214977325495,55.55555555555556,0.8333333333208333,0.9882044560943617,2.3856729924887077e-09,0.979556481962211,0
258,260.05833333333334,1.0472222222222172,1.0749999999999886,1.0486111111111143,0.9986754966887339,0.03518017741656707,0.9162984285697514,55.55555555555556,0.8333333333208333,1.0251655629138934,9.704584358338764e-11,0.9848634914253774,0
259,261.1333333333333,1.0749999999999886,0.9972222222222058,1.0486111111111143,1.0251655629138934,0.03717520219617482,0.9682605903538313,61.111111111111114,0.9166666666529166,0.9509933774834252,2.9045559360452167e-11,0.9947061638615202,0
260,262.13055555555553,0.9972222222222058,1.01111111111112,1.0486111111111143,0.9509933774834252,0.03834859591686822,0.9988226540305953,61.111111111111114,0.9166666666529166,0.964238410596032,2.7455538287313175e-08,0.9949250052775065,0
261,263.14166666666665,1.01111111111112,0.9472222222222513,1.0416666666666572,0.970666666666684,0.035029163717440345,0.9123651449605231,52.77777777777778,0.7916666666547916,0.9093333333333695,4.1258681449107826e-05,0.7925475560191388,0
262,264.0888888888889,0.9472222222222513,1.0472222222222172,1.0347222222222143,0.9154362416107733,0.034595175395174635,0.9010615402913089,55.55555555555556,0.8333333333208333,1.0120805369127546,0.002289081458002329,0.8016681835434147,0
263,265.1361111111111,1.0472222222222172,1.1750000000000114,1.0347222222222143,1.0120805369127546,0.035783617833059535,0.9320155609429137,61.111111111111114,0.9166666666529166,1.1355704697986773,0.0011551006464287639,0.7567716798313622,0
264,266.31111111111113,1.1750000000000114,1.2777777777777715,1.0416666666666572,1.1280000000000212,0.03855380085000112,1.0041673956314687,52.77777777777778,0.7916666666547916,1.2266666666666717,1.0352901881560683e-05,0.7690980217976476,0
265,267.5888888888889,1.2777777777777715,1.169444444444423,1.0472222222222172,1.2201591511936338,0.03818217658873682,0.9944881173668142,61.111111111111114,0.9166666666529166,1.1167108753315498,1.0267992917511667e-13,0.9939610417241488,0
266,268.7583333333333,1.169444444444423,1.091666666666697,1.0486111111111143,1.1152317880794465,0.03980810222479714,1.0368367697812773,63.888888888888886,0.9583333333189582,1.0410596026490324,4.0133934370301105e-11,0.9959765773959621,0
267,269.85,1.091666666666697,1.1194444444444116,1.061111111111103,1.028795811518361,0.034897436312203385,0.9089341897100998,63.888888888888886,0.9583333333189582,1.054973821989506,4.253071506088446e-11,0.9947425777684431,0
268,270.96944444444443,1.1194444444444116,1.1611111111110972,1.0833333333333428,1.033333333333294,0.03926688896143858,1.0227403979277625,66.66666666666667,0.999999999985,1.0717948717948496,1.0329383570706341e-08,0.996064837097508,0
269,272.13055555555553,1.1611111111110972,1.0750000000000455,1.1055555555555543,1.0502512562813957,0.03907874146571144,1.0178399321730638,72.22222222222223,1.0833333333170834,0.9723618090452684,2.1342261291579234e-08,0.9954711286475888,0
270,273.2055555555556,1.0750000000000455,0.9805555555555543,1.1055555555555543,0.9723618090452684,0.03796427087766097,0.9888125729182763,66.66666666666667,0.999999999985,0.8869346733668341,2.4191548764207482e-09,0.9988621150185428,0
271,274.18611111111113,0.9805555555555543,1.0027777777777374,1.1055555555555543,0.8869346733668341,0.03422832324345872,0.8915065557852778,61.111111111111114,0.9166666666529166,0.9070351758793614,1.6417316395234138e-09,0.9945496264127542,0
272,275.18888888888887,1.0027777777777374,1.0444444444444798,1.1055555555555543,0.9070351758793614,0.037238042594069924,0.9698973233685678,63.888888888888886,0.9583333333189582,0.9447236180904853,2.9058293549155678e-08,0.9984153619714125,0
273,276.23333333333335,1.0444444444444798,1.055555555555543,1.1055555555555543,0.9447236180904853,0.039767843079857736,1.035788185210292,69.44444444444444,1.0416666666510415,0.9547738693467234,1.6299717344736564e-06,0.9992213354350253,0
274,277.2888888888889,1.055555555555543,1.0833333333333144,1.0833333333333712,0.9743589743589286,0.03944308414918892,1.027329555388383,69.44444444444444,1.0416666666510415,0.9999999999999475,1.2093603345419979e-06,0.9972050305855258,0
275,278.3722222222222,1.0833333333333144,1.0277777777777715,1.07916666666668,1.0038610038609739,0.03935474978995304,1.0250288098975875,63.888888888888886,0.9583333333189582,0.9523809523809348,4.06389855100997e-09,0.9950696325120771,0
276,279.4,1.0277777777777715,1.0083333333333826,1.0652777777777942,0.9647979139504356,0.03678068668491047,0.9579850895018179,63.888888888888886,0.9583333333189582,0.9465449804433171,2.143583532898674e-09,0.9967121897451203,0
277,280.40833333333336,1.0083333333333826,1.0027777777777374,1.0500000000000114,0.9603174603174969,0.03660236967179266,0.9533406672474221,61.111111111111114,0.9166666666529166,0.9550264550264062,8.234041781740586e-10,0.9962813712075584,0
278,281.4111111111111,1.0027777777777374,1.0055555555555884,1.0361111111111256,0.9678284182305105,0.039946121335763314,1.0404315979992653,69.44444444444444,1.0416666666510415,0.9705093833780342,3.937394922104431e-06,0.9970910910102119,0
279,282.4166666666667,1.0055555555555884,1.022222222222183,1.018055555555577,0.9877216916780469,0.03976887851772049,1.0358151540932312,69.44444444444444,1.0416666666510415,1.0040927694405952,9.451100027035864e-07,0.9987486855881289,0
280,283.43888888888887,1.022222222222183,1.0166666666667084,1.0152777777777828,1.0068399452803942,0.0375015792685947,0.976761366090076,66.66666666666667,0.999999999985,1.0013679890561236,7.441934624097257e-09,0.9990707459914632,0
281,284.4555555555556,1.0166666666667084,1.033333333333303,1.0194444444444457,0.9972752043597127,0.03641936077553644,0.9485740408012777,63.888888888888886,0.9583333333189582,1.0136239782016039,1.2408335470226461e-09,0.99785652728273,0
282,285.4888888888889,1.033333333333303,1.2361111111111427,1.0249999999999773,1.0081300813008058,0.03919701603348005,1.0209204965290328,66.66666666666667,0.999999999985,1.2059620596206537,3.7414210964925587e-06,0.9985444891679842,0
283,286.725,1.2361111111111427,1.1166666666666174,1.0249999999999773,1.2059620596206537,0.038743577558352865,1.0091102956510678,66.66666666666667,0.999999999985,1.0894308943089193,2.3346673986429645e-12,0.9982970427872744,0
284,287.84166666666664,1.1166666666666174,1.1694444444444798,1.0249999999999773,1.0894308943089193,0.03778350805059607,0.9841044473047484,66.66666666666667,0.999999999985,1.140921409214152,6.868078328281513e-10,0.9990777816769221,0
285,289.0111111111111,1.1694444444444798,1.158333333333303,1.0249999999999773,1.140921409214152,0.03997692685208186,1.0412339545610225,69.44444444444444,1.0416666666510415,1.1300813008130037,2.788006714382618e-09,0.9983239872051333,0
286,290.1694444444444,1.158333333333303,1.0666666666666629,1.027777777777743,1.1270270270270357,0.03967757195066928,1.0334369948555315,69.44444444444444,1.0416666666510415,1.0378378378378692,6.769779736792714e-10,0.9985046400056384,0
287,291.2361111111111,1.0666666666666629,1.0666666666667197,1.049999999999983,1.0158730158730287,0.038200222909131075,0.9949581495335915,66.66666666666667,0.999999999985,1.0158730158730829,7.61969332074841e-09,0.9972058197331926,0
288,292.3027777777778,1.0666666666667197,1.0388888888888346,1.0666666666666913,1.0000000000000266,0.03979910852819339,1.036602521102896,69.44444444444444,1.0416666666510415,0.9739583333332599,1.4736625075784104e-07,0.9994845498733028,0
289,293.34166666666664,1.0388888888888346,1.0583333333333371,1.0666666666666913,0.9739583333332599,0.039576381942724545,1.0308014127727914,69.44444444444444,1.0416666666510415,0.9921874999999807,1.24949519886286e-06,0.9981488824710112,0
290,294.4,1.0583333333333371,1.1083333333333485,1.0666666666666913,0.9921874999999807,0.03993570937837645,1.0401604094808292,66.66666666666667,0.999999999985,1.0390624999999902,1.615894973383547e-07,0.9980391999227072,0
291,295.5083333333333,1.1083333333333485,1.1527777777777715,1.087500000000034,1.0191570881225873,0.04059616087710223,1.0573624452540764,69.44444444444444,1.0416666666510415,1.0600255427841245,1.5590499913287204e-07,0.9993050542483715,0
292,296.6611111111111,1.1527777777777715,1.055555555555543,1.112499999999983,1.036204744069923,0.03996446062132834,1.0409092606996362,69.44444444444444,1.0416666666510415,0.9488139825218509,2.3195267928599606e-09,0.9993201923666224,0
293,297.71666666666664,1.055555555555543,0.42500000000001137,1.087500000000034,0.970625798211963,0.037771240308631916,0.9837849232571363,63.888888888888886,0.9583333333189582,0.3908045977011476,2.383434005714946e-10,0.9981560125203983,0
294,298.14166666666665,0.42500000000001137,0.7305555555555543,1.0666666666666913,0.39843750000000144,0.030657077021973445,0.7984903307095733,41.666666666666664,0.6249999999906248,0.6848958333333164,0.9623814821243286,0.8822954095829596,1
295,298.8722222222222,0.7305555555555543,0.9861111111111427,1.0625,0.687581699346404,0.0415076511109608,1.081103004008279,69.44444444444444,1.0416666666510415,0.9281045751634284,0.07093426585197449,0.997636680655671,0
296,299.85833333333335,0.9861111111111427,1.0916666666666401,1.05694444444444,0.9329829172142257,0.04125344794197154,1.0744820605853893,69.44444444444444,1.0416666666510415,1.032851511169493,9.14439297048375e-05,0.9979397210803396,0
297,300.95,1.0916666666666401,1.1000000000000227,1.05694444444444,1.032851511169493,0.03976321136738854,1.0356675482161446,66.66666666666667,0.999999999985,1.040735873850223,8.39510239103447e-09,0.9988923788463899,0
298,302.05,1.1000000000000227,1.1305555555555316,1.05694444444444,1.040735873850223,0.0404448660443886,1.053421839275184,69.44444444444444,1.0416666666510415,1.0696452036793511,1.7865666279703873e-07,0.9982487233156194,0
299,303.18055555555554,1.1305555555555316,1.0833333333333712,1.0749999999999886,1.0516795865632962,0.0404552618933055,1.053692608234459,69.44444444444444,1.0416666666510415,1.007751937984542,1.1988969816911776e-08,0.9993034963308723,0
300,304.2638888888889,1.0833333333333712,0.98888888888888,1.0875000000000057,0.9961685823755085,0.039095556308732134,1.018277889436726,69.44444444444444,1.0416666666510415,0.9093231162196551,4.433447031715332e-08,0.9979621341936253,0
301,305.2527777777778,0.98888888888888,1.1444444444444457,1.069444444444457,0.9246753246753054,0.040933582399288716,1.0661508833248716,72.22222222222223,1.0833333333170834,1.0701298701298587,0.0005830039153806865,0.9979960629644311,0
302,306.39722222222224,1.1444444444444457,1.1416666666666515,1.069444444444457,1.0701298701298587,0.040832446098324676,1.0635167000873231,69.44444444444444,1.0416666666510415,1.0675324675324407,1.7800353191432805e-08,0.9989574540204003,0
303,307.5388888888889,1.1416666666666515,1.080555555555577,1.0875000000000057,1.0498084291187546,0.04141888742010796,1.0787910762007686,69.44444444444444,1.0416666666510415,0.9936143039591461,3.647779323046052e-08,0.9984597437369904,0
304,308.61944444444447,1.080555555555577,1.1083333333332916,1.0875000000000057,0.9936143039591461,0.039857394764957615,1.0381206370157838,66.66666666666667,0.999999999985,1.0191570881225618,3.306165297090047e-08,0.999044906230543,0
305,309.72777777777776,1.1083333333332916,1.0083333333333258,1.0958333333333314,1.0114068441064277,0.039688924744534865,1.0337326882812847,69.44444444444444,1.0416666666510415,0.9201520912547475,1.9470302703439302e-08,0.998657362557327,0
306,310.7361111111111,1.0083333333333258,1.0638888888889255,1.0958333333333314,0.9201520912547475,0.03853982431906098,1.0038033646834248,63.888888888888886,0.9583333333189582,0.9708491761724052,6.735693602877291e-08,0.9992983816621804,0
307,311.8,1.0638888888889255,1.1305555555555316,1.091666666666697,0.9745547073791414,0.03999790706221756,1.0417804024470227,66.66666666666667,0.999999999985,1.0356234096691606,2.165108554663675e-07,0.9984424554677687,0
308,312.93055555555554,1.1305555555555316,1.0944444444444343,1.0958333333333314,1.0316856780734907,0.03994327419995116,1.0403574418618555,66.66666666666667,0.999999999985,0.9987325728770521,1.3128180764709896e-09,0.9991747075379428,0
309,314.025,1.0944444444444343,1.080555555555577,1.0888888888889028,1.0051020408163045,0.041154122787092726,1.0718950502285274,69.44444444444444,1.0416666666510415,0.9923469387755173,6.895122623973293e-07,0.9979243290358162,0
310,315.10555555555555,1.080555555555577,1.0666666666666629,1.0875000000000057,0.9936143039591461,0.035681764968556844,0.9293627141825335,61.111111111111114,0.9166666666529166,0.980842911877386,1.838376846585721e-11,0.9945970897631091,0
311,316.1722222222222,1.0666666666666629,1.055555555555543,1.0875000000000057,0.980842911877386,0.038900031221964594,1.013185267883695,63.888888888888886,0.9583333333189582,0.9706257982119885,1.987765063660163e-09,0.998817576878869,0
312,317.22777777777776,1.055555555555543,1.0333333333333599,1.080555555555577,0.9768637532133365,0.03835331003632051,0.9989454373865482,66.66666666666667,0.999999999985,0.9562982005141444,1.7816283559568546e-08,0.998041743611271,0
313,318.2611111111111,1.0333333333333599,1.1638888888888914,1.07361111111112,0.9624838292367568,0.04042176939838423,1.0528202669696085,66.66666666666667,0.999999999985,1.084087968952128,2.8423626190487994e-06,0.9990177265534492,0
314,319.425,1.1638888888888914,1.0777777777777828,1.07361111111112,1.084087968952128,0.03912706755447742,1.0190986273374132,63.888888888888886,0.9583333333189582,1.0038809831824027,7.494970789834188e-12,0.9983681522662287,0
315,320.5027777777778,1.0777777777777828,1.0861111111111086,1.0722222222222229,1.005181347150263,0.04011769361584793,1.04490034779453,66.66666666666667,0.999999999985,1.0129533678756446,3.1150211299291186e-08,0.999265078559664,0
316,321.5888888888889,1.0861111111111086,1.033333333333303,1.07916666666668,1.0064350064349916,0.03865919567307746,1.0069124957945725,66.66666666666667,0.999999999985,0.9575289575289176,1.9573507259451617e-09,0.9992360453982275,0
317,322.6222222222222,1.033333333333303,1.0611111111111313,1.07916666666668,0.9575289575289176,0.03773592765447666,0.9828651743562724,63.888888888888886,0.9583333333189582,0.9832689832689899,1.2236209379068441e-08,0.9967027812112632,0
318,323.68333333333334,1.0611111111111313,1.0249999999999773,1.0722222222222229,0.9896373056995001,0.037552199693032334,0.9780798192296526,63.888888888888886,0.9583333333189582,0.9559585492227761,9.429433900365325e-10,0.9962012784779328,0
319,324.7083333333333,1.0249999999999773,1.1638888888888914,1.063888888888897,0.9634464751957936,0.03862919382533851,1.00613107148247,66.66666666666667,0.999999999985,1.0939947780678791,5.861131171513989e-07,0.9990958495032141,0
320,325.8722222222222,1.1638888888888914,1.1111111111111427,1.063888888888897,1.0939947780678791,0.040523516477149815,1.0554703584481286,69.44444444444444,1.0416666666510415,1.044386422976523,3.167799800252169e-09,0.9981717849440988,0
321,326.98333333333335,1.1111111111111427,1.0638888888888687,1.069444444444457,1.0389610389610562,0.037387495090823744,0.9737899440992654,63.888888888888886,0.9583333333189582,0.9948051948051642,6.798010071529248e-11,0.9951461136867459,0
322,328.0472222222222,1.0638888888888687,1.0611111111111313,1.0708333333333258,0.9935149156938922,0.03842118807858614,1.0007133802461285,66.66666666666667,0.999999999985,0.9909208819714915,7.153071912568976e-09,0.9991524000007403,0
323,329.10833333333335,1.0611111111111313,1.0972222222222285,1.0708333333333258,0.9909208819714915,0.038771284564191946,1.0098319488027874,66.66666666666667,0.999999999985,1.024643320363178,4.296355626820514e-08,0.9975072707029389,0
324,330.2055555555556,1.0972222222222285,1.0805555555555202,1.0708333333333258,1.024643320363178,0.038304688557693874,0.9976790485354406,66.66666666666667,0.999999999985,1.0090791180285086,9.024079261621409e-10,0.9988867762715343,0
325,331.2861111111111,1.0805555555555202,1.1555555555555657,1.0722222222221944,1.0077720207253817,0.03892082527109074,1.013726867043707,66.66666666666667,0.999999999985,1.0777202072539234,3.6153902982505315e-08,0.997825102185822,0
326,332.44166666666666,1.1555555555555657,1.055555555555543,1.0722222222221944,1.0777202072539234,0.04136538070457526,1.0773974470902612,72.22222222222223,1.0833333333170834,0.9844559585492365,6.782025252505264e-08,0.9982499649241743,0
327,333.4972222222222,1.055555555555543,1.0277777777777715,1.0722222222221944,0.9844559585492365,0.03639981809903972,0.9480650347336859,63.888888888888886,0.9583333333189582,0.9585492227979464,3.2576624731106563e-10,0.9964574897572478,0
328,334.525,1.0277777777777715,1.0722222222222513,1.0722222222221944,0.9585492227979464,0.03726379342890078,0.9705680263388934,63.888888888888886,0.9583333333189582,1.000000000000053,5.51261969405914e-09,0.9981971573736922,0
329,335.59722222222223,1.0722222222222513,1.1166666666666742,1.0763888888888857,0.9961290322580945,0.03991122074467083,1.0395225816405491,66.66666666666667,0.999999999985,1.0374193548387198,7.288023340379368e-08,0.9984151505267678,0
330,336.7138888888889,1.1166666666666742,1.11388888888888,1.0763888888888857,1.0374193548387198,0.037868765650750924,0.9863250559196649,66.66666666666667,0.999999999985,1.034838709677414,3.35551808561263e-10,0.9983040482548631,0
331,337.8277777777778,1.11388888888888,1.0916666666666401,1.0763888888888857,1.034838709677414,0.03674602369454837,0.9570822616615194,66.66666666666667,0.999999999985,1.0141935483870752,8.606021451029733e-11,0.9980259894380477,0
332,338.9194444444444,1.0916666666666401,1.0527777777778056,1.0861111111110802,1.0051150895140708,0.04015348863817941,1.0458326603955892,66.66666666666667,0.999999999985,0.9693094629156542,1.2884090239140278e-08,0.9991825769045188,0
333,339.97222222222223,1.0527777777778056,0.9861111111110858,1.0861111111110802,0.9693094629156542,0.033483857728258716,0.8721163016195641,58.333333333333336,0.8749999999868749,0.9079283887468057,2.3931687187506157e-10,0.9804534243952985,0
334,340.9583333333333,0.9861111111110858,1.0166666666667084,1.0763888888888857,0.9161290322580438,0.03428071085112399,0.8928710367545412,61.111111111111114,0.9166666666529166,0.9445161290322995,1.6422577742147837e-09,0.9936401950948017,0
335,341.975,1.0166666666667084,1.0583333333333371,1.063888888888897,0.9556135770235304,0.03752079454173638,0.9772618446515049,63.888888888888886,0.9583333333189582,0.9947780678851134,1.202079680240331e-08,0.997970241203167,0
336,343.03333333333336,1.0583333333333371,1.1055555555555543,1.05694444444444,1.0013140604467883,0.03963014079878741,1.0322016091034931,66.66666666666667,0.999999999985,1.0459921156373224,7.602596241440551e-08,0.9985659567486211,0
337,344.1388888888889,1.1055555555555543,1.044444444444423,1.0652777777777942,1.0378096479791223,0.038233386305710666,0.9958219191448728,66.66666666666667,0.999999999985,0.980443285527996,2.461645332019202e-10,0.9994226113618907,0
338,345.18333333333334,1.044444444444423,1.044444444444423,1.0652777777777942,0.980443285527996,0.038075449108809,0.9917083069927761,63.888888888888886,0.9583333333189582,0.980443285527996,3.187984098929064e-09,0.99773808661677,0
339,346.22777777777776,1.044444444444423,0.9944444444444684,1.0555555555555713,0.9894736842104912,0.0368494189461088,0.9597752812391233,63.888888888888886,0.9583333333189582,0.9421052631579033,4.690416388619667e-10,0.99699231267664,0
340,347.22222222222223,0.9944444444444684,1.0611111111111313,1.0486111111111143,0.9483443708609471,0.0379725011070144,0.9890269364257146,63.888888888888886,0.9583333333189582,1.0119205298013407,9.504378084557175e-08,0.9972923301093168,0
341,348.28333333333336,1.0611111111111313,1.0694444444444002,1.0486111111111143,1.0119205298013407,0.04142808405994329,1.0790306107127596,69.44444444444444,1.0416666666510415,1.019867549668829,1.5460016129509313e-06,0.9984691084424331,0
342,349.35277777777776,1.0694444444444002,1.1222222222222626,1.0486111111111143,1.019867549668829,0.040511311329568686,1.0551524647258592,66.66666666666667,0.999999999985,1.070198675496724,1.068088266720224e-07,0.9990825251901885,0
343,350.475,1.1222222222222626,1.0361111111110972,1.05138888888888,1.0673712021136537,0.03822385042998969,0.9955735489381311,66.66666666666667,0.999999999985,0.9854689564068643,1.3735290682603818e-10,0.9975753127747082,0
344,351.5111111111111,1.0361111111110972,1.0638888888888687,1.05138888888888,0.9854689564068643,0.03859204347026849,1.005163458057205,63.888888888888886,0.9583333333189582,1.0118890356670962,1.3546160637645244e-08,0.9973233987459387,0
345,352.575,1.0638888888888687,1.0611111111111313,1.0597222222222342,1.0039318479685149,0.040544664552681915,1.0560211785349032,69.44444444444444,1.0416666666510415,1.0013106159895229,5.84388487823162e-07,0.9988861235343707,0
346,353.6361111111111,1.0611111111111313,1.044444444444423,1.0611111111111313,1.0,0.039050272795477896,1.0170984408073556,66.66666666666667,0.999999999985,0.9842931937172386,2.3943218963040636e-08,0.9978767411848308,0
347,354.68055555555554,1.044444444444423,1.1111111111111427,1.0527777777777771,0.9920844327176583,0.04020112252920228,1.0470733266655199,66.66666666666667,0.999999999985,1.055408970976284,3.063930194002751e-07,0.9989125119468536,0
348,355.7916666666667,1.1111111111111427,1.1527777777777715,1.0611111111111313,1.0471204188481773,0.042161876550796056,1.0981428766431764,72.22222222222223,1.0833333333170834,1.0863874345549471,6.963106443436118e-06,0.9978081059019892,0
349,356.94444444444446,1.1527777777777715,1.0027777777777374,1.0625,1.084967320261432,0.04293432048048232,1.1182618530357302,69.44444444444444,1.0416666666510415,0.9437908496731646,1.0536713546116516e-07,0.9964426898001766,0
350,357.9472222222222,1.0027777777777374,1.0888888888889028,1.0625,0.9437908496731646,0.03451089740493382,0.8988664464716766,55.55555555555556,0.8333333333208333,1.0248366013072026,3.3666489596129168e-09,0.9828356418923807,0
351,359.0361111111111,1.0888888888889028,1.0416666666666856,1.0666666666666345,1.0208333333333772,0.03656120342626467,0.9522684564498253,69.44444444444444,1.0416666666510415,0.9765625000000473,0.007483321707695723,0.810635714780071,0
352,360.0777777777778,1.0416666666666856,1.0861111111111086,1.0625,0.9803921568627629,0.040494221279055456,1.0547073394428332,66.66666666666667,0.999999999985,1.02222222222222,5.742468260905298e-07,0.9984208952363443,0
353,361.1638888888889,1.0861111111111086,1.1194444444444684,1.0625,1.02222222222222,0.04089423032449154,1.065125924187496,66.66666666666667,0.999999999985,1.0535947712418527,7.915467392649589e-08,0.9986345753832391,0
354,362.28333333333336,1.1194444444444684,1.077777777777726,1.0749999999999886,1.0413436692506792,0.039647106301152854,1.0326434904212953,66.66666666666667,0.999999999985,1.0025839793281277,1.1748580996950864e-09,0.9990413018634291,0
355,363.3611111111111,1.077777777777726,1.0555555555555998,1.0819444444444173,0.9961489088574867,0.04075391997012183,1.0614714185351029,66.66666666666667,0.999999999985,0.9756097560976263,1.1746708850068899e-07,0.9978795514007834,0
356,364.4166666666667,1.0555555555555998,1.022222222222183,1.0819444444444173,0.9756097560976263,0.04010409903088486,1.0445462649628485,66.66666666666667,0.999999999985,0.9448010269576255,1.3631333217745123e-07,0.9981305121392926,0
357,365.43888888888887,1.022222222222183,1.0944444444444912,1.0819444444444173,0.9448010269576255,0.04152874904717786,1.0816525181728283,69.44444444444444,1.0416666666510415,1.0115532734275396,3.0709808925166726e-05,0.9987990275247631,0
358,366.53333333333336,1.0944444444444912,1.0861111111111086,1.0819444444444173,1.0115532734275396,0.03980102657700061,1.036652478358289,66.66666666666667,0.999999999985,1.0038510911425131,1.1694281099039472e-08,0.998521299208497,0
359,367.61944444444447,1.0861111111111086,1.0916666666666401,1.0819444444444173,1.0038510911425131,0.03915036560565497,1.0197054454165249,63.888888888888886,0.9583333333189582,1.0089858793324784,1.3339243043475335e-09,0.9983361101588006,0
360,368.7111111111111,1.0916666666666401,1.01111111111112,1.0861111111111086,1.0051150895140444,0.04107265214700786,1.069773076294161,72.22222222222223,1.0833333333170834,0.9309462915601127,2.212900881204405e-06,0.9976104588855419,0
361,369.72222222222223,1.01111111111112,0.9944444444444116,1.0819444444444173,0.9345314505776953,0.03711088733861125,0.9665854537500167,63.888888888888886,0.9583333333189582,0.9191270860076949,7.206396812620142e-09,0.9977238663034473,0
362,370.71666666666664,0.9944444444444116,0.9444444444444571,1.0819444444444173,0.9191270860076949,0.03746021158729241,0.97568390872191,63.888888888888886,0.9583333333189582,0.8729139922978513,2.299213086587315e-08,0.9977888265566939,0
363,371.6611111111111,0.9444444444444571,1.01111111111112,1.0666666666666629,0.8854166666666816,0.03456675057987048,0.9003211911655163,58.333333333333336,0.8749999999868749,0.9479166666666783,4.337051606739806e-09,0.9936726364331916,0
364,372.6722222222222,1.01111111111112,1.0583333333333371,1.0388888888888914,0.9732620320855676,0.0407301666093057,1.060852741519028,72.22222222222223,1.0833333333170834,1.0187165775401081,2.8501573979156092e-05,0.9978804240638736,0
365,373.73055555555555,1.0583333333333371,1.069444444444457,1.0388888888888914,1.0187165775401081,0.039289799575424326,1.0233371248670309,72.22222222222223,1.0833333333170834,1.029411764705892,9.179428843708592e-07,0.9976603437904857,0
366,374.8,1.069444444444457,1.3361111111111086,1.04027777777776,1.0280373831775997,0.036823320029682645,0.9590955121798179,69.44444444444444,1.0416666666510415,1.284379172229659,3.561805442586774e-06,0.9969259129030725,0
367,376.1361111111111,1.3361111111111086,1.2194444444444343,1.063888888888897,1.2558746736292308,0.03983885032007206,1.037637630761832,69.44444444444444,1.0416666666510415,1.1462140992166918,1.4861690437323327e-12,0.9986302518180575,0
368,377.35555555555555,1.2194444444444343,1.1416666666666515,1.063888888888897,1.1462140992166918,0.03651681244802319,0.9511122546739301,63.888888888888886,0.9583333333189582,1.0731070496083326,9.091854466557539e-14,0.9980974347802252,0
369,378.4972222222222,1.1416666666666515,1.1111111111111427,1.063888888888897,1.0731070496083326,0.03703217653888895,0.9645353622668779,66.66666666666667,0.999999999985,1.044386422976523,1.840201081793058e-11,0.9990448623115294,0
370,379.60833333333335,1.1111111111111427,1.158333333333303,1.063888888888897,1.044386422976523,0.04099465165035476,1.0677414852744627,75.0,1.1249999999831248,1.0887728459529658,3.146129165543243e-05,0.9953491645474533,0
371,380.76666666666665,1.158333333333303,1.036111111111154,1.0902777777777999,1.0624203821655558,0.036459693304976566,0.9496245367356395,63.888888888888886,0.9583333333189582,0.9503184713375997,2.9670417598520737e-13,0.9984406371359464,0
372,381.8027777777778,1.036111111111154,1.0583333333332803,1.0902777777777999,0.9503184713375997,0.03584079993366228,0.9335049186657073,63.888888888888886,0.9583333333189582,0.9707006369426068,6.662815854596715e-10,0.9981594064513178,0
373,382.8611111111111,1.0583333333332803,1.0750000000000455,1.0902777777777999,0.9707006369426068,0.03751488259631977,0.9771078628727639,69.44444444444444,1.0416666666510415,0.9859872611465186,5.46490497299601e-08,0.9985333218807514,0
374,383.93611111111113,1.0750000000000455,1.0638888888888687,1.093055555555594,0.9834815756035648,0.03700342400168253,0.963786477338082,66.66666666666667,0.999999999985,0.9733163913595406,1.2898074830403061e-09,0.9983077655294894,0
375,385.0,1.0638888888888687,1.1527777777777715,1.093055555555594,0.9733163913595406,0.03589234397483866,0.9348474282094429,63.888888888888886,0.9583333333189582,1.0546378653112658,5.725068752404638e-10,0.9978392713247894,0
376,386.15277777777777,1.1527777777777715,1.069444444444457,1.126388888888897,1.0234278668310597,0.038664143609453146,1.0070413691163873,69.44444444444444,1.0416666666510415,0.9494451294697946,1.180957664992377e-09,0.9978309995673991,0
377,387.22222222222223,1.069444444444457,1.0388888888888914,1.093055555555594,0.9783989834815526,0.037313046809602284,0.9718508736311098,69.44444444444444,1.0416666666510415,0.9504447268106423,1.7348851244491925e-08,0.9983507780622676,0
378,388.2611111111111,1.0388888888888914,1.044444444444423,1.0722222222222513,0.9689119170984217,0.034316077343249714,0.8937921879123396,63.888888888888886,0.9583333333189582,0.9740932642486583,1.2967878160186075e-10,0.9963231430178128,0
379,389.30555555555554,1.044444444444423,1.080555555555577,1.0666666666666629,0.97916666666665,0.03634635237318858,0.9466724732352134,66.66666666666667,0.999999999985,1.013020833333357,3.809576210045407e-09,0.9984062836529299,0
380,390.3861111111111,1.080555555555577,1.1166666666666742,1.0666666666666629,1.013020833333357,0.03860694217429506,1.0055515078082233,69.44444444444444,1.0416666666510415,1.0468750000000109,7.461665063601686e-08,0.9976497791957377,0
381,391.5027777777778,1.1166666666666742,1.0805555555555202,1.0666666666666629,1.0468750000000109,0.035662092238820164,0.9288503207647871,63.888888888888886,0.9583333333189582,1.0130208333333037,2.318045928817458e-12,0.9984331923953855,0
382,392.5833333333333,1.0805555555555202,1.080555555555577,1.0722222222222513,1.0077720207253282,0.037777760411837905,0.9839547450363451,69.44444444444444,1.0416666666510415,1.0077720207253813,1.6581914508151385e-08,0.9980511160957277,0
383,393.6638888888889,1.080555555555577,1.0416666666666856,1.0777777777777828,1.0025773195876442,0.03614643688341912,0.9414654998037422,63.888888888888886,0.9583333333189582,0.9664948453608377,2.744225159612146e-11,0.9982058159791463,0
384,394.7055555555556,1.0416666666666856,1.0472222222222172,1.0749999999999886,0.9689922480620434,0.03655149205364518,0.9520155152731756,66.66666666666667,0.999999999985,0.9741602067183519,5.269678471364614e-09,0.9978142145119259,0
385,395.7527777777778,1.0472222222222172,1.1499999999999773,1.0749999999999886,0.9741602067183519,0.03616043625722741,0.941830125714226,66.66666666666667,0.999999999985,1.0697674418604552,1.8630288423082675e-08,0.9970952465533037,0
386,396.90277777777777,1.1499999999999773,1.1222222222222058,1.0749999999999886,1.0697674418604552,0.04066681692030528,1.0592027435729081,72.22222222222223,1.0833333333170834,1.0439276485788072,1.595988265989945e-07,0.9967286568801688,0
387,398.025,1.1222222222222058,1.1222222222222626,1.0805555555555486,1.0385604113110454,0.038287706671974654,0.9972367404988887,69.44444444444444,1.0416666666510415,1.038560411311098,4.02074507022121e-09,0.9978076923070981,0
388,399.14722222222224,1.1222222222222626,1.0805555555555202,1.080555555555577,1.0385604113110707,0.0371748877614576,0.9682524006271604,66.66666666666667,0.999999999985,0.9999999999999474,4.856206409220576e-11,0.9989950722578644,0
389,400.22777777777776,1.0805555555555202,1.0666666666666629,1.080555555555577,0.9999999999999474,0.035833007821480044,0.9333019663024125,63.888888888888886,0.9583333333189582,0.9871465295629589,5.922751178388808e-11,0.9964895711015143,0
390,401.2944444444444,1.0666666666666629,1.0611111111111313,1.0805555555555486,0.9871465295629849,0.03698748903325045,0.9633714371760973,69.44444444444444,1.0416666666510415,0.9820051413881998,1.2430725782053287e-08,0.9984498243325916,0
391,402.35555555555555,1.0611111111111313,1.169444444444423,1.0805555555555202,0.9820051413882257,0.036449535926237266,0.9493599789402936,63.888888888888886,0.9583333333189582,1.0822622107969306,1.694401507990051e-09,0.9977068067845384,0
392,403.525,1.169444444444423,1.1166666666666742,1.0805555555555486,1.0822622107969022,0.04016066960073908,1.0460196948335092,75.0,1.1249999999831248,1.0334190231362606,1.5631738392585248e-07,0.9971454910873224,0
393,404.64166666666665,1.1166666666666742,1.0833333333333712,1.0986111111110972,1.016434892541107,0.037730046577709335,0.9827119965784462,66.66666666666667,0.999999999985,0.9860935524652809,1.5659590291150494e-10,0.999396211220815,0
394,405.725,1.0833333333333712,1.1083333333332916,1.1000000000000227,0.984848484848499,0.03750476513806368,0.9768443448412485,66.66666666666667,0.999999999985,1.007575757575699,1.7898222903767191e-09,0.9992594902890736,0
395,406.8333333333333,1.1083333333332916,1.0611111111111313,1.112499999999983,0.9962546816479179,0.03512215772669179,0.9147872551032473,63.888888888888886,0.9583333333189582,0.953807740324627,4.14581606891784e-12,0.9974408591192843,0
396,407.89444444444445,1.0611111111111313,1.1416666666666515,1.0958333333333314,0.9683143219265093,0.04014309217529692,1.045561875445044,69.44444444444444,1.0416666666510415,1.0418250950570223,2.5121139515249524e-06,0.9983951307313716,0
397,409.0361111111111,1.1416666666666515,1.1416666666667084,1.0958333333333314,1.0418250950570223,0.0363491414604168,0.9467451174465857,63.888888888888886,0.9583333333189582,1.041825095057074,4.7889647976362415e-12,0.9982832604168064,0
398,410.1777777777778,1.1416666666667084,1.1305555555555316,1.0958333333333314,1.041825095057074,0.03845397734035848,1.0015674051897834,66.66666666666667,0.999999999985,1.0316856780734907,1.7030842014431613e-10,0.9989434143015452,0
399,411.30833333333334,1.1305555555555316,1.055555555555543,1.112499999999983,1.0162297128589204,0.036465237376662664,0.9497689369219631,63.888888888888886,0.9583333333189582,0.9488139825218509,3.5865568327742015e-12,0.9977114045277762,0
400,412.3638888888889,1.055555555555543,1.0888888888889028,1.112499999999983,0.9488139825218509,0.03757734939588911,0.9787348651930026,69.44444444444444,1.0416666666510415,0.9787765293383546,1.8212648456028546e-07,0.9977467061948339,0
401,413.4527777777778,1.0888888888889028,1.0972222222222285,1.112499999999983,0.9787765293383546,0.03567934929430755,0.9292997958381387,61.111111111111114,0.9166666666529166,0.9862671660424678,9.581351337328847e-12,0.9967050334433181,0
402,414.55,1.0972222222222285,1.1222222222222058,1.10277777777776,0.9949622166247069,0.03904601169706943,1.016987456779918,69.44444444444444,1.0416666666510415,1.0176322418136035,5.4030714125019585e-08,0.9987297125425205,0
403,415.6722222222222,1.1222222222222058,1.1555555555555657,1.10277777777776,1.0176322418136035,0.034759778688178145,0.9053487767350198,61.111111111111114,0.9166666666529166,1.047858942065517,1.892504165532105e-12,0.995761206098952,0
404,416.8277777777778,1.1555555555555657,1.0777777777777828,1.1152777777777487,1.0361145703611818,0.03927333984492239,1.0229084168188871,69.44444444444444,1.0416666666510415,0.9663760896637906,1.6750637543694324e-09,0.998099313856572,0
405,417.90555555555557,1.0777777777777828,1.055555555555543,1.1097222222222172,0.9712140175219114,0.03723474629973552,0.9698114685053887,63.888888888888886,0.9583333333189582,0.9511889862327839,1.6521126133817177e-10,0.999067235996624,0
406,418.9611111111111,1.055555555555543,1.0972222222222285,1.1097222222222172,0.9511889862327839,0.03690548491969127,0.961235568459439,66.66666666666667,0.999999999985,0.9887359198998851,1.1579531111749475e-08,0.9979370293843864,0
407,420.05833333333334,1.0972222222222285,1.0888888888889028,1.0972222222222285,1.0,0.03779907014431144,0.984509775619265,66.66666666666667,0.999999999985,0.9924050632911462,8.71075989117287e-10,0.9987422076117374,0
408,421.14722222222224,1.0888888888889028,1.1305555555555316,1.0930555555555657,0.9961880559085169,0.038651724882085306,1.0067179125221455,69.44444444444444,1.0416666666510415,1.0343074968233483,4.156846244995904e-08,0.9991771117221758,0
409,422.27777777777777,1.1305555555555316,1.0722222222222513,1.0930555555555657,1.0343074968233483,0.03539603736912557,0.9219206894520217,63.888888888888886,0.9583333333189582,0.9809402795425842,1.0189607404370582e-12,0.9980458255833371,0
410,423.35,1.0722222222222513,1.0611111111110745,1.0930555555555657,0.9809402795425842,0.03819116666923841,0.9947222718606583,66.66666666666667,0.999999999985,0.9707750952985598,8.251403116332767e-09,0.9979360195007898,0
411,424.4111111111111,1.0611111111110745,0.98888888888888,1.0930555555555657,0.9707750952985598,0.03758599944274719,0.978960163213796,69.44444444444444,1.0416666666510415,0.9047013977128171,2.835582968430117e-08,0.9981263070058628,0
412,425.4,0.98888888888888,1.0944444444444912,1.0833333333333428,0.9128205128204967,0.03754561000237263,0.977908184984471,66.66666666666667,0.999999999985,1.0102564102564446,6.149645628283906e-07,0.9991143647417613,0
413,426.49444444444447,1.0944444444444912,1.0666666666666629,1.0833333333333428,1.0102564102564446,0.03828451511643876,0.9971536136491401,69.44444444444444,1.0416666666510415,0.9846153846153725,8.554576602648467e-09,0.9991023741063865,0
414,427.56111111111113,1.0666666666666629,1.0666666666666629,1.075000000000017,0.9922480620154847,0.038092248269963394,0.9921458558085423,66.66666666666667,0.999999999985,0.9922480620154847,3.976874385358542e-09,0.9993867391650182,0
415,428.6277777777778,1.0666666666666629,1.022222222222183,1.069444444444457,0.9974025974025821,0.04007321325362286,1.0437418179347617,72.22222222222223,1.0833333333170834,0.955844155844108,1.2283031765036867e-06,0.9985364542634028,0
416,429.65,1.022222222222183,1.0277777777778283,1.069444444444457,0.955844155844108,0.03723330374639154,0.9697738959443818,66.66666666666667,0.999999999985,0.9610389610389969,1.5634416428156328e-08,0.9992287246656761,0
417,430.6777777777778,1.0277777777778283,1.0361111111110972,1.0666666666666629,0.9635416666667175,0.03653050467624485,0.9514688807095116,63.888888888888886,0.9583333333189582,0.9713541666666571,2.0497137320774073e-09,0.9971260881741502,0
418,431.7138888888889,1.0361111111110972,1.0583333333333371,1.0638888888888687,0.9738903394255929,0.03620116305154994,0.9428908906215924,63.888888888888886,0.9583333333189582,0.99477806788514,7.955448522167785e-10,0.9976635926909359,0
419,432.77222222222224,1.0583333333333371,1.11388888888888,1.0597222222222058,0.998689384010504,0.04006459208906056,1.0435172721785724,72.22222222222223,1.0833333333170834,1.0511140235910958,6.83259759171051e-06,0.9973659984539104,0
420,433.8861111111111,1.11388888888888,1.0722222222221944,1.0597222222222058,1.0511140235910958,0.04001723291866716,1.0422837612472318,72.22222222222223,1.0833333333170834,1.0117955439056252,4.220938762955484e-07,0.99613447186112,0
421,434.9583333333333,1.0722222222221944,1.0027777777777942,1.0625,1.0091503267973594,0.03530974040256617,0.9196730096318659,61.111111111111114,0.9166666666529166,0.943790849673218,5.096057256737119e-12,0.9948062662121644,0
422,435.9611111111111,1.0027777777777942,1.0388888888888914,1.0625,0.943790849673218,0.03595753817075057,0.936545467948089,63.888888888888886,0.9583333333189582,0.9777777777777802,5.895054666638089e-09,0.9969722601374242,0
423,437.0,1.0388888888888914,1.0611111111111313,1.0486111111111143,0.9907284768211915,0.03764634280507017,0.9805318587574667,66.66666666666667,0.999999999985,1.0119205298013407,9.823034829992139e-09,0.9989465470620986,0
424,438.06111111111113,1.0611111111111313,1.0499999999999545,1.0486111111111143,1.0119205298013407,0.03788533446241514,0.986756605081894,66.66666666666667,0.999999999985,1.001324503311212,2.5848714280130025e-09,0.9991911515501453,0
425,439.1111111111111,1.0499999999999545,1.0944444444444912,1.044444444444423,1.0053191489361473,0.038006741759819995,0.9899187641157078,66.66666666666667,0.999999999985,1.0478723404255983,1.4764246714094043e-08,0.9985845520189218,0
426,440.2055555555556,1.0944444444444912,1.0249999999999773,1.0541666666666458,1.038208168643016,0.03687983885665756,0.9605675943620224,66.66666666666667,0.999999999985,0.9723320158102743,1.1032891961137992e-10,0.9980948793414962,0
427,441.23055555555555,1.0249999999999773,0.9944444444444684,1.0541666666666458,0.9723320158102743,0.036565877689370536,0.9523902017124461,63.888888888888886,0.9583333333189582,0.9433465085639413,6.849148470600142e-10,0.9982496400220049,0
428,442.225,0.9944444444444684,0.9944444444444116,1.0541666666666458,0.9433465085639413,0.03666913640107774,0.9550796649903911,66.66666666666667,0.999999999985,0.9433465085638874,4.244285278787174e-08,0.998076254877983,0
429,443.21944444444443,0.9944444444444116,1.1111111111111427,1.044444444444423,0.9521276595744562,0.03640087623210992,0.9480925947331128,63.888888888888886,0.9583333333189582,1.0638297872340947,2.9487141617323687e-08,0.9977974541338319,0
430,444.3305555555556,1.1111111111111427,1.3222222222221944,1.044444444444423,1.0638297872340947,0.035767702378258506,0.9316010290304826,63.888888888888886,0.9583333333189582,1.26595744680851,9.429631520063708e-10,0.9980235053703235,0
431,445.65277777777777,1.3222222222221944,1.275000000000034,1.044444444444423,1.26595744680851,0.03986960192483415,1.0384385831500436,69.44444444444444,1.0416666666510415,1.2207446808511215,3.883901880663565e-11,0.9962623020434958,0
432,446.9277777777778,1.275000000000034,1.10277777777776,1.055555555555543,1.207894736842152,0.03687096874439955,0.9603365645457992,66.66666666666667,0.999999999985,1.044736842105259,2.6369780586009937e-14,0.9979976756937787,0
433,448.03055555555557,1.10277777777776,1.0972222222222285,1.0777777777778113,1.0231958762886115,0.035946029733693714,0.9362457206595627,63.888888888888886,0.9583333333189582,1.0180412371133762,1.2665175332104983e-11,0.9979734278073249,0
434,449.1277777777778,1.0972222222222285,1.0527777777777487,1.0958333333333599,1.001267427122922,0.03586724976055622,0.9341938274944458,66.66666666666667,0.999999999985,0.9607097591887969,1.5689427534937295e-10,0.9964098640114594,0
435,450.18055555555554,1.0527777777777487,1.0472222222222172,1.0958333333333599,0.9607097591887969,0.03907671955829499,1.017787269829538,63.888888888888886,0.9583333333189582,0.9556400506970572,2.053816317015844e-08,0.9965604874260148,0
436,451.22777777777776,1.0472222222222172,1.1000000000000227,1.0749999999999886,0.9741602067183519,0.033610803737326105,0.8754227212332092,55.55555555555556,0.8333333333208333,1.0232558139535204,3.4111435525119305e-05,0.8675827375200371,0
437,452.3277777777778,1.1000000000000227,1.0861111111111086,1.0986111111111256,1.001264222503168,0.03384634132112937,0.8815575031972822,55.55555555555556,0.8333333333208333,0.9886219974715397,3.4961383789777756e-05,0.44026283794374776,0
438,453.4138888888889,1.0861111111111086,0.9777777777777601,1.0986111111111256,0.9886219974715397,0.033912164758761944,0.8832719320857899,63.888888888888886,0.9583333333189582,0.8900126422250038,0.000481417024275288,0.48927922602273444,0
439,454.39166666666665,0.9777777777777601,1.0027777777777942,1.0986111111111256,0.8900126422250038,0.030019412011096758,0.7818817889020192,52.77777777777778,0.7916666666547916,0.9127686472819245,4.3972660932922736e-05,0.5670724843830925,0
440,455.39444444444445,1.0027777777777942,1.0722222222221944,1.0916666666666686,0.918575063613245,0.03224476098536811,0.8398429453794138,61.111111111111114,0.9166666666529166,0.9821882951653672,0.0020598960109055042,0.5170794861608916,0
441,456.46666666666664,1.0722222222221944,1.091666666666697,1.0791666666666515,0.9935649935649817,0.03258913995805194,0.848812596321369,61.111111111111114,0.9166666666529166,1.011583011583054,0.00019441178301349282,0.48771831897602014,0
442,457.55833333333334,1.091666666666697,1.0833333333333144,1.0791666666666515,1.011583011583054,0.03813512039641753,0.9932624977638745,80.55555555555556,1.2083333333152082,1.0038610038610003,0.12972122430801392,0.42872039217609703,0
443,458.64166666666665,1.0833333333333144,1.0611111111111313,1.0777777777777544,1.005154639175262,0.0402021917221456,1.047101174728996,80.55555555555556,1.2083333333152082,0.9845360824742669,0.19742076098918915,0.3803264574783588,0
444,459.7027777777778,1.0611111111111313,1.0472222222222172,1.0666666666666629,0.9947916666666892,0.0371836504080568,0.9684806314064964,77.77777777777777,1.1666666666491665,0.981770833333332,0.12326815724372864,0.42265879911343984,0
445,460.75,1.0472222222222172,1.0472222222222172,1.0666666666666629,0.981770833333332,0.04091999861658431,1.065797081847446,77.77777777777777,1.1666666666491665,0.981770833333332,0.3191114068031311,0.367643260162018,0
446,461.7972222222222,1.0472222222222172,1.0638888888888687,1.0666666666666629,0.981770833333332,0.04185753677525696,1.0902160815399082,80.55555555555556,1.2083333333152082,0.9973958333333179,0.30177780985832214,0.39888221622071096,0
447,462.8611111111111,1.0638888888888687,1.1194444444444684,1.0625,1.0013071895424646,0.04564378956784989,1.188832340433104,86.11111111111111,1.2916666666472916,1.0535947712418527,0.46856558322906494,0.3700553161100828,0
448,463.98055555555555,1.1194444444444684,1.0749999999999886,1.0625,1.0535947712418527,0.03899119268849631,1.0155596478517104,83.33333333333333,1.2499999999812497,1.0117647058823422,0.08795294910669327,0.4106003740524634,0
449,465.05555555555554,1.0749999999999886,1.0083333333333258,1.0680555555555316,1.0065019505851875,0.048378196271734474,1.260052349819985,113.88888888888889,1.708333333307708,0.9440832249675044,0.5270137786865234,0.2716620506650168,1
450,466.06388888888887,1.0083333333333258,1.0083333333333258,1.0680555555555316,0.9440832249675044,0.03058672469543905,0.7966579429564821,52.77777777777778,0.7916666666547916,0.9440832249675044,4.672599516197806e-06,0.6891717782032946,0
451,467.0722222222222,1.0083333333333258,1.0500000000000114,1.0625,0.9490196078431301,0.03806023224923504,0.9913119706028176,63.888888888888886,0.9583333333189582,0.9882352941176578,3.8604731855684804e-08,0.9976472553324541,0
452,468.1222222222222,1.0500000000000114,1.0583333333333371,1.0555555555555713,0.994736842105259,0.03854059953749451,1.003823555924192,66.66666666666667,0.999999999985,1.002631578947357,1.2810241400984523e-07,0.9945553477188693,0
453,469.18055555555554,1.0583333333333371,1.1111111111111427,1.0541666666666742,1.003952569169957,0.044338469447040174,1.1548341385105871,77.77777777777777,1.1666666666491665,1.0540184453228156,0.004027368035167456,0.9912977951618476,0
454,470.2916666666667,1.1111111111111427,1.0638888888888687,1.0541666666666742,1.0540184453228156,0.04181774393496408,1.0891796422804656,69.44444444444444,1.0416666666510415,1.009222661396548,8.594581686338643e-07,0.9953009439056579,0
455,471.35555555555555,1.0638888888888687,1.0,1.061111111111103,1.0026178010471092,0.03959845759438832,1.0313763923895696,69.44444444444444,1.0416666666510415,0.9424083769633581,8.029932132558315e-07,0.9948160972008453,0
456,472.35555555555555,1.0,1.0500000000000114,1.061111111111103,0.9424083769633581,0.040278803594202994,1.0490965978090094,66.66666666666667,0.999999999985,0.9895287958115367,9.667215636000037e-06,0.9958966847627844,0
457,473.40555555555557,1.0500000000000114,1.044444444444423,1.0541666666666742,0.9960474308300431,0.04442110450930358,1.1569864408369837,75.0,1.1249999999831248,0.9907773386033981,0.0006223467644304037,0.9933927894374863,0
458,474.45,1.044444444444423,1.0722222222222513,1.0500000000000114,0.9947089947089635,0.042174876388559254,1.0984814687648998,72.22222222222223,1.0833333333170834,1.0211640211640378,0.0001078076966223307,0.9949889430237404,0
459,475.52222222222224,1.0722222222222513,1.0944444444444343,1.0500000000000114,1.0211640211640378,0.04367542117925046,1.1375644676204255,72.22222222222223,1.0833333333170834,1.0423280423280215,7.55509827286005e-05,0.9946539481758858,0
460,476.6166666666667,1.0944444444444343,1.0388888888888914,1.0541666666666742,1.0382081686429343,0.04317626512825204,1.1245635125733497,72.22222222222223,1.0833333333170834,0.9855072463768069,2.2269234250416048e-05,0.9938126355405932,0
461,477.65555555555557,1.0388888888888914,1.0305555555555657,1.0541666666666742,0.9855072463768069,0.041424142408631265,1.078927946963785,69.44444444444444,1.0416666666510415,0.9776021080368932,1.2579228496178985e-05,0.9957291573946202,0
462,478.68611111111113,1.0305555555555657,0.9916666666666742,1.0541666666666742,0.9776021080368932,0.03983356326086752,1.0374999246899292,66.66666666666667,0.999999999985,0.9407114624505933,8.539621489944693e-07,0.9951266217910304,0
463,479.6777777777778,0.9916666666666742,1.0749999999999886,1.0472222222222172,0.9469496021220277,0.04329733530864501,1.1277168911003295,72.22222222222223,1.0833333333170834,1.026525198938986,0.0009641534416005015,0.9952022596355617,0
464,480.7527777777778,1.0749999999999886,1.0583333333333371,1.0472222222222172,1.026525198938986,0.042349401248221015,1.1030271210724722,69.44444444444444,1.0416666666510415,1.0106100795756052,2.7055959890276426e-06,0.9975126163643485,0
465,481.81111111111113,1.0583333333333371,1.0388888888888914,1.0472222222222172,1.0106100795756052,0.0430713324861621,1.1218304503174612,75.0,1.1249999999831248,0.9920424403183096,0.00024203569046221673,0.9934499789224064,0
466,482.85,1.0388888888888914,1.0027777777777374,1.0472222222222172,0.9920424403183096,0.03900859457713263,1.0160128952308465,66.66666666666667,0.999999999985,0.9575596816975788,3.301810735933941e-08,0.9985956399223874,0
467,483.85277777777776,1.0027777777777374,0.9722222222222285,1.0416666666666572,0.9626666666666366,0.0384940143040387,1.0026102028559376,63.888888888888886,0.9583333333189582,0.9333333333333479,1.932449578134765e-08,0.9982652536350485,0
468,484.825,0.9722222222222285,0.9416666666666629,1.0388888888888914,0.9358288770053514,0.03721106702472332,0.9691947211187444,63.888888888888886,0.9583333333189582,0.9064171122994594,1.993723763860089e-08,0.9983558364404961,0
469,485.76666666666665,0.9416666666666629,1.0527777777778056,1.0347222222222285,0.9100671140939505,0.03690131884287807,0.9611270593523917,63.888888888888886,0.9583333333189582,1.0174496644295508,5.756192535955051e-07,0.9973982205296839,0
470,486.81944444444446,1.0527777777778056,1.1833333333333371,1.0347222222222285,1.0174496644295508,0.04166125427307475,1.0851037324412767,69.44444444444444,1.0416666666510415,1.1436241610738223,3.123799615423195e-05,0.9967921674599334,0
471,488.0027777777778,1.1833333333333371,1.2555555555555316,1.0347222222222285,1.1436241610738223,0.04021548689260327,1.0474474590485343,66.66666666666667,0.999999999985,1.2134228187919156,3.2846363406946466e-09,0.9980243692644364,0
472,489.2583333333333,1.2555555555555316,1.10277777777776,1.0458333333333485,1.2005312084992956,0.04000944095245372,1.0420808126858216,69.44444444444444,1.0416666666510415,1.0544488711819067,1.3210455299117463e-11,0.9985703686839913,0
473,490.3611111111111,1.10277777777776,1.0583333333333371,1.0555555555555713,1.0447368421052308,0.038600017636380164,1.0053711521740019,63.888888888888886,0.9583333333189582,1.002631578947357,1.3335826887228563e-10,0.997620342570454,0
474,491.4194444444444,1.0583333333333371,1.0444444444444798,1.0555555555555713,1.002631578947357,0.03918639979048532,1.0206439872136248,66.66666666666667,0.999999999985,0.989473684210545,2.5979362661132654e-08,0.9981876195648105,0
475,492.4638888888889,1.0444444444444798,1.099999999999966,1.0486111111111427,0.9960264900662289,0.03988388306117355,1.0388105478115923,69.44444444444444,1.0416666666510415,1.0490066225164922,1.0244748409604654e-06,0.9985736388603885,0
476,493.56388888888887,1.099999999999966,1.0888888888889028,1.0555555555555713,1.042105263157847,0.04355413823241267,1.134405547405673,72.22222222222223,1.0833333333170834,1.0315789473684187,2.267237323394511e-05,0.9953605051049467,0
477,494.65277777777777,1.0888888888889028,1.01111111111112,1.07361111111112,1.0142302716688274,0.04118282760636347,1.0726426923020371,72.22222222222223,1.0833333333170834,0.9417852522639073,1.1439352647357737e-06,0.9987399636598895,0
478,495.6638888888889,1.01111111111112,0.9666666666666401,1.07361111111112,0.9417852522639073,0.038926128849117135,1.0138650033627437,66.66666666666667,0.999999999985,0.9003880983182085,2.2399333943212696e-07,0.9985105402125457,0
479,496.63055555555553,0.9666666666666401,1.025000000000034,1.07361111111112,0.9003880983182085,0.04292933688354415,1.1181320509034387,75.0,1.1249999999831248,0.9547218628719515,0.006864347029477358,0.9954390866926441,0
480,497.65555555555557,1.025000000000034,0.9555555555555202,1.07361111111112,0.9547218628719515,0.042389095435190344,1.1040609908199917,69.44444444444444,1.0416666666510415,0.8900388098317837,4.117032585781999e-05,0.9957949159681726,0
481,498.6111111111111,0.9555555555555202,0.9583333333333712,1.0513888888889085,0.9088507265521291,0.04238866976919991,1.1040499039777192,75.0,1.1249999999831248,0.9114927344782225,0.008768069557845592,0.9908243052476304,0
482,499.56944444444446,0.9583333333333712,0.5388888888888914,1.034722222222257,0.9261744966443008,0.04383797062040797,1.1417982097000596,75.0,1.1249999999831248,0.5208053691275017,0.0008471446926705539,0.991922182501654,0
483,500.10833333333335,0.5388888888888914,1.6166666666666742,1.018055555555577,0.5293315143246844,0.04087952925013584,1.0647430218737608,100.0,1.4999999999774998,1.5879945429740532,0.9738353490829468,0.4306186016647177,1
484,501.725,1.6166666666666742,1.1305555555555316,1.018055555555577,1.5879945429740532,0.029538940584057143,0.7693674911952163,52.77777777777778,0.7916666666547916,1.1105047748976338,3.322253062931768e-12,0.4521998219026745,0
485,502.85555555555555,1.1305555555555316,1.0333333333333599,1.018055555555577,1.1105047748976338,0.037391772028519586,0.9739013406747684,63.888888888888886,0.9583333333189582,1.0150068212824057,1.1215459984337262e-11,0.9948721945284562,0
486,503.8888888888889,1.0333333333333599,1.0861111111111086,1.018055555555577,1.0150068212824057,0.041754302174586796,1.087527246254969,72.22222222222223,1.0833333333170834,1.0668485675306707,2.8235181162017398e-05,0.9970295598447769,0
487,504.975,1.0861111111111086,1.022222222222183,1.018055555555577,1.0668485675306707,0.0422010158982669,1.0991622951116544,72.22222222222223,1.0833333333170834,1.0040927694405952,3.6978783555241534e-06,0.9950952758491046,0
488,505.9972222222222,1.022222222222183,1.1055555555555543,1.0236111111111086,0.9986431478968435,0.04207360277104183,1.0958437089978588,69.44444444444444,1.0416666666510415,1.0800542740841264,4.763120523421094e-05,0.9954641762995935,0
489,507.10277777777776,1.1055555555555543,1.01111111111112,1.029166666666697,1.0742240215924097,0.039915272309358485,1.0396281081793322,69.44444444444444,1.0416666666510415,0.9824561403508568,1.9958962482746756e-08,0.9968261480678529,0
490,508.1138888888889,1.01111111111112,0.9805555555555543,1.0277777777777715,0.9837837837837984,0.0374427334172048,0.9752286745257911,63.888888888888886,0.9583333333189582,0.9540540540540587,3.063780340539779e-08,0.9929847725810619,0
491,509.09444444444443,0.9805555555555543,1.0416666666666856,1.0277777777777715,0.9540540540540587,0.04056341439239337,1.0565095344763784,69.44444444444444,1.0416666666510415,1.0135135135135382,6.098593075876124e-05,0.9951600431422856,0
492,510.1361111111111,1.0416666666666856,1.0833333333333144,1.0375000000000227,1.0040160642570244,0.04230536345651913,1.1018801183482871,72.22222222222223,1.0833333333170834,1.044176706827268,7.551546877948567e-05,0.9958183615193221,0
493,511.21944444444443,1.0833333333333144,1.055555555555543,1.0625,1.019607843137237,0.04183026648504209,1.0895058030278177,72.22222222222223,1.0833333333170834,0.9934640522875698,1.0403616215626244e-05,0.9963745310308294,0
494,512.275,1.055555555555543,1.0472222222222172,1.0486111111111143,1.0066225165562763,0.03986604538492547,1.0383459499637215,69.44444444444444,1.0416666666510415,0.9986754966887339,1.3149760889064055e-06,0.995668041123491,0
495,513.3222222222222,1.0472222222222172,1.0249999999999773,1.0444444444444514,1.0026595744680735,0.04260755016613234,1.1097508349701668,72.22222222222223,1.0833333333170834,0.981382978723376,5.769812560174614e-05,0.9951225614617791,0
496,514.3472222222222,1.0249999999999773,0.9583333333333712,1.0444444444444514,0.981382978723376,0.042507395982939615,1.1071422318472341,69.44444444444444,1.0416666666510415,0.9175531914893919,2.0705798306153156e-05,0.9954598353185312,0
497,515.3055555555555,0.9583333333333712,1.0111111111111768,1.0333333333333314,0.927419354838748,0.03918824611766227,1.020692076416554,66.66666666666667,0.999999999985,0.9784946236559794,8.906644325179514e-06,0.9954741467250536,0
498,516.3166666666667,1.0111111111111768,1.3416666666665833,1.0333333333333314,0.9784946236559794,0.040565443689628375,1.056562389294179,69.44444444444444,1.0416666666510415,1.2983870967741153,0.0031523529905825853,0.9965421914770007,0
499,517.6583333333333,1.3416666666665833,1.2555555555555884,1.0333333333333314,1.2983870967741153,0.043196835199587086,1.125099278036289,72.22222222222223,1.0833333333170834,1.2150537634408942,3.544737392502384e-09,0.9955553196931999,0
500,518.9138888888889,1.2555555555555884,1.1222222222222626,1.0444444444444514,1.2021276595744916,0.03956049921685053,1.0303877333138325,69.44444444444444,1.0416666666510415,1.0744680851064146,1.861970994054829e-11,0.9971296606594229,0
501,520.0361111111112,1.1222222222222626,1.0805555555555202,1.05138888888888,1.0673712021136537,0.04163693266901072,1.084470255033807,69.44444444444444,1.0416666666510415,1.0277410832232248,2.737731392699061e-07,0.99597191489147,0
502,521.1166666666667,1.0805555555555202,1.0472222222222172,1.0680555555555316,1.0117035110533057,0.04027022718545784,1.0488732177571436,66.66666666666667,0.999999999985,0.9804941482444907,6.834409305156441e-08,0.996635853909009,0
503,522.1638888888889,1.0472222222222172,1.0805555555555202,1.05138888888888,0.9960369881109679,0.039939178850643825,1.0402507749144345,66.66666666666667,0.999999999985,1.0277410832232248,3.589952655147499e-07,0.9966708464950659,0
504,523.2444444444444,1.0805555555555202,1.1333333333333258,1.0638888888888687,1.0156657963446336,0.043250875133277425,1.1265067952791428,72.22222222222223,1.0833333333170834,1.0652741514360444,0.00012571719707921147,0.994180806459259,0
505,524.3777777777777,1.1333333333333258,1.036111111111154,1.0805555555555202,1.0488431876606956,0.04416124729542039,1.15021823287958,72.22222222222223,1.0833333333170834,0.9588688946016135,1.1738980902009644e-05,0.9948879791019516,0
506,525.4138888888889,1.036111111111154,0.9861111111110858,1.0805555555555202,0.9588688946016135,0.039556974844424955,1.030295937957686,66.66666666666667,0.999999999985,0.9125964010282841,8.252678753706277e-07,0.9947803596544071,0
507,526.4,0.9861111111110858,1.036111111111154,1.0805555555555202,0.9125964010282841,0.04266651337546779,1.1112865832245817,72.22222222222223,1.0833333333170834,0.9588688946016135,0.0012937727151438594,0.996492385293041,0
508,527.4361111111111,1.036111111111154,0.997222222222149,1.0805555555555202,0.9588688946016135,0.03963349623941156,1.0322890044834157,66.66666666666667,0.999999999985,0.9228791773778544,5.175519390832051e-07,0.9961347338317882,0
509,528.4333333333333,0.997222222222149,1.0638888888889824,1.0638888888888687,0.9373368146213589,0.04133797302761818,1.0766835902205487,69.44444444444444,1.0416666666510415,1.0000000000001068,0.00013919154298491776,0.9958807336081196,0
510,529.4972222222223,1.0638888888889824,1.069444444444457,1.0555555555555998,1.0078947368421516,0.040347229710307304,1.0508788157301159,66.66666666666667,0.999999999985,1.0131578947368116,1.663777311478043e-07,0.9970969386947517,0
511,530.5666666666667,1.069444444444457,0.997222222222149,1.0555555555555998,1.0131578947368116,0.042236848440270126,1.1000955849453138,72.22222222222223,1.0833333333170834,0.9447368421051542,1.1763892871385906e-05,0.9965535884210888,0
512,531.5638888888889,0.997222222222149,0.9305555555555429,1.0416666666666856,0.9573333333332456,0.038563659541724485,1.0044241738627695,69.44444444444444,1.0416666666510415,0.893333333333305,5.657512360812689e-07,0.9975501819113175,0
513,532.4944444444444,0.9305555555555429,1.0055555555555884,1.036111111111154,0.8981233243967334,0.037413579837308635,0.9744693440900822,63.888888888888886,0.9583333333189582,0.9705093833780075,1.541623078082921e-06,0.9958100315545995,0
514,533.5,1.0055555555555884,1.0249999999999773,1.0208333333333712,0.9850340136054377,0.040750552009392996,1.0613836970581254,72.22222222222223,1.0833333333170834,1.0040816326530018,1.1522375643835403e-05,0.9985226733282312,0
515,534.525,1.0249999999999773,1.2583333333333258,1.0152777777777828,1.0095759233925854,0.041180134558637074,1.0725725495233198,69.44444444444444,1.0416666666510415,1.2393980848153079,0.0002820469671860337,0.9976676742481209,0
516,535.7833333333333,1.2583333333333258,1.2805555555555657,1.0152777777777828,1.2393980848153079,0.039569508873083116,1.0306223976746773,66.66666666666667,0.999999999985,1.261285909712726,6.972027816187776e-11,0.999640690106516,0
