beat_index,peak_time_s,rr_prev_s,rr_next_s,rr_baseline_s,prematurity_index,aa_ratio,morph_index,qrs_width_ms,width_index,pause_index,pvc_score,morphology_score,is_pvc_candidate
0,0.3,,0.6444444444444444,0.7138888888889028,,0.041122013842043705,0.981074190393603,72.22222222222223,0.9999999999861537,0.9027237354085427,1.0170580253543449e-06,0.9965986229498168,0
1,0.9444444444444444,0.6444444444444444,0.6361111111111111,0.7138888888889028,0.9027237354085427,0.042590848712626826,1.016117123529477,75.0,1.0384615384471596,0.8910505836575702,6.153263257147046e-06,0.9979580654290969,0
2,1.5805555555555555,0.6361111111111111,0.6555555555555557,0.7138888888889028,0.8910505836575702,0.043654347388861994,1.0414896917791705,77.77777777777777,1.0769230769081655,0.918287937743173,2.5052138880710118e-05,0.9962637705808637,0
3,2.236111111111111,0.6555555555555557,0.6666666666666665,0.7138888888889028,0.918287937743173,0.04169128738749304,0.9946557135373743,80.55555555555556,1.1153846153691716,0.9338521400778026,0.00011115580855403095,0.9892947045212304,0
4,2.9027777777777777,0.6666666666666665,0.666666666666667,0.7138888888889028,0.9338521400778026,0.04391895705199529,1.0478026537859924,80.55555555555556,1.1153846153691716,0.9338521400778033,3.630674837040715e-05,0.9949407530747276,0
5,3.5694444444444446,0.666666666666667,0.655555555555555,0.6555555555555557,1.016949152542373,0.04358691800369236,1.0398809858019258,75.0,1.0384615384471596,0.999999999999999,1.6461133782286197e-05,0.9968301030896228,0
6,4.225,0.655555555555555,0.6750000000000007,0.6555555555555553,0.9999999999999994,0.046055472666938636,1.0987748735621252,80.55555555555556,1.1153846153691716,1.029661016949154,7.516946061514318e-05,0.9942140473799013,0
7,4.9,0.6750000000000007,0.6361111111111111,0.6555555555555557,1.0296610169491534,0.043332854353192805,1.033819626764897,80.55555555555556,1.1153846153691716,0.9703389830508472,7.867911335779354e-05,0.9923236982752929,0
8,5.536111111111111,0.6361111111111111,0.6222222222222218,0.6555555555555553,0.9703389830508478,0.04282987760624029,1.0218197887535898,75.0,1.0384615384471596,0.949152542372881,3.271496461820789e-05,0.9926646427298933,0
9,6.158333333333333,0.6222222222222218,0.6027777777777779,0.655555555555555,0.9491525423728815,0.04026928821752976,0.9607301696724543,66.66666666666667,0.9230769230641419,0.9194915254237297,4.312861165089998e-06,0.9945298189456591,0
10,6.761111111111111,0.6027777777777779,0.6194444444444445,0.6499999999999997,0.9273504273504279,0.041078121282435265,0.9800270175205146,66.66666666666667,0.9230769230641419,0.9529914529914535,4.03700687456876e-06,0.9972605819637304,0
11,7.3805555555555555,0.6194444444444445,0.6222222222222227,0.645833333333333,0.9591397849462371,0.04267449630078873,1.0181127575504554,77.77777777777777,1.0769230769081655,0.9634408602150549,7.550416921731085e-05,0.9925612598016745,0
12,8.002777777777778,0.6222222222222227,0.6472222222222221,0.645833333333333,0.9634408602150549,0.04300528032429674,1.0260044836051376,80.55555555555556,1.1153846153691716,1.0021505376344089,6.935265992069617e-05,0.9958615540372944,0
13,8.65,0.6472222222222221,0.655555555555555,0.6416666666666666,1.0086580086580086,0.04217329123795438,1.0061551877405195,75.0,1.0384615384471596,1.0216450216450208,3.1590931030223146e-05,0.9966747246326786,0
14,9.305555555555555,0.655555555555555,0.6472222222222221,0.6416666666666666,1.0216450216450208,0.04273679302812126,1.0195990104262675,77.77777777777777,1.0769230769081655,1.0086580086580086,4.8455403884872794e-05,0.9959337013738627,0
15,9.952777777777778,0.6472222222222221,0.6333333333333329,0.6416666666666666,1.0086580086580086,0.043405186608914945,1.035545303661328,80.55555555555556,1.1153846153691716,0.9870129870129863,0.00012055327533744276,0.9925022670162014,0
16,10.58611111111111,0.6333333333333329,0.6333333333333346,0.634722222222222,0.9978118161925599,0.04340505802962563,1.0355422360629696,77.77777777777777,1.0769230769081655,0.9978118161925627,4.946111948811449e-05,0.9970128575691384,0
17,11.219444444444445,0.6333333333333346,0.6222222222222218,0.6333333333333337,1.0000000000000013,0.04228364421776516,1.0087879493737713,75.0,1.0384615384471596,0.9824561403508759,2.474257598805707e-05,0.9981675186540799,0
18,11.841666666666667,0.6222222222222218,0.5972222222222214,0.6277777777777778,0.9911504424778754,0.04025625689935319,0.9604192731784513,66.66666666666667,0.9230769230641419,0.9513274336283173,6.430820576497354e-06,0.998241817416287,0
19,12.438888888888888,0.5972222222222214,0.5833333333333339,0.6277777777777778,0.9513274336283173,0.04146586010604259,0.9892775506757221,75.0,1.0384615384471596,0.9292035398230098,3.005823054991197e-05,0.9968357744403404,0
20,13.022222222222222,0.5833333333333339,0.6083333333333343,0.6277777777777778,0.9292035398230098,0.04254107985558679,1.0149297560694368,77.77777777777777,1.0769230769081655,0.9690265486725679,5.8280929806642234e-05,0.9969647725665662,0
21,13.630555555555556,0.6083333333333343,0.6083333333333325,0.6277777777777778,0.9690265486725679,0.04273754232617049,1.0196168869091615,72.22222222222223,0.9999999999861537,0.9690265486725651,1.6131671145558357e-05,0.9989779354585604,0
22,14.238888888888889,0.6083333333333325,0.6416666666666675,0.6277777777777773,0.9690265486725658,0.041648196048289565,0.9936276558920359,69.44444444444444,0.9615384615251478,1.0221238938053119,1.5917876226012595e-05,0.9982857067371156,0
23,14.880555555555556,0.6416666666666675,0.6472222222222221,0.6277777777777773,1.0221238938053119,0.04222843185449141,1.0074707127032478,77.77777777777777,1.0769230769081655,1.0309734513274342,6.778821989428252e-05,0.9971337591140494,0
24,15.527777777777779,0.6472222222222221,0.6333333333333329,0.6277777777777773,1.0309734513274342,0.04326609037678177,1.0322267958700748,86.11111111111111,1.1923076922911833,1.008849557522124,0.0006399448029696941,0.9900440735663479,0
25,16.16111111111111,0.6333333333333329,0.6333333333333329,0.6277777777777773,1.008849557522124,0.04278859378945079,1.0208348543267718,77.77777777777777,1.0769230769081655,1.008849557522124,6.527108780574054e-05,0.9967998941066591,0
26,16.794444444444444,0.6333333333333329,0.594444444444445,0.6277777777777773,1.008849557522124,0.042132954105670355,1.005192838971552,72.22222222222223,0.9999999999861537,0.9469026548672582,1.2235634130774997e-05,0.9994246612846005,0
27,17.38888888888889,0.594444444444445,0.6138888888888872,0.615277777777778,0.9661399548532736,0.032474008683101234,0.7747531991012289,55.55555555555556,0.7692307692201182,0.9977426636568817,0.0025799418799579144,0.961093967861947,0
28,18.002777777777776,0.6138888888888872,0.594444444444445,0.6111111111111107,1.0045454545454524,0.04250965972739296,1.014180145971346,77.77777777777777,1.0769230769081655,0.9727272727272742,9.212600707542151e-05,0.9970964105736101,0
29,18.59722222222222,0.594444444444445,0.6138888888888907,0.6111111111111107,0.9727272727272742,0.04196240812030767,1.0011240142987803,75.0,1.0384615384471596,1.0045454545454582,5.555389361688867e-05,0.9986860146568537,0
30,19.211111111111112,0.6138888888888907,0.6027777777777779,0.6138888888888889,1.0000000000000029,0.041789251423688785,0.996992904217471,72.22222222222223,0.9999999999861537,0.9819004524886878,2.2682128474116325e-05,0.9992506591235266,0
31,19.81388888888889,0.6027777777777779,0.6194444444444436,0.6138888888888889,0.9819004524886878,0.04257257259560711,1.0156810985143228,75.0,1.0384615384471596,1.0090497737556545,4.816525324713439e-05,0.9991600700583907,0
32,20.433333333333334,0.6194444444444436,0.6305555555555564,0.6166666666666671,1.0045045045045022,0.042703581954328496,1.0188066725933373,75.0,1.0384615384471596,1.0225225225225232,5.523398795048706e-05,0.9981867356941846,0
33,21.06388888888889,0.6305555555555564,0.6666666666666643,0.6166666666666671,1.0225225225225232,0.04319101338528068,1.03043563605633,77.77777777777777,1.0769230769081655,1.0810810810810765,0.0001097694257623516,0.9975812230766676,0
34,21.730555555555554,0.6666666666666643,0.6750000000000007,0.6166666666666671,1.0810810810810765,0.04404914589000545,1.0509086521775037,80.55555555555556,1.1153846153691716,1.094594594594595,0.00015051085210870951,0.9974850783579985,0
35,22.405555555555555,0.6750000000000007,0.625,0.6166666666666671,1.094594594594595,0.04287195523978628,1.02282366177458,75.0,1.0384615384471596,1.0135135135135127,3.465800909907557e-05,0.9991783366941938,0
36,23.030555555555555,0.625,0.6111111111111107,0.6166666666666671,1.0135135135135127,0.042817003601703506,1.0215126453917263,75.0,1.0384615384471596,0.9909909909909896,3.9702597860014066e-05,0.9988770514027598,0
37,23.641666666666666,0.6111111111111107,0.62777777777778,0.6166666666666671,0.9909909909909896,0.04126740739151747,0.9845429373131078,69.44444444444444,0.9615384615251478,1.0180180180180207,1.7292994016315788e-05,0.999262369393059,0
38,24.269444444444446,0.62777777777778,0.6472222222222221,0.6222222222222218,1.0089285714285756,0.04209609043724599,1.0043133588518942,72.22222222222223,0.9999999999861537,1.040178571428572,2.4263075829367153e-05,0.9998541781347765,0
39,24.916666666666668,0.6472222222222221,0.6277777777777764,0.62638888888889,1.033259423503324,0.04208680295224058,1.004091781380823,75.0,1.0384615384471596,1.0022172949002177,2.3615053578396328e-05,0.999704980343717,0
40,25.544444444444444,0.6277777777777764,0.6277777777777764,0.6277777777777782,0.9999999999999972,0.04397168059359626,1.049060513045744,80.55555555555556,1.1153846153691716,0.9999999999999972,6.980643229326233e-05,0.9979793006974644,0
41,26.17222222222222,0.6277777777777764,0.658333333333335,0.6277777777777782,0.9999999999999972,0.042096533606762354,1.0043239318305461,72.22222222222223,0.9999999999861537,1.0486725663716834,2.504344411136117e-05,0.9991523011706422,0
42,26.830555555555556,0.658333333333335,0.6722222222222207,0.6291666666666682,1.0463576158940397,0.042884439393115766,1.0231215042067994,75.0,1.0384615384471596,1.0684326710816727,4.03419544454664e-05,0.9985834874133495,0
43,27.502777777777776,0.6722222222222207,0.6833333333333336,0.6375000000000011,1.0544662309368151,0.041436156268296054,0.9885688872167605,72.22222222222223,0.9999999999861537,1.0718954248366,1.617943235032726e-05,0.9994182828073435,0
44,28.18611111111111,0.6833333333333336,0.6750000000000007,0.6375000000000011,1.0718954248366,0.042837425740919984,1.0219998694312606,77.77777777777777,1.0769230769081655,1.058823529411764,3.671593003673479e-05,0.9988844653451032,0
45,28.86111111111111,0.6750000000000007,0.6361111111111128,0.6375000000000011,1.058823529411764,0.04358982357049162,1.0399503057677757,77.77777777777777,1.0769230769081655,0.9978213507625283,3.1645686249248683e-05,0.9980356024428438,0
46,29.497222222222224,0.6361111111111128,0.625,0.6416666666666675,0.9913419913419927,0.04131865447081596,0.9857655716672016,75.0,1.0384615384471596,0.9740259740259728,1.4280477444117423e-05,0.9991465106319114,0
47,30.122222222222224,0.625,0.6388888888888893,0.6416666666666675,0.9740259740259728,0.0405789175746396,0.9681171953180235,69.44444444444444,0.9615384615251478,0.995670995670995,5.8789723880181555e-06,0.9993706851064894,0
48,30.761111111111113,0.6388888888888893,0.655555555555555,0.6430555555555557,0.9935205183585317,0.042085006216855715,1.0040489155153567,75.0,1.0384615384471596,1.019438444924405,1.8930815713247284e-05,0.9993319700239485,0
49,31.416666666666668,0.655555555555555,0.6611111111111079,0.6472222222222221,1.012875536480686,0.03248149771141078,0.7749318696404162,52.77777777777778,0.7307692307591124,1.0214592274678063,0.0018636600580066442,0.9552721629626117,0
50,32.077777777777776,0.6611111111111079,0.6527777777777786,0.656944444444445,1.006342494714582,0.04269284447678206,1.01855050172264,77.77777777777777,1.0769230769081655,0.9936575052854126,2.376515476498753e-05,0.9972332991006314,0
51,32.730555555555554,0.6527777777777786,0.6833333333333371,0.656944444444445,0.9936575052854126,0.042014579561962334,1.0023687017569292,72.22222222222223,0.9999999999861537,1.040169133192394,8.071521733654663e-06,0.999567246004778,0
52,33.41388888888889,0.6833333333333371,0.68611111111111,0.6583333333333314,1.0379746835443124,0.042092058305740046,1.0042171617111622,75.0,1.0384615384471596,1.0421940928270055,1.1631654160737526e-05,0.998927385059903,0
53,34.1,0.68611111111111,0.68333333333333,0.6583333333333314,1.0421940928270055,0.04050662742402581,0.9663925229500973,69.44444444444444,0.9615384615251478,1.0379746835443018,3.677368340504472e-06,0.9992612788116166,0
54,34.78333333333333,0.68333333333333,0.6750000000000043,0.6583333333333314,1.0379746835443018,0.04197550223068156,1.0014364088664036,72.22222222222223,0.9999999999861537,1.025316455696212,5.26477151652216e-06,0.9998208805780409,0
55,35.458333333333336,0.6750000000000043,0.6444444444444386,0.6583333333333314,1.025316455696212,0.04237577569794764,1.010985989033915,77.77777777777777,1.0769230769081655,0.9789029535864918,1.3526039765565656e-05,0.9991259972199225,0
56,36.102777777777774,0.6444444444444386,0.6416666666666728,0.6583333333333314,0.9789029535864918,0.04203722086482668,1.002908869803232,72.22222222222223,0.9999999999861537,0.9746835443038097,4.84671045342111e-06,0.9998516711810358,0
57,36.74444444444445,0.6416666666666728,0.6527777777777786,0.6583333333333314,0.9746835443038097,0.040652243597995456,0.9698665811646154,69.44444444444444,0.9615384615251478,0.9915611814346033,3.853576345136389e-06,0.9985804452311219,0
58,37.397222222222226,0.6527777777777786,0.6999999999999957,0.6583333333333314,0.9915611814346033,0.041796823017641205,0.9971735445780183,72.22222222222223,0.9999999999861537,1.063291139240503,8.924243957153521e-06,0.9998586625048558,0
59,38.09722222222222,0.6999999999999957,0.6388888888888928,0.6680555555555561,1.0478170478170405,0.04269859437149134,1.0186876806389844,77.77777777777777,1.0769230769081655,0.9563409563409615,8.389314643864054e-06,0.9994047101279981,0
60,38.736111111111114,0.6388888888888928,0.7388888888888872,0.6638888888888914,0.9623430962343119,0.04372715936318991,1.0432268136292604,102.77777777777777,1.4230769230572187,1.1129707112970644,0.9576897025108337,0.24488435573670186,1
61,39.475,0.7388888888888872,0.6972222222222229,0.6791666666666671,1.087934560327195,0.041871345362745324,0.9989514718378576,72.22222222222223,0.9999999999861537,1.0265848670756648,2.2431686375057325e-06,0.9993292418964616,0
62,40.172222222222224,0.6972222222222229,0.6972222222222229,0.6791666666666671,1.0265848670756648,0.04344572329756945,1.0365124133742842,80.55555555555556,1.1153846153691716,1.0265848670756648,2.41765064856736e-05,0.9979844790930057,0
63,40.86944444444445,0.6972222222222229,0.6777777777777771,0.6791666666666671,1.0265848670756648,0.04231986854935128,1.009652176425489,72.22222222222223,0.9999999999861537,0.9979550102249473,2.537303544158931e-06,0.9998493807853557,0
64,41.547222222222224,0.6777777777777771,0.6749999999999972,0.6763888888888907,1.0020533880903455,0.04117881064147127,0.9824292279710276,72.22222222222223,0.9999999999861537,0.9979466119096441,3.3820410862972494e-06,0.9988610114627557,0
65,42.22222222222222,0.6749999999999972,0.6555555555555586,0.6763888888888872,0.9979466119096493,0.04015426497388316,0.9579859865672568,69.44444444444444,0.9615384615251478,0.9691991786447708,1.7391544133715797e-06,0.9985118534022936,0
66,42.87777777777778,0.6555555555555586,0.6472222222222186,0.6763888888888872,0.9691991786447708,0.04164672531938124,0.99359256777163,72.22222222222223,0.9999999999861537,0.9568788501026665,2.988071173604112e-06,0.9996087563260314,0
67,43.525,0.6472222222222186,0.69166666666667,0.6763888888888872,0.9568788501026665,0.041319891159355165,0.9857950761368035,72.22222222222223,0.9999999999861537,1.0225872689938473,4.8077458814077545e-06,0.9995485072831747,0
68,44.21666666666667,0.69166666666667,0.7305555555555543,0.6847222222222236,1.0101419878296174,0.04373683417522908,1.043457631809153,80.55555555555556,1.1153846153691716,1.0669371196754525,3.644654862000607e-05,0.9969400235682784,0
69,44.94722222222222,0.7305555555555543,0.7111111111111086,0.6847222222222236,1.0669371196754525,0.04226048589041471,1.0082354463435577,75.0,1.0384615384471596,1.0385395537525297,4.052030817547347e-06,0.9994909123255733,0
70,45.65833333333333,0.7111111111111086,0.68888888888889,0.6944444444444464,1.0239999999999934,0.042074440672313196,1.0037968465603213,72.22222222222223,0.9999999999861537,0.9919999999999988,1.6849409121277859e-06,0.9998368636749164,0
71,46.34722222222222,0.68888888888889,0.6944444444444429,0.69027777777778,0.9979879275653908,0.04196165335980128,1.0011060074945515,72.22222222222223,0.9999999999861537,1.0060362173038175,2.266809133288916e-06,0.9998769944318026,0
72,47.041666666666664,0.6944444444444429,0.6722222222222243,0.69027777777778,1.0060362173038175,0.042045416595129094,1.0031044005839473,75.0,1.0384615384471596,0.9738430583501004,4.296669885661686e-06,0.9987447953896511,0
73,47.71388888888889,0.6722222222222243,0.6833333333333371,0.6833333333333336,0.9837398373983767,0.04277375424288497,1.0204808177713447,77.77777777777777,1.0769230769081655,1.000000000000005,1.4527176972478628e-05,0.9980752592625501,0
74,48.397222222222226,0.6833333333333371,0.6638888888888843,0.6861111111111136,0.9959514170040505,0.04213924038075188,1.0053428146575651,75.0,1.0384615384471596,0.9676113360323786,4.465996880753664e-06,0.9992104013686534,0
75,49.06111111111111,0.6638888888888843,0.6666666666666643,0.6861111111111136,0.9676113360323786,0.040845638264022884,0.9744805214285359,69.44444444444444,0.9615384615251478,0.9716599190283332,1.4965538639444276e-06,0.9993303657244064,0
76,49.727777777777774,0.6666666666666643,0.6972222222222229,0.6861111111111136,0.9716599190283332,0.04098249431101077,0.9777455836897093,69.44444444444444,0.9615384615251478,1.016194331983803,2.0398726974235615e-06,0.998831275640118,0
77,50.425,0.6972222222222229,0.7472222222222271,0.69027777777778,1.010060362173036,0.042048166187613166,1.0031699993707817,75.0,1.0384615384471596,1.082494969818917,9.405493074154947e-06,0.9984981182903019,0
78,51.172222222222224,0.7472222222222271,0.7111111111111086,0.6916666666666664,1.0803212851405697,0.04320053449972745,1.030662787374439,80.55555555555556,1.1153846153691716,1.0281124497991936,1.3273144759295974e-05,0.9984924239958997,0
79,51.88333333333333,0.7111111111111086,0.6944444444444429,0.6916666666666664,1.0281124497991936,0.04289729443180716,1.023428195088357,80.55555555555556,1.1153846153691716,1.0040160642570262,2.1978899894747883e-05,0.9963819506002206,0
80,52.577777777777776,0.6944444444444429,0.68611111111111,0.6916666666666664,1.0040160642570262,0.042909887321108765,1.0237286317042227,75.0,1.0384615384471596,0.9919678714859426,5.23403332408634e-06,0.9982273055432028,0
81,53.263888888888886,0.68611111111111,0.6638888888888914,0.6902777777777764,0.9939637826961774,0.04202471798107172,1.0026105805072698,72.22222222222223,0.9999999999861537,0.9617706237424603,1.8707273738982622e-06,0.9999062987340603,0
82,53.92777777777778,0.6638888888888914,0.6805555555555571,0.6847222222222236,0.9695740365111579,0.04085226799756489,0.9746386912227545,69.44444444444444,0.9615384615251478,0.9939148073022316,1.8957072143166442e-06,0.9988078270201874,0
83,54.608333333333334,0.6805555555555571,0.68888888888889,0.6847222222222236,0.9939148073022316,0.04105906847486303,0.9795724625019919,72.22222222222223,0.9999999999861537,1.0060851926977683,2.7133398816658882e-06,0.9993050725266229,0
84,55.297222222222224,0.68888888888889,0.6777777777777771,0.6875,1.0020202020202036,0.03972166281818221,0.947665120198769,69.44444444444444,0.9615384615251478,0.985858585858585,1.5149228147492977e-06,0.9978023803519873,0
85,55.975,0.6777777777777771,0.68888888888889,0.6875,0.985858585858585,0.04226306814266242,1.0082970527873238,75.0,1.0384615384471596,1.0020202020202036,5.039559255237691e-06,0.9996927535478302,0
86,56.66388888888889,0.68888888888889,0.74444444444444,0.68888888888889,1.0,0.04248230085317251,1.0135274278073232,75.0,1.0384615384471596,1.0806451612903145,1.177240028482629e-05,0.9981923872310079,0
87,57.40833333333333,0.74444444444444,0.7250000000000014,0.68888888888889,1.0806451612903145,0.04297133480711268,1.0251946236863902,83.33333333333333,1.1538461538301772,1.05241935483871,5.32318590558134e-05,0.995244485773742,0
88,58.13333333333333,0.7250000000000014,0.6972222222222229,0.68888888888889,1.05241935483871,0.041559836975324525,0.9915196169641254,72.22222222222223,0.9999999999861537,1.0120967741935476,1.7229069726454327e-06,0.9997675690863452,0
89,58.830555555555556,0.6972222222222229,0.6805555555555571,0.68888888888889,1.0120967741935476,0.04062001300588795,0.9690976353104743,72.22222222222223,0.9999999999861537,0.9879032258064523,2.215118001913652e-06,0.9987189135198354,0
90,59.51111111111111,0.6805555555555571,0.6749999999999972,0.6875,0.9898989898989922,0.04114281460763414,0.981570447564752,75.0,1.0384615384471596,0.9818181818181777,4.908220944344066e-06,0.9987568573139387,0
91,60.18611111111111,0.6749999999999972,0.6722222222222243,0.6847222222222236,0.9858012170385335,0.03910407304754143,0.9329308859622325,66.66666666666667,0.9230769230641419,0.9817444219066948,1.1328152140777092e-06,0.9971804017294661,0
92,60.858333333333334,0.6722222222222243,0.6944444444444429,0.6847222222222236,0.9817444219066948,0.04112436075689854,0.9811301822426398,72.22222222222223,0.9999999999861537,1.014198782961456,3.057720277865883e-06,0.9993044670316531,0
93,61.55277777777778,0.6944444444444429,0.68888888888889,0.68888888888889,1.0080645161290283,0.04196019023359143,1.0010711007565867,75.0,1.0384615384471596,1.0,4.829923909710487e-06,0.9988706015524198,0
94,62.24166666666667,0.68888888888889,0.7027777777777757,0.68888888888889,1.0,0.042543388021795095,1.0149848234672254,75.0,1.0384615384471596,1.020161290322576,5.104758201923687e-06,0.9997686930407708,0
95,62.94444444444444,0.7027777777777757,0.7250000000000014,0.6916666666666664,1.0160642570281098,0.041399827915621114,0.9877021784673835,72.22222222222223,0.9999999999861537,1.0481927710843397,2.5244123662560014e-06,0.999788454436908,0
96,63.669444444444444,0.7250000000000014,0.7416666666666671,0.6958333333333329,1.0419161676646733,0.04250273015186201,1.0140148226549854,77.77777777777777,1.0769230769081655,1.0658682634730552,1.3146602213964798e-05,0.997299448766761,0
97,64.41111111111111,0.7416666666666671,0.6944444444444429,0.6958333333333329,1.0658682634730552,0.041279468656515786,0.9848306906278846,72.22222222222223,0.9999999999861537,0.9980039920159665,1.2462309086913592e-06,0.9998013264395831,0
98,65.10555555555555,0.6944444444444429,0.6611111111111114,0.6944444444444429,1.0,0.04085683820766768,0.974747725648786,72.22222222222223,0.9999999999861537,0.9520000000000026,1.7337790723104263e-06,0.9990596508697369,0
99,65.76666666666667,0.6611111111111114,0.6722222222222172,0.6916666666666664,0.9558232931726915,0.04103507989079701,0.9790001515061916,72.22222222222223,0.9999999999861537,0.9718875502007962,2.666869931999827e-06,0.9991161332382725,0
100,66.43888888888888,0.6722222222222172,0.6638888888888914,0.6916666666666664,0.9718875502007962,0.04244619230550347,1.0126659630865833,75.0,1.0384615384471596,0.9598393574297228,4.46090598416049e-06,0.9993204743073258,0
101,67.10277777777777,0.6638888888888914,0.6944444444444429,0.6916666666666664,0.9598393574297228,0.042333328728704114,1.009973304534921,75.0,1.0384615384471596,1.0040160642570262,7.252866907947464e-06,0.9990986612007686,0
102,67.79722222222222,0.6944444444444429,0.7111111111111228,0.6944444444444429,1.0,0.04294066101844346,1.024462819487779,75.0,1.0384615384471596,1.0240000000000191,6.2486428760166746e-06,0.998276799833095,0
103,68.50833333333334,0.7111111111111228,0.7194444444444343,0.6944444444444429,1.0240000000000191,0.04166733426230592,0.9940842485067313,72.22222222222223,0.9999999999861537,1.0359999999999878,2.215263748439611e-06,0.9994486662260846,0
104,69.22777777777777,0.7194444444444343,0.7138888888888886,0.6986111111111093,1.0298210735586364,0.04269857118094422,1.0186871273672666,75.0,1.0384615384471596,1.0218687872763441,3.4589004371810006e-06,0.9997616885822237,0
105,69.94166666666666,0.7138888888888886,0.7444444444444542,0.7027777777777828,1.015810276679834,0.04277690018596641,1.0205558725479298,77.77777777777777,1.0769230769081655,1.0592885375494134,1.1428501238697208e-05,0.9983533783991358,0
106,70.68611111111112,0.7444444444444542,0.6999999999999886,0.7027777777777828,1.0592885375494134,0.04305077678038693,1.0270899216626195,80.55555555555556,1.1153846153691716,0.9960474308300162,1.219865407620091e-05,0.9970432593774567,0
107,71.3861111111111,0.6999999999999886,0.6611111111111114,0.6972222222222157,1.003984063745013,0.04269559586530377,1.0186161433586933,75.0,1.0384615384471596,0.9482071713147503,2.9877262477384647e-06,0.999494845387664,0
108,72.04722222222222,0.6611111111111114,0.6666666666666714,0.6972222222222157,0.9482071713147503,0.042148936896943386,1.0055741506473044,72.22222222222223,0.9999999999861537,0.9561752988047966,2.412685489616706e-06,0.999696223484354,0
109,72.71388888888889,0.6666666666666714,0.6805555555555571,0.6972222222222157,0.9561752988047966,0.04156098583140111,0.9915470259584791,75.0,1.0384615384471596,0.9760956175298918,5.388732006395003e-06,0.9989509522965212,0
110,73.39444444444445,0.6805555555555571,0.7111111111111086,0.6972222222222157,0.9760956175298918,0.04202274053776346,1.0025634033772746,75.0,1.0384615384471596,1.0199203187251054,5.462953140522586e-06,0.9996803273964221,0
111,74.10555555555555,0.7111111111111086,0.7249999999999943,0.7055555555555486,1.007874015748038,0.04329327852079891,1.0328754408144194,77.77777777777777,1.0769230769081655,1.0275590551181124,9.709643563837744e-06,0.9979790012001166,0
112,74.83055555555555,0.7249999999999943,0.7222222222222285,0.7111111111111157,1.0195312499999853,0.04090396359313198,0.9758720261163887,69.44444444444444,0.9615384615251478,1.0156250000000024,7.195178568508709e-07,0.9994771154602295,0
113,75.55277777777778,0.7222222222222285,0.7083333333333286,0.7124999999999986,1.0136452241715508,0.04143488686910417,0.9885386023481924,72.22222222222223,0.9999999999861537,0.994152046783621,1.1889929965036572e-06,0.9998321491145221,0
114,76.2611111111111,0.7083333333333286,0.6111111111111143,0.7097222222222186,0.9980430528375718,0.04260779713783798,1.0165214729518168,75.0,1.0384615384471596,0.8610567514677192,2.1192354324739426e-06,0.9998095803495564,0
115,76.87222222222222,0.6111111111111143,0.8055555555555571,0.7041666666666586,0.8678500986193438,0.04010162849802475,0.9567302044906221,119.44444444444444,1.6538461538232543,1.1439842209073132,0.9752513766288757,0.41044190783050266,1
116,77.67777777777778,0.8055555555555571,0.6666666666666714,0.7041666666666586,1.1439842209073132,0.04225815331365401,1.0081797965676051,75.0,1.0384615384471596,0.9467455621301951,1.2955018746652058e-06,0.9986421509875268,0
117,78.34444444444445,0.6666666666666714,0.6861111111111029,0.6944444444444429,0.960000000000009,0.04003066384221504,0.9550371553001691,66.66666666666667,0.9230769230641419,0.9879999999999904,1.0270564416714478e-06,0.9977500300313564,0
118,79.03055555555555,0.6861111111111029,0.6861111111111171,0.6972222222222157,0.9840637450199177,0.04115556664190069,0.9818746810038531,72.22222222222223,0.9999999999861537,0.9840637450199381,2.0506727196334396e-06,0.9992450184677482,0
119,79.71666666666667,0.6861111111111171,0.7249999999999943,0.6972222222222229,0.984063745019928,0.04094049771855037,0.976743644117741,69.44444444444444,0.9615384615251478,1.03984063745019,1.5784720517331152e-06,0.9991634080110003,0
120,80.44166666666666,0.7249999999999943,0.75,0.7097222222222186,1.02152641878669,0.04156773756943709,0.991708106491958,75.0,1.0384615384471596,1.0567514677103773,3.989323886344209e-06,0.9990129181762146,0
121,81.19166666666666,0.75,0.7222222222222285,0.7152777777777786,1.0485436893203872,0.042456859075764866,1.012920447048349,75.0,1.0384615384471596,1.0097087378640854,2.0511677121248795e-06,0.9992600491109507,0
122,81.91388888888889,0.7222222222222285,0.7027777777777686,0.7152777777777786,1.0097087378640854,0.04229126403542373,1.0089697402381255,77.77777777777777,1.0769230769081655,0.9825242718446463,4.308191364543745e-06,0.9992350105443102,0
123,82.61666666666666,0.7027777777777686,0.7250000000000085,0.7055555555555486,0.996062992125981,0.042395624315924946,1.0114595302103593,75.0,1.0384615384471596,1.0275590551181324,5.002111265639542e-06,0.9985597248796093,0
124,83.34166666666667,0.7250000000000085,0.6972222222222229,0.7124999999999986,1.0175438596491369,0.04201308179683387,1.002332968616124,75.0,1.0384615384471596,0.9785575048732972,2.3690568013989832e-06,0.9988840299730988,0
125,84.03888888888889,0.6972222222222229,0.6805555555555571,0.7124999999999986,0.9785575048732972,0.04109185672983897,0.980354712875928,69.44444444444444,0.9615384615251478,0.9551656920078014,7.213412800410879e-07,0.9991898413713458,0
126,84.71944444444445,0.6805555555555571,0.6777777777777771,0.6999999999999957,0.9722222222222304,0.03994099028710823,0.9528977559309149,66.66666666666667,0.9230769230641419,0.9682539682539733,8.133618507599749e-07,0.997169000160965,0
127,85.39722222222223,0.6777777777777771,0.7055555555555486,0.6999999999999957,0.9682539682539733,0.040184684384507646,0.9587117219061267,69.44444444444444,0.9615384615251478,1.0079365079365041,1.5582814967274317e-06,0.9980741758159153,0
128,86.10277777777777,0.7055555555555486,0.7277777777777743,0.7041666666666586,1.0019723865877728,0.04046855422816374,0.9654841863606113,69.44444444444444,0.9615384615251478,1.0335305719921173,1.3749873915003263e-06,0.9977065616113885,0
129,86.83055555555555,0.7277777777777743,0.75555555555556,0.7138888888888886,1.0194552529182834,0.042374567372867065,1.01095716124949,75.0,1.0384615384471596,1.0583657587548705,3.6287458442529896e-06,0.9995849354092977,0
130,87.58611111111111,0.75555555555556,0.7222222222222285,0.7138888888888886,1.0583657587548705,0.04354271190756811,1.038826332687607,77.77777777777777,1.0769230769081655,1.011673151750982,3.989887318311958e-06,0.999096299335023,0
131,88.30833333333334,0.7222222222222285,0.6944444444444429,0.7138888888888886,1.011673151750982,0.04229504901174866,1.0090600408395964,75.0,1.0384615384471596,0.9727626459143951,2.103000042552594e-06,0.9995499812294734,0
132,89.00277777777778,0.6944444444444429,0.7055555555555486,0.7041666666666586,0.9861932938856106,0.04016734523491182,0.9582980507221915,69.44444444444444,0.9615384615251478,1.0019723865877728,1.184488610306289e-06,0.9980135370882672,0
133,89.70833333333333,0.7055555555555486,0.7083333333333428,0.7055555555555486,1.0,0.042025857009599335,1.0026377550395011,75.0,1.0384615384471596,1.003937007874039,3.089488700425136e-06,0.9998590727648066,0
134,90.41666666666667,0.7083333333333428,0.6916666666666629,0.7055555555555486,1.003937007874039,0.04020892818644121,0.9592901217978586,69.44444444444444,0.9615384615251478,0.9803149606299255,7.457253445863898e-07,0.9991790819344737,0
135,91.10833333333333,0.6916666666666629,0.6722222222222172,0.7055555555555486,0.9803149606299255,0.040392145821232024,0.9636612621172184,69.44444444444444,0.9615384615251478,0.9527559055118132,8.221556413445796e-07,0.9988579288154179,0
136,91.78055555555555,0.6722222222222172,0.6138888888888943,0.7055555555555486,0.9527559055118132,0.0409599181765422,0.9772069704075135,69.44444444444444,0.9615384615251478,0.8700787401574965,8.612403235019883e-07,0.9987382309813554,0
137,92.39444444444445,0.6138888888888943,0.8277777777777828,0.7055555555555486,0.8700787401574965,0.040932752051610774,0.9765588507865823,122.22222222222223,1.6923076922842601,1.1732283464567117,0.9774545431137085,0.36832984815986164,1
138,93.22222222222223,0.8277777777777828,0.7361111111111001,0.7069444444444457,1.1709233791748577,0.04295819222893456,1.024881072791356,77.77777777777777,1.0769230769081655,1.0412573673870158,3.896476755471667e-06,0.9972443532072697,0
139,93.95833333333333,0.7361111111111001,0.7277777777777885,0.7069444444444457,1.0412573673870158,0.04298415180159477,1.025500406922909,77.77777777777777,1.0769230769081655,1.0294695481336087,6.1966820794623345e-06,0.9986656595232757,0
140,94.68611111111112,0.7277777777777885,0.6861111111111029,0.7069444444444457,1.0294695481336087,0.04242133725452387,1.012072980235338,75.0,1.0384615384471596,0.9705304518663914,2.207147190347314e-06,0.9994341247414282,0
141,95.37222222222222,0.6861111111111029,0.6805555555555571,0.6999999999999957,0.9801587301587243,0.041342201327349115,0.986327344086673,72.22222222222223,0.9999999999861537,0.9722222222222304,1.798045786927105e-06,0.9995523119191951,0
142,96.05277777777778,0.6805555555555571,0.7138888888888886,0.6986111111111057,0.9741550695825147,0.041840668942241775,0.998219604849891,75.0,1.0384615384471596,1.0218687872763494,6.240799848455936e-06,0.9989557915007823,0
143,96.76666666666667,0.7138888888888886,0.6916666666666629,0.7000000000000028,1.0198412698412653,0.04034925673955073,0.9626380298589728,69.44444444444444,0.9615384615251478,0.9880952380952287,8.204253845178755e-07,0.9990196427994087,0
144,97.45833333333333,0.6916666666666629,0.6833333333333371,0.6916666666666629,1.0,0.04213861801399048,1.005327966455604,75.0,1.0384615384471596,0.9879518072289265,3.823606220976217e-06,0.99986764675955,0
145,98.14166666666667,0.6833333333333371,0.7194444444444485,0.6888888888888829,0.9919354838709818,0.04287210155392248,1.022827152484526,77.77777777777777,1.0769230769081655,1.0443548387096924,1.44725290738279e-05,0.9991997868594156,0
146,98.86111111111111,0.7194444444444485,0.7277777777777743,0.7027777777777757,1.0237154150197716,0.043010685658956646,1.0261334421319657,80.55555555555556,1.1153846153691716,1.0355731225296423,2.2591955712414347e-05,0.9962147538875323,0
147,99.58888888888889,0.7277777777777743,0.7388888888888943,0.7166666666666686,1.0155038759689847,0.04260075098286038,1.0163533683250205,77.77777777777777,1.0769230769081655,1.0310077519379892,6.0448242038546596e-06,0.9988983927261397,0
148,100.32777777777778,0.7388888888888943,0.7222222222222143,0.7166666666666686,1.0310077519379892,0.04203093109753168,1.002758810801248,75.0,1.0384615384471596,1.0077519379844824,2.4307389594468987e-06,0.9986143067138713,0
149,101.05,0.7222222222222143,0.6916666666666629,0.7166666666666686,1.0077519379844824,0.04060171822671635,0.968661165060424,69.44444444444444,0.9615384615251478,0.9651162790697596,5.486958798428532e-07,0.9991567459345101,0
150,101.74166666666666,0.6916666666666629,0.6833333333333371,0.7027777777777757,0.9841897233201556,0.04014466370456833,0.9577569229431848,69.44444444444444,0.9615384615251478,0.9723320158102849,1.0084485211336869e-06,0.9982888329986912,0
151,102.425,0.6833333333333371,0.7138888888888886,0.7027777777777757,0.9723320158102849,0.041837701265699,0.9981488030921577,72.22222222222223,0.9999999999861537,1.0158102766798445,2.5736865154613042e-06,0.9996159297342115,0
152,103.13888888888889,0.7138888888888886,0.7027777777777828,0.7138888888888886,1.0,0.04245810810522631,1.0129502459432274,75.0,1.0384615384471596,0.9844357976653771,2.855006187019171e-06,0.9987056701458972,0
153,103.84166666666667,0.7027777777777828,0.7083333333333286,0.7083333333333357,0.9921568627451018,0.04277942043039097,1.0206159996313922,75.0,1.0384615384471596,0.99999999999999,3.5792838843917707e-06,0.999387008834992,0
154,104.55,0.7083333333333286,0.7305555555555543,0.7111111111111086,0.9960937499999969,0.04189332725680112,0.9994759079463845,75.0,1.0384615384471596,1.0273437500000018,4.041163265355863e-06,0.9989640449429529,0
155,105.28055555555555,0.7305555555555543,0.7305555555555543,0.7166666666666686,1.019379844961236,0.042145206687621374,1.005485156657257,77.77777777777777,1.0769230769081655,1.019379844961236,5.446379873319529e-06,0.9986148442578242,0
156,106.0111111111111,0.7305555555555543,0.7388888888888943,0.7180555555555515,1.0174081237911066,0.04261630997219699,1.0167245690868651,77.77777777777777,1.0769230769081655,1.029013539651851,6.22016978013562e-06,0.9983456891722975,0
157,106.75,0.7388888888888943,0.7222222222222285,0.7180555555555515,1.029013539651851,0.04189909405676529,0.9996134901822094,75.0,1.0384615384471596,1.005802707930382,2.211751279901364e-06,0.9989508459944973,0
158,107.47222222222223,0.7222222222222285,0.6833333333333229,0.7180555555555515,1.005802707930382,0.03980942329106114,0.9497588779414948,69.44444444444444,0.9615384615251478,0.9516441005802617,5.488607257575495e-07,0.9984592752472456,0
159,108.15555555555555,0.6833333333333229,0.6694444444444514,0.7111111111111086,0.9609374999999888,0.04071960740132304,0.9714737225139011,72.22222222222223,0.9999999999861537,0.9414062500000131,1.365702132716251e-06,0.9996313428079524,0
160,108.825,0.6694444444444514,0.7111111111111086,0.7111111111111086,0.9414062500000131,0.04087030067921405,0.9750689084445455,69.44444444444444,0.9615384615251478,1.0,1.5326763787015807e-06,0.9992794586037899,0
161,109.53611111111111,0.7111111111111086,0.7138888888888886,0.7124999999999986,0.998050682261207,0.04296550277063069,1.0250554850612272,75.0,1.0384615384471596,1.001949317738793,3.38931567966938e-06,0.9990592726044119,0
162,110.25,0.7138888888888886,0.7249999999999943,0.7124999999999986,1.001949317738793,0.04240635432319569,1.0117155228579104,75.0,1.0384615384471596,1.0175438596491169,3.111742671535467e-06,0.9997145928796554,0
163,110.975,0.7249999999999943,0.7222222222222285,0.7180555555555586,1.0096711798839337,0.040712603402673186,0.9713066236375835,72.22222222222223,0.9999999999861537,1.0058027079303722,1.169735810435668e-06,0.999498644734152,0
164,111.69722222222222,0.7222222222222285,0.7277777777777743,0.7222222222222285,1.0,0.041661125603178084,0.993936124554177,72.22222222222223,0.9999999999861537,1.0076923076922941,1.1946191307288245e-06,0.9998809528538767,0
165,112.425,0.7277777777777743,0.7111111111111086,0.7222222222222285,1.0076923076922941,0.04061362932454742,0.9689453357410284,69.44444444444444,0.9615384615251478,0.9846153846153725,6.576938176294789e-07,0.9979604975881653,0
166,113.1361111111111,0.7111111111111086,0.7055555555555628,0.7180555555555586,0.9903288201160465,0.04169535933337555,0.994752860555158,72.22222222222223,0.9999999999861537,0.9825918762089035,1.1896678415723727e-06,0.9998265020939372,0
167,113.84166666666667,0.7055555555555628,0.6777777777777771,0.7124999999999986,0.990253411306055,0.042234152082387795,1.007607183839459,75.0,1.0384615384471596,0.9512670565302155,2.5781671411095886e-06,0.9987989574872269,0
168,114.51944444444445,0.6777777777777771,0.6722222222222172,0.7111111111111086,0.9531250000000026,0.041371103430519925,0.9870168800509838,72.22222222222223,0.9999999999861537,0.9453124999999962,1.7461861716583371e-06,0.999301213414254,0
169,115.19166666666666,0.6722222222222172,0.6972222222222229,0.7111111111111086,0.9453124999999962,0.04033318398639673,0.9622545719050767,69.44444444444444,0.9615384615251478,0.9804687500000043,1.1894557019331842e-06,0.9993056778936411,0
170,115.88888888888889,0.6972222222222229,0.7444444444444542,0.7111111111111086,0.9804687500000043,0.04190274257833613,0.9997005352953205,75.0,1.0384615384471596,1.0468750000000175,6.158136329759145e-06,0.9991233491871118,0
171,116.63333333333334,0.7444444444444542,0.7277777777777743,0.7124999999999986,1.0448343079922187,0.0431012516353566,1.028294132566901,77.77777777777777,1.0769230769081655,1.0214424951267027,4.516645731200697e-06,0.9993616540047359,0
172,117.36111111111111,0.7277777777777743,0.7027777777777686,0.7166666666666686,1.0155038759689847,0.04329376993197202,1.0328871647251372,75.0,1.0384615384471596,0.9806201550387443,2.2610313408222282e-06,0.9992244804955681,0
173,118.06388888888888,0.7027777777777686,0.7222222222222285,0.7083333333333357,0.9921568627450817,0.04280168244228007,1.0211471186902623,77.77777777777777,1.0769230769081655,1.0196078431372604,9.00043232832104e-06,0.99882632085566,0
174,118.78611111111111,0.7222222222222285,0.6916666666666629,0.7083333333333357,1.0196078431372604,0.04341614233857894,1.035806681512412,75.0,1.0384615384471596,0.9764705882352855,2.609090415717219e-06,0.9991020160323125,0
175,119.47777777777777,0.6916666666666629,0.6972222222222229,0.7041666666666657,0.9822485207100551,0.04208136402382867,1.0039620213863631,72.22222222222223,0.9999999999861537,0.9901380670611463,1.8087189346260857e-06,0.9998091836785767,0
176,120.175,0.6972222222222229,0.6888888888888971,0.6999999999999957,0.996031746031753,0.04175322804204375,0.9961334713570474,72.22222222222223,0.9999999999861537,0.9841269841270018,1.6793533177406061e-06,0.9998553462326681,0
177,120.8638888888889,0.6888888888888971,0.6888888888888829,0.6972222222222229,0.9880478087649511,0.039979668149975896,0.9538205184479649,69.44444444444444,0.9615384615251478,0.9880478087649307,1.0589212706690887e-06,0.9990194606679852,0
178,121.55277777777778,0.6888888888888829,0.6972222222222229,0.6972222222222229,0.9880478087649307,0.03987654473745032,0.9513602372262628,69.44444444444444,0.9615384615251478,1.0,1.3273688637127634e-06,0.9980776387294431,0
179,122.25,0.6972222222222229,0.75833333333334,0.6972222222222229,1.0,0.04297407104328438,1.025259903823136,75.0,1.0384615384471596,1.0876494023904468,1.0710289643611759e-05,0.9989502187885322,0
180,123.00833333333334,0.75833333333334,0.7305555555555543,0.6999999999999957,1.0833333333333495,0.042588077243957266,1.0160510028284913,77.77777777777777,1.0769230769081655,1.0436507936507982,6.415947609639261e-06,0.9979626186799606,0
181,123.7388888888889,0.7305555555555543,0.7027777777777686,0.6999999999999957,1.0436507936507982,0.042863651376783427,1.0226255512028566,75.0,1.0384615384471596,1.003968253968247,2.91714673039678e-06,0.9992985882280665,0
182,124.44166666666666,0.7027777777777686,0.7055555555555628,0.6999999999999957,1.003968253968247,0.04034835953558333,0.9626166246899721,69.44444444444444,0.9615384615251478,1.0079365079365246,9.408716437064868e-07,0.9994489056492508,0
183,125.14722222222223,0.7055555555555628,0.6888888888888829,0.6999999999999957,1.0079365079365246,0.0413715360507146,0.9870272013477196,75.0,1.0384615384471596,0.9841269841269815,3.290264430688694e-06,0.9990545477723891,0
184,125.83611111111111,0.6888888888888829,0.6888888888888971,0.6972222222222229,0.9880478087649307,0.04044759907990198,0.9649842459833123,69.44444444444444,0.9615384615251478,0.9880478087649511,1.1446096550571383e-06,0.9988246695128247,0
185,126.525,0.6888888888888971,0.6805555555555429,0.6972222222222229,0.9880478087649511,0.04111289997959289,0.9808567551468848,69.44444444444444,0.9615384615251478,0.9760956175298615,1.2784748832928017e-06,0.998217103969705,0
186,127.20555555555555,0.6805555555555429,0.6972222222222229,0.69305555555556,0.981963927855687,0.029689209697139143,0.7083144682293386,30.555555555555557,0.42307692307106504,1.0060120240480908,0.9185507893562317,0.31810871694383414,1
187,127.90277777777777,0.6972222222222229,0.6833333333333371,0.6972222222222229,1.0,0.04197646990929525,1.001459495394124,72.22222222222223,0.9999999999861537,0.980079681274905,1.8789827436194173e-06,0.9993743325435742,0
188,128.5861111111111,0.6833333333333371,0.7361111111111143,0.6972222222222229,0.980079681274905,0.04253252344472528,1.0147256203018922,75.0,1.0384615384471596,1.0557768924302824,8.006448297237512e-06,0.9996527960100869,0
189,129.32222222222222,0.7361111111111143,0.7305555555555543,0.6999999999999957,1.0515873015873125,0.042925869797409935,1.02410993586549,77.77777777777777,1.0769230769081655,1.0436507936507982,7.137835382309277e-06,0.9987906421396147,0
190,130.05277777777778,0.7305555555555543,0.7111111111111086,0.6999999999999957,1.0436507936507982,0.042601725755412045,1.0163766240973573,75.0,1.0384615384471596,1.0158730158730185,2.9775997063552495e-06,0.9995704940591756,0
191,130.76388888888889,0.7111111111111086,0.6666666666666572,0.6999999999999957,1.0158730158730185,0.04235458112025928,1.01048033643562,75.0,1.0384615384471596,0.9523809523809447,2.8652020773733966e-06,0.9989061721925601,0
192,131.43055555555554,0.6666666666666572,0.6722222222222456,0.69305555555556,0.961923847695371,0.03992646645723819,0.952551251630666,69.44444444444444,0.9615384615251478,0.9699398797595465,1.385087216476677e-06,0.9984970896267757,0
193,132.1027777777778,0.6722222222222456,0.6638888888888914,0.68888888888889,0.9758064516129356,0.04089043236317995,0.9755492029073597,69.44444444444444,0.9615384615251478,0.963709677419357,1.3859645378033747e-06,0.9989040001005238,0
194,132.76666666666668,0.6638888888888914,0.6888888888888687,0.6861111111111171,0.9676113360323839,0.041999442736318726,1.0020075728243707,72.22222222222223,0.9999999999861537,1.0040485829959132,3.0916312425688375e-06,0.9998592332155192,0
195,133.45555555555555,0.6888888888888687,0.6833333333333371,0.6861111111111029,1.004048582995934,0.04209857973247253,1.0043727475605408,75.0,1.0384615384471596,0.995951417004066,4.6668947106809355e-06,0.9994511530622512,0
196,134.13888888888889,0.6833333333333371,0.7083333333333428,0.6861111111111029,0.995951417004066,0.041266935569245294,0.9845316807473311,72.22222222222223,0.9999999999861537,1.0323886639676374,2.8392687454470433e-06,0.9997275167028525,0
197,134.84722222222223,0.7083333333333428,0.7194444444444343,0.6861111111111029,1.0323886639676374,0.04238628966351985,1.0112368274364603,75.0,1.0384615384471596,1.0485829959514148,6.4611572270223405e-06,0.99867446721686,0
198,135.56666666666666,0.7194444444444343,0.7472222222222342,0.6986111111111057,1.0298210735586415,0.04338917959333795,1.0351634140508597,77.77777777777777,1.0769230769081655,1.0695825049702044,1.4161377293930855e-05,0.9975127654719116,0
199,136.3138888888889,0.7472222222222342,0.7055555555555486,0.6986111111111057,1.0695825049702044,0.04248884236744479,1.013683492897989,75.0,1.0384615384471596,1.0099403578528805,2.676450094440952e-06,0.9989395335608002,0
200,137.01944444444445,0.7055555555555486,0.6666666666666572,0.6972222222222086,1.0119521912350695,0.04147691917559854,0.9895413939727158,72.22222222222223,0.9999999999861537,0.9561752988047859,1.5331486338254763e-06,0.9993683054409757,0
201,137.6861111111111,0.6666666666666572,0.6694444444444514,0.6861111111111029,0.9716599190283379,0.04097828995216481,0.9776452776111509,72.22222222222223,0.9999999999861537,0.9757085020243133,2.4078560727502918e-06,0.9996720521268148,0
202,138.35555555555555,0.6694444444444514,0.6666666666666572,0.6861111111111029,0.9757085020243133,0.04182376794579446,0.9978163869659109,72.22222222222223,0.9999999999861537,0.9716599190283379,2.469563696649857e-06,0.9996240627680975,0
203,139.0222222222222,0.6666666666666572,0.6972222222222229,0.6861111111111029,0.9716599190283379,0.04140063841119727,0.987721514978826,72.22222222222223,0.9999999999861537,1.0161943319838187,3.193029670001124e-06,0.9995077578902518,0
204,139.71944444444443,0.6972222222222229,0.7166666666666686,0.6930555555555458,1.0060120240481114,0.04291768421001975,1.02391464707072,75.0,1.0384615384471596,1.0340681362725623,6.4008090703282505e-06,0.9984373910868722,0
205,140.4361111111111,0.7166666666666686,0.7027777777777828,0.7013888888888857,1.0217821782178291,0.04061140200510299,0.9688921971562041,69.44444444444444,0.9615384615251478,1.0019801980198138,9.940883956005564e-07,0.9982671086301349,0
206,141.13888888888889,0.7027777777777828,0.700000000000017,0.7041666666666657,0.9980276134122373,0.04212863040046559,1.0050896855705644,72.22222222222223,0.9999999999861537,0.9940828402367119,1.648759052841342e-06,0.9998234266213445,0
207,141.8388888888889,0.700000000000017,0.7416666666666458,0.7013888888888999,0.9980198019802066,0.0427550040932852,1.0200334834576845,75.0,1.0384615384471596,1.057425742574211,6.7999390012118965e-06,0.9990433073393173,0
208,142.58055555555555,0.7416666666666458,0.6972222222222229,0.7013888888888999,1.057425742574211,0.04350253407099219,1.037867784338251,80.55555555555556,1.1153846153691716,0.9940594059405793,1.1766765055654105e-05,0.9975632797640009,0
209,143.27777777777777,0.6972222222222229,0.6666666666666856,0.69861111111112,0.9980119284294118,0.04210917995967118,1.0046256439618906,72.22222222222223,0.9999999999861537,0.9542743538767546,1.5574228200421203e-06,0.9997491616957783,0
210,143.94444444444446,0.6666666666666856,0.6611111111110972,0.6972222222222229,0.9561752988048072,0.03924871694363781,0.9363817479215523,66.66666666666667,0.9230769230641419,0.9482071713147202,8.352372447006928e-07,0.9971785881384553,0
211,144.60555555555555,0.6611111111110972,0.6750000000000114,0.6972222222222229,0.9482071713147202,0.04045323865975037,0.965118793047451,69.44444444444444,0.9615384615251478,0.9681274900398561,1.4847349802948884e-06,0.9985277478471137,0
212,145.28055555555557,0.6750000000000114,0.6916666666666629,0.6972222222222229,0.9681274900398561,0.03866139861577189,0.9223697188602406,63.888888888888886,0.8846153846031359,0.9920318725099538,6.075600822441629e-07,0.9968996830862309,0
213,145.97222222222223,0.6916666666666629,0.7249999999999943,0.6972222222222229,0.9920318725099538,0.04173140442958691,0.9956128114738813,72.22222222222223,0.9999999999861537,1.03984063745019,2.5842105060291942e-06,0.9998358188709919,0
214,146.69722222222222,0.7249999999999943,0.7111111111111086,0.69861111111112,1.037773359840933,0.04361999468588741,1.0406701173685378,83.33333333333333,1.1538461538301772,1.0178926441351723,3.780948100029491e-05,0.996393423962012,0
215,147.40833333333333,0.7111111111111086,0.6999999999999886,0.69861111111112,1.0178926441351723,0.04259563682910852,1.0162313566873868,77.77777777777777,1.0769230769081655,1.0019880715705476,9.01797648111824e-06,0.9974185710279737,0
216,148.10833333333332,0.6999999999999886,0.7166666666666686,0.6986111111111057,1.001988071570568,0.04197134880319324,1.0013373178898255,72.22222222222223,0.9999999999861537,1.0258449304175057,2.0991728888475336e-06,0.9998929147515514,0
217,148.825,0.7166666666666686,0.7083333333333428,0.6986111111111057,1.0258449304175057,0.04195364361593167,1.0009149139111408,75.0,1.0384615384471596,1.0139165009940572,3.847091647912748e-06,0.9986569329693398,0
218,149.53333333333333,0.7083333333333428,0.6666666666666572,0.6986111111111057,1.0139165009940572,0.040186928031831125,0.9587652500356066,72.22222222222223,0.9999999999861537,0.9542743538767333,1.3103816627335618e-06,0.9995069376175986,0
219,150.2,0.6666666666666572,0.6527777777777999,0.6958333333333258,0.9580838323353261,0.040225824790085594,0.9596932348799292,69.44444444444444,0.9615384615251478,0.938123752495052,1.0651694992702687e-06,0.9990802405740035,0
220,150.8527777777778,0.6527777777777999,0.6722222222222172,0.6958333333333258,0.938123752495052,0.04186723177977801,0.9988533314575062,72.22222222222223,0.9999999999861537,0.9660678642714603,2.9745629035460297e-06,0.999513122512198,0
221,151.525,0.6722222222222172,0.674999999999983,0.6958333333333258,0.9660678642714603,0.042475325519944596,1.013361012820314,72.22222222222223,0.9999999999861537,0.9700598802395071,2.2942513169255108e-06,0.9996706107708817,0
222,152.2,0.674999999999983,0.7111111111111086,0.6958333333333258,0.9700598802395071,0.042541945762178304,1.0149504145569197,77.77777777777777,1.0769230769081655,1.0219560878243588,1.802618680812884e-05,0.9976533049539275,0
223,152.9111111111111,0.7111111111111086,0.7166666666666686,0.7041666666666657,1.0098619329388538,0.04267441234053298,1.0181107544569237,77.77777777777777,1.0769230769081655,1.017751479289945,9.61903697316302e-06,0.9974103791236928,0
224,153.62777777777777,0.7166666666666686,0.7027777777777828,0.7041666666666657,1.017751479289945,0.04212435064178644,1.0049875806299515,72.22222222222223,0.9999999999861537,0.9980276134122373,1.5108050774870208e-06,0.9996782821852312,0
225,154.33055555555555,0.7027777777777828,0.6805555555555713,0.7013888888888857,1.0019801980198138,0.041093467833142154,0.980393149998071,72.22222222222223,0.9999999999861537,0.9702970297029971,1.5580527588099358e-06,0.9992989053832662,0
226,155.01111111111112,0.6805555555555713,0.6999999999999886,0.6916666666666771,0.9839357429718956,0.04166821831571361,0.9941053399344162,72.22222222222223,0.9999999999861537,1.0120481927710527,2.4807477529975586e-06,0.9997381502788728,0
227,155.7111111111111,0.6999999999999886,0.6666666666666572,0.69027777777778,1.0140845070422337,0.04189367727412805,0.9994842585336626,75.0,1.0384615384471596,0.9657947686116533,3.5653977192851016e-06,0.9992515363198433,0
228,156.37777777777777,0.6666666666666572,0.6527777777777999,0.6777777777777771,0.9836065573770362,0.04230798245883283,1.009368602360339,75.0,1.0384615384471596,0.9631147540983942,5.037339178670663e-06,0.9998090092459766,0
229,157.03055555555557,0.6527777777777999,0.669444444444423,0.6777777777777771,0.9631147540983942,0.040846224055740135,0.9744944970362712,72.22222222222223,0.9999999999861537,0.9877049180327562,3.7509316825889982e-06,0.9988404510424729,0
230,157.7,0.669444444444423,0.6888888888888971,0.6777777777777771,0.9877049180327562,0.04154234845500929,0.9911023821473831,75.0,1.0384615384471596,1.016393442622964,7.0772111939731985e-06,0.9989495096667576,0
231,158.38888888888889,0.6888888888888971,0.7305555555555543,0.6847222222222342,1.0060851926977632,0.041604971903825595,0.992596429826641,75.0,1.0384615384471596,1.0669371196754358,7.629318133695051e-06,0.9994296370104649,0
232,159.11944444444444,0.7305555555555543,0.73888888888888,0.6944444444444429,1.0520000000000005,0.041830951983188966,0.9979877811417323,72.22222222222223,0.9999999999861537,1.0639999999999896,2.192311512771994e-06,0.9998476512588432,0
233,159.85833333333332,0.73888888888888,0.7027777777777828,0.6944444444444429,1.0639999999999896,0.04216550828161734,1.0059695047723516,72.22222222222223,0.9999999999861537,1.0120000000000096,1.5306036402762402e-06,0.999748973629752,0
234,160.5611111111111,0.7027777777777828,0.6833333333333371,0.6944444444444429,1.0120000000000096,0.041517735518406616,0.9905151755737113,75.0,1.0384615384471596,0.9840000000000076,3.7965689898555866e-06,0.9988353416446889,0
235,161.24444444444444,0.6833333333333371,0.6944444444444571,0.6861111111111171,0.9959514170040454,0.04221253809714679,1.0070915251668815,72.22222222222223,0.9999999999861537,1.0121457489878638,2.6790598894876894e-06,0.9998279426915884,0
236,161.9388888888889,0.6944444444444571,0.6888888888888687,0.6916666666666771,1.0040160642570313,0.042050586296946836,1.0032277374673233,72.22222222222223,0.9999999999861537,0.9959839357429277,2.037407512034406e-06,0.9998719749286515,0
237,162.62777777777777,0.6888888888888687,0.6861111111111313,0.6888888888888829,0.9999999999999793,0.0396207620187282,0.9452578652789432,69.44444444444444,0.9615384615251478,0.9959677419355218,1.2834126437155646e-06,0.998800109224343,0
238,163.3138888888889,0.6861111111111313,0.6777777777777771,0.6888888888888829,0.9959677419355218,0.039148798717969786,0.9339979348931009,66.66666666666667,0.9230769230641419,0.9838709677419432,9.828386282606516e-07,0.9970743741113425,0
239,163.99166666666667,0.6777777777777771,0.7166666666666686,0.6888888888888829,0.9838709677419432,0.041014693359099054,0.978513776978005,69.44444444444444,0.9615384615251478,1.040322580645173,2.1137955172889633e-06,0.9987343894241691,0
240,164.70833333333334,0.7166666666666686,0.73888888888888,0.6916666666666771,1.0361445783132401,0.041501009358152964,0.9901161288686477,69.44444444444444,0.9615384615251478,1.068273092369449,1.9196525045117596e-06,0.9987545724437993,0
241,165.44722222222222,0.73888888888888,0.74444444444444,0.69861111111112,1.0576540755466937,0.042915972524984865,1.0238738103058607,75.0,1.0384615384471596,1.065606361829006,4.719515345641412e-06,0.9986861774280179,0
242,166.19166666666666,0.74444444444444,0.7027777777777828,0.69861111111112,1.065606361829006,0.04280245123378735,1.0211654602410551,75.0,1.0384615384471596,1.005964214711724,2.555360879341606e-06,0.9993028002875786,0
243,166.89444444444445,0.7027777777777828,0.6833333333333371,0.69861111111112,1.005964214711724,0.041746645758666275,0.9959764336117585,75.0,1.0384615384471596,0.9781312127236511,3.3661101497273194e-06,0.9991082666338198,0
244,167.57777777777778,0.6833333333333371,0.6999999999999886,0.6916666666666629,0.9879518072289265,0.04052547236920575,0.9668421188625551,69.44444444444444,0.9615384615251478,1.0120481927710734,1.3605686035589315e-06,0.9993746777963795,0
245,168.27777777777777,0.6999999999999886,0.7027777777777828,0.6972222222222229,1.0039840637450026,0.04141681433977962,0.9881074344549186,72.22222222222223,0.9999999999861537,1.0079681274900463,1.907380465127062e-06,0.9997091478687702,0
246,168.98055555555555,0.7027777777777828,0.6888888888888971,0.7013888888888857,1.0019801980198138,0.04007423274110507,0.9560766063924493,66.66666666666667,0.9230769230641419,0.9821782178217983,6.742119467162411e-07,0.9976325580197959,0
247,169.66944444444445,0.6888888888888971,0.6972222222222229,0.7013888888888857,0.9821782178217983,0.04005278419131041,0.9555648946191462,69.44444444444444,0.9615384615251478,0.9940594059405994,1.224180891767901e-06,0.9980546963751729,0
248,170.36666666666667,0.6972222222222229,0.7333333333333201,0.7013888888888857,0.9940594059405994,0.040950680024617714,0.9769865699073127,72.22222222222223,0.9999999999861537,1.0455445544554314,2.41527300204325e-06,0.9995793229502483,0
249,171.1,0.7333333333333201,0.7277777777777885,0.7027777777777828,1.0434782608695388,0.04175691321040024,0.9962213907759673,72.22222222222223,0.9999999999861537,1.035573122529652,1.634557634133671e-06,0.9994617465643568,0
250,171.82777777777778,0.7277777777777885,0.7416666666666742,0.7027777777777828,1.035573122529652,0.04251794318844394,1.0143777698006522,77.77777777777777,1.0769230769081655,1.0553359683794499,9.103608135774266e-06,0.99829148839555,0
251,172.56944444444446,0.7416666666666742,0.6999999999999886,0.7027777777777828,1.0553359683794499,0.04268191030640153,1.0182896382251736,75.0,1.0384615384471596,0.9960474308300162,2.3003967726253904e-06,0.9994721459103348,0
252,173.26944444444445,0.6999999999999886,0.6722222222222172,0.7013888888888857,0.9980198019801862,0.04104329517086701,0.9791961486982185,72.22222222222223,0.9999999999861537,0.9584158415841555,1.3851135918230284e-06,0.9997539343206577,0
253,173.94166666666666,0.6722222222222172,0.6833333333333371,0.6999999999999886,0.9603174603174687,0.0393385464949081,0.938524868991071,66.66666666666667,0.9230769230641419,0.9761904761904975,7.710845011388301e-07,0.9978593939435643,0
254,174.625,0.6833333333333371,0.7083333333333428,0.6999999999999886,0.9761904761904975,0.04140417169091146,0.9878058106932418,69.44444444444444,0.9615384615251478,1.0119047619047918,1.3079769587420742e-06,0.9994351605630901,0
255,175.33333333333334,0.7083333333333428,0.6944444444444287,0.7013888888888857,1.009900990099028,0.04061996835109356,0.9690965699524784,69.44444444444444,0.9615384615251478,0.990099009900972,8.550557595299324e-07,0.9991804532144293,0
256,176.02777777777777,0.6944444444444287,0.6916666666666629,0.6986111111111057,0.9940357852882554,0.04130294017951452,0.9853906657670337,72.22222222222223,0.9999999999861537,0.9900596421471195,1.7904808373714332e-06,0.9997224447413318,0
257,176.71944444444443,0.6916666666666629,0.7194444444444628,0.6986111111111057,0.9900596421471195,0.04282241758339006,1.0216418102162006,75.0,1.0384615384471596,1.0298210735586824,5.687922111974331e-06,0.999318813240921,0
258,177.4388888888889,0.7194444444444628,0.7027777777777828,0.7041666666666657,1.0216962524655107,0.04316288573967452,1.0297645768215673,77.77777777777777,1.0769230769081655,0.9980276134122373,6.106333785282914e-06,0.9988448483873219,0
259,178.14166666666668,0.7027777777777828,0.7138888888888744,0.7013888888888857,1.0019801980198138,0.04380678484074574,1.0451264895845251,77.77777777777777,1.0769230769081655,1.0178217821782016,1.199465350509854e-05,0.9973717753693574,0
260,178.85555555555555,0.7138888888888744,0.6861111111111029,0.7013888888888857,1.0178217821782016,0.04316172589908145,1.029736905762577,77.77777777777777,1.0769230769081655,0.9782178217821709,6.348163879010826e-06,0.9983678999206242,0
261,179.54166666666666,0.6861111111111029,0.6638888888888914,0.6972222222222086,0.9840637450199277,0.041452787750166885,0.9889656751190784,69.44444444444444,0.9615384615251478,0.9521912350597831,1.0084812629429507e-06,0.9993451002971233,0
262,180.20555555555555,0.6638888888888914,0.6500000000000057,0.6930555555555458,0.9579158316633438,0.039357779583532274,0.9389837250899772,69.44444444444444,0.9615384615251478,0.9378757515030275,1.1595166142797098e-06,0.9985044754350283,0
263,180.85555555555555,0.6500000000000057,0.6916666666666629,0.6930555555555458,0.9378757515030275,0.04131036583994076,0.9855678244980918,69.44444444444444,0.9615384615251478,0.9979959919839766,2.384406343480805e-06,0.998772777972063,0
264,181.54722222222222,0.6916666666666629,0.6972222222222229,0.6930555555555458,0.9979959919839766,0.0427030838327724,1.01879478858872,75.0,1.0384615384471596,1.0060120240481114,5.372362920752494e-06,0.9986117571190078,0
265,182.24444444444444,0.6972222222222229,0.7027777777777828,0.6930555555555458,1.0060120240481114,0.042847683745550015,1.0222446012098676,80.55555555555556,1.1153846153691716,1.0140280561122461,2.3658241843804717e-05,0.9970421274894006,0
266,182.94722222222222,0.7027777777777828,0.6972222222222229,0.6944444444444429,1.0120000000000096,0.04101641699617604,0.9785548988903785,72.22222222222223,0.9999999999861537,1.0040000000000031,1.8861820763049764e-06,0.999562417266903,0
267,183.64444444444445,0.6972222222222229,0.7138888888888744,0.6972222222222229,1.0,0.04191111814955405,0.9999003566558032,75.0,1.0384615384471596,1.0239043824700977,4.265782990842126e-06,0.9997122136523788,0
268,184.35833333333332,0.7138888888888744,0.7138888888889028,0.6972222222222229,1.0239043824700977,0.04054538630213637,0.9673172182996231,69.44444444444444,0.9615384615251478,1.0239043824701386,9.731155614645104e-07,0.9994956074621015,0
269,185.07222222222222,0.7138888888889028,0.6972222222222229,0.6972222222222229,1.0239043824701386,0.04066558042346598,0.9701847663415665,69.44444444444444,0.9615384615251478,1.0,9.435052561457269e-07,0.9990994838395887,0
270,185.76944444444445,0.6972222222222229,0.6666666666666572,0.6972222222222229,1.0,0.040880391109739955,0.9753096423005515,72.22222222222223,0.9999999999861537,0.9561752988047664,1.5771704511280404e-06,0.999338967525103,0
271,186.4361111111111,0.6666666666666572,0.6611111111111256,0.6972222222222229,0.9561752988047664,0.04150652060615873,0.9902476142379218,72.22222222222223,0.9999999999861537,0.9482071713147611,2.1436640054162126e-06,0.9992110265003794,0
272,187.09722222222223,0.6611111111111256,0.7027777777777828,0.6972222222222229,0.9482071713147611,0.04130428208699123,0.9854226805121373,72.22222222222223,0.9999999999861537,1.0079681274900463,3.2531847864447627e-06,0.9996411772542333,0
273,187.8,0.7027777777777828,0.7277777777777601,0.6972222222222229,1.0079681274900463,0.04204742235329804,1.0031522532396875,72.22222222222223,0.9999999999861537,1.0438247011951929,2.4053772449406097e-06,0.9998666224675019,0
274,188.52777777777777,0.7277777777777601,0.7277777777777885,0.7000000000000028,1.0396825396825102,0.04149675005668733,0.9900145119888643,72.22222222222223,0.9999999999861537,1.0396825396825509,1.7539653072162764e-06,0.9996220439593663,0
275,189.25555555555556,0.7277777777777885,0.7083333333333428,0.7027777777777828,1.035573122529652,0.04145858907482994,0.9891040810327303,72.22222222222223,0.9999999999861537,1.0079051383399271,1.4470336964222952e-06,0.9995088331597217,0
276,189.9638888888889,0.7083333333333428,0.7166666666666401,0.7055555555555628,1.0039370078740188,0.04171841130782888,0.9953028262562698,75.0,1.0384615384471596,1.015748031496015,3.6461490253714146e-06,0.9990328123926263,0
277,190.68055555555554,0.7166666666666401,0.6944444444444571,0.7111111111111086,1.0078124999999662,0.04226740612834516,1.00840054688681,75.0,1.0384615384471596,0.9765625000000212,2.5840404305199627e-06,0.9989808960244347,0
278,191.375,0.6944444444444571,0.6944444444444571,0.7055555555555628,0.9842519685039448,0.04288854208817773,1.0232193848274278,75.0,1.0384615384471596,0.9842519685039448,3.6305418689153157e-06,0.9994407080801917,0
279,192.06944444444446,0.6944444444444571,0.6666666666666572,0.7000000000000028,0.9920634920635061,0.04175449572313722,0.9961637152358427,72.22222222222223,0.9999999999861537,0.952380952380935,1.5411570757351e-06,0.9996664290205148,0
280,192.73611111111111,0.6666666666666572,0.674999999999983,0.69861111111112,0.9542743538767139,0.0416869140169993,0.9945513752398164,72.22222222222223,0.9999999999861537,0.9662027833001622,2.243316203021095e-06,0.9997736348986388,0
281,193.4111111111111,0.674999999999983,0.700000000000017,0.69861111111112,0.9662027833001622,0.040506273122766105,0.9663840701582944,69.44444444444444,0.9615384615251478,1.0019880715705882,1.329706606156833e-06,0.9991893213846077,0
282,194.11111111111111,0.700000000000017,0.74444444444444,0.7013888888888999,0.9980198019802066,0.043625372381326515,1.040798416488794,77.77777777777777,1.0769230769081655,1.0613861386138383,1.4049847777641844e-05,0.9990178104864967,0
283,194.85555555555555,0.74444444444444,0.7222222222222285,0.7041666666666799,1.0571992110453388,0.043235812627239974,1.0315044402302764,75.0,1.0384615384471596,1.0256410256410153,2.783635409286944e-06,0.9993584857628672,0
284,195.57777777777778,0.7222222222222285,0.7055555555555486,0.7041666666666799,1.0256410256410153,0.04295834336763017,1.024884678603902,77.77777777777777,1.0769230769081655,1.0019723865877426,5.904977115278598e-06,0.9989535316083431,0
285,196.28333333333333,0.7055555555555486,0.7055555555555486,0.7027777777777828,1.0039525691699434,0.042778900344672466,1.0206035916137017,75.0,1.0384615384471596,1.0039525691699434,3.783819920499809e-06,0.999166419452661,0
286,196.98888888888888,0.7055555555555486,0.6750000000000114,0.7027777777777828,1.0039525691699434,0.042317533583772285,1.00959646965797,75.0,1.0384615384471596,0.9604743083004045,2.77929848380154e-06,0.9993820513192154,0
287,197.6638888888889,0.6750000000000114,0.6833333333333371,0.6972222222222371,0.9681274900398363,0.04050269674361723,0.9662987461930941,69.44444444444444,0.9615384615251478,0.980079681274885,1.2533369044831488e-06,0.9988191616115221,0
288,198.34722222222223,0.6833333333333371,0.6944444444444287,0.6972222222222371,0.980079681274885,0.04131321266163431,0.9856357429443753,69.44444444444444,0.9615384615251478,0.9960159362549362,1.3348166021387442e-06,0.9989037132034915,0
289,199.04166666666666,0.6944444444444287,0.6861111111111313,0.6972222222222229,0.9960159362549565,0.03993218258914587,0.9526876250462543,69.44444444444444,0.9615384615251478,0.9840637450199484,1.1479559134386363e-06,0.9981688310476509,0
290,199.7277777777778,0.6861111111111313,0.6861111111111029,0.6972222222222229,0.9840637450199484,0.04174523236882594,0.995942713466178,72.22222222222223,0.9999999999861537,0.9840637450199077,2.0204652173561044e-06,0.9995422084536176,0
291,200.4138888888889,0.6861111111111029,0.7416666666666742,0.6972222222222229,0.9840637450199077,0.04224502413891798,1.007866565447063,72.22222222222223,0.9999999999861537,1.0637450199203287,4.259892193658743e-06,0.999377358506635,0
292,201.15555555555557,0.7416666666666742,0.7333333333333201,0.6999999999999886,1.0595238095238375,0.04344819359617071,1.0365713488682893,80.55555555555556,1.1153846153691716,1.0476190476190457,2.2542113583767787e-05,0.9960567784141173,0
293,201.88888888888889,0.7333333333333201,0.7111111111111086,0.6999999999999886,1.0476190476190457,0.04323824898606503,1.031562566001329,77.77777777777777,1.0769230769081655,1.0158730158730287,6.284608389250934e-06,0.9987184345322677,0
294,202.6,0.7111111111111086,0.6888888888888971,0.6999999999999886,1.0158730158730287,0.0406955111620818,0.9708988431197174,69.44444444444444,0.9615384615251478,0.9841269841270118,9.483332519266696e-07,0.9984730638491448,0
295,203.2888888888889,0.6888888888888971,0.6861111111111029,0.6916666666666629,0.9959839357429893,0.0399736492983091,0.9536769228534305,69.44444444444444,0.9615384615251478,0.9919678714859373,1.3236108316050377e-06,0.998432826162041,0
296,203.975,0.6861111111111029,0.6805555555555713,0.6875000000000142,0.9979797979797654,0.03845269823729325,0.9173906204231539,63.888888888888886,0.8846153846031359,0.9898989898989924,6.324063406282221e-07,0.9970215817183701,0
297,204.65555555555557,0.6805555555555713,0.7027777777777544,0.6875000000000142,0.9898989898989924,0.0412626999521284,0.9844306289202066,72.22222222222223,0.9999999999861537,1.022222222222167,2.741300249908818e-06,0.9995763689811779,0
298,205.35833333333332,0.7027777777777544,0.6944444444444571,0.6916666666666629,1.0160642570280842,0.043615852867844904,1.0405713033659352,80.55555555555556,1.1153846153691716,1.004016064257052,1.8344642739975825e-05,0.9982086009829316,0
299,206.05277777777778,0.6944444444444571,0.6999999999999886,0.6916666666666771,1.0040160642570313,0.042738906963678956,1.0196494439391732,75.0,1.0384615384471596,1.0120481927710527,4.816447017219616e-06,0.9994289855573213,0
300,206.75277777777777,0.6999999999999886,0.7361111111111143,0.6972222222222229,1.0039840637450026,0.04184114194316255,0.9982308895354415,75.0,1.0384615384471596,1.0557768924302824,6.03337457505404e-06,0.9990627225979904,0
301,207.48888888888888,0.7361111111111143,0.7583333333333542,0.7013888888888715,1.04950495049508,0.04232470589800065,1.0097675841467173,77.77777777777777,1.0769230769081655,1.0811881188119377,1.213935229316121e-05,0.9977235338265623,0
302,208.24722222222223,0.7583333333333542,0.7111111111111086,0.7013888888888715,1.0811881188119377,0.04153330573700159,0.9908866442391563,75.0,1.0384615384471596,1.0138613861386354,2.1678615667042322e-06,0.9992372347871227,0
303,208.95833333333334,0.7111111111111086,0.669444444444423,0.7013888888888715,1.0138613861386354,0.040074121095747366,0.95607394279773,72.22222222222223,0.9999999999861537,0.9544554455445474,1.2054925946358708e-06,0.9995806752821995,0
304,209.62777777777777,0.669444444444423,0.6805555555555713,0.6972222222222229,0.9601593625497691,0.04146477648932085,0.989251698138391,72.22222222222223,0.9999999999861537,0.9760956175299023,2.279595264553791e-06,0.9996742284359525,0
305,210.30833333333334,0.6805555555555713,0.6722222222222172,0.6972222222222229,0.9760956175299023,0.041737673160088584,0.9957623685876293,75.0,1.0384615384471596,0.9641434262948126,3.889500931109069e-06,0.9992000583821711,0
306,210.98055555555555,0.6722222222222172,0.6999999999999886,0.6972222222222229,0.9641434262948126,0.041613004450839236,0.9927880674392462,72.22222222222223,0.9999999999861537,1.0039840637450026,2.767346359178191e-06,0.9994915370684839,0
307,211.68055555555554,0.6999999999999886,0.7138888888889028,0.6999999999999886,1.0,0.041089426920243,0.9802967433540234,72.22222222222223,0.9999999999861537,1.0198412698413062,1.9910160062863724e-06,0.9994975874942308,0
308,212.39444444444445,0.7138888888889028,0.7305555555555543,0.6999999999999886,1.0198412698413062,0.04160009727756345,0.9924801327495577,72.22222222222223,0.9999999999861537,1.0436507936508088,2.151450871679117e-06,0.9995035963423764,0
309,213.125,0.7305555555555543,0.7194444444444343,0.7055555555555486,1.03543307086615,0.04080638589569216,0.9735440525671368,72.22222222222223,0.9999999999861537,1.0196850393700745,1.331738303633756e-06,0.9997542741174676,0
310,213.84444444444443,0.7194444444444343,0.7527777777777942,0.7125000000000057,1.009746588693935,0.042781312145837164,1.0206611314969414,77.77777777777777,1.0769230769081655,1.056530214424966,9.215767931891605e-06,0.999078303245182,0
311,214.59722222222223,0.7527777777777942,0.7083333333333144,0.7125000000000057,1.056530214424966,0.04323824248898591,1.0315624109963561,77.77777777777777,1.0769230769081655,0.9941520467835913,4.7317648750322405e-06,0.9974872670419159,0
312,215.30555555555554,0.7083333333333144,0.6750000000000114,0.7097222222222115,0.9980430528375618,0.04168289412588112,0.9944554701258453,75.0,1.0384615384471596,0.951076320939365,2.3260995476448443e-06,0.9993026284270587,0
313,215.98055555555555,0.6750000000000114,0.6833333333333371,0.7041666666666515,0.9585798816568415,0.039573014202950355,0.9441187150931752,66.66666666666667,0.9230769230641419,0.9704142011834582,7.371527317445725e-07,0.997599381787551,0
314,216.6638888888889,0.6833333333333371,0.6888888888888971,0.7041666666666515,0.9704142011834582,0.04092492601785461,0.9763721400928693,72.22222222222223,0.9999999999861537,0.9783037475345495,1.7357212982460624e-06,0.9997523440584877,0
315,217.3527777777778,0.6888888888888971,0.7166666666666686,0.7041666666666515,0.9783037475345495,0.041627527823887456,0.9931345608408048,72.22222222222223,0.9999999999861537,1.0177514792899653,2.2314441139315022e-06,0.999842197627663,0
316,218.06944444444446,0.7166666666666686,0.7361111111110858,0.7111111111111086,1.0078125000000062,0.042400721348087075,1.0115811333672737,75.0,1.0384615384471596,1.0351562499999682,3.9435090002371e-06,0.9988946899338427,0
317,218.80555555555554,0.7361111111110858,0.7250000000000227,0.7152777777777857,1.0291262135921864,0.04119783825089442,0.982883181821188,72.22222222222223,0.9999999999861537,1.0135922330097293,1.2307137922107358e-06,0.9990945762983359,0
318,219.53055555555557,0.7250000000000227,0.7111111111111086,0.7180555555555515,1.0096711798839832,0.04253733067231201,1.0148403094056604,77.77777777777777,1.0769230769081655,0.9903288201160563,4.398200871946756e-06,0.9991605893638945,0
319,220.24166666666667,0.7111111111111086,0.7305555555555543,0.7138888888888886,0.9961089494163393,0.04254424693934295,1.0150053152126228,75.0,1.0384615384471596,1.023346303501944,3.7079885260027368e-06,0.9994104909703835,0
320,220.97222222222223,0.7305555555555543,0.7027777777777828,0.7138888888888886,1.023346303501944,0.042090631350222556,1.0041831179205436,75.0,1.0384615384471596,0.9844357976653771,2.046007921308046e-06,0.9995045649706102,0
321,221.675,0.7027777777777828,0.6805555555555429,0.7097222222222115,0.9902152641878891,0.04044625451999584,0.964952167957503,69.44444444444444,0.9615384615251478,0.9589041095890378,7.294406145774701e-07,0.998839047487829,0
322,222.35555555555555,0.6805555555555429,0.6694444444444514,0.7069444444444457,0.9626719056974263,0.03915975661761439,0.9342593645148003,66.66666666666667,0.9230769230641419,0.9469548133595366,6.211232630448649e-07,0.9972241893471373,0
323,223.025,0.6694444444444514,0.6944444444444287,0.7069444444444457,0.9469548133595366,0.04094369281775967,0.9768198716435141,69.44444444444444,0.9615384615251478,0.9823182711198187,1.2903417427878594e-06,0.9993155367179931,0
324,223.71944444444443,0.6944444444444287,0.7138888888889028,0.7069444444444457,0.9823182711198187,0.040515585711880756,0.966606246554159,66.66666666666667,0.9230769230641419,1.0098231827112163,7.073501251397829e-07,0.9983307379433293,0
325,224.43333333333334,0.7138888888889028,0.74444444444444,0.7125000000000057,1.001949317738803,0.042265995428068005,1.0083668909078587,77.77777777777777,1.0769230769081655,1.0448343079921882,8.049973985180259e-06,0.9993984186165432,0
326,225.17777777777778,0.74444444444444,0.7194444444444343,0.7125000000000057,1.0448343079921882,0.04261954363962443,1.016801716759291,77.77777777777777,1.0769230769081655,1.009746588693935,5.518415491678752e-06,0.9975804762542847,0
327,225.8972222222222,0.7194444444444343,0.705555555555577,0.7125000000000057,1.009746588693935,0.04254158494800483,1.0149418063823668,75.0,1.0384615384471596,0.9902534113060651,2.8254441986064194e-06,0.9987639740291059,0
328,226.6027777777778,0.705555555555577,0.7138888888888744,0.7083333333333428,0.996078431372566,0.0412495522995403,0.9841169569617273,72.22222222222223,0.9999999999861537,1.007843137254868,1.6531629398741643e-06,0.9994669253802992,0
329,227.31666666666666,0.7138888888888744,0.7055555555555486,0.7097222222222257,1.0058708414872544,0.04199782586087705,1.0019689979926272,75.0,1.0384615384471596,0.9941291585127054,2.7957964903180255e-06,0.9992630556116994,0
330,228.0222222222222,0.7055555555555486,0.6833333333333371,0.7055555555555628,0.9999999999999799,0.03980019954614205,0.9495388211584381,66.66666666666667,0.9230769230641419,0.9685039370078694,4.0968956227516173e-07,0.999235710997006,0
331,228.70555555555555,0.6833333333333371,0.6722222222222172,0.7055555555555628,0.9685039370078694,0.04073918290499987,0.971940747827765,69.44444444444444,0.9615384615251478,0.952755905511794,7.943657465148135e-07,0.9995881487237466,0
332,229.37777777777777,0.6722222222222172,0.700000000000017,0.7055555555555628,0.952755905511794,0.041098258784741964,0.9805074507952074,69.44444444444444,0.9615384615251478,0.9921259842519825,1.5111538687051507e-06,0.9986950264495681,0
333,230.07777777777778,0.700000000000017,0.7111111111111086,0.7055555555555628,0.9921259842519825,0.04253430199243838,1.0147680522524383,75.0,1.0384615384471596,1.0078740157480175,4.036656719108578e-06,0.9991985186336598,0
334,230.7888888888889,0.7111111111111086,0.7472222222222058,0.7083333333333428,1.003921568627434,0.04316707217998784,1.02986445540623,83.33333333333333,1.1538461538301772,1.0549019607842764,6.814001244492829e-05,0.9952908288125888,0
335,231.5361111111111,0.7472222222222058,0.7277777777777885,0.7083333333333428,1.0549019607842764,0.04279694402652711,1.021034071274432,80.55555555555556,1.1153846153691716,1.0274509803921583,1.4918806300556753e-05,0.9966499445482172,0
336,232.26388888888889,0.7277777777777885,0.7027777777777828,0.7083333333333428,1.0274509803921583,0.04278510746210477,1.0207516787850393,75.0,1.0384615384471596,0.9921568627450918,2.3706616048002616e-06,0.9997148426655265,0
337,232.96666666666667,0.7027777777777828,0.6944444444444287,0.7055555555555628,0.9960629921259812,0.04026756278650937,0.9606890049608254,66.66666666666667,0.9230769230641419,0.9842519685039045,5.718384841202351e-07,0.9982465527920361,0
338,233.6611111111111,0.6944444444444287,0.7194444444444628,0.7041666666666657,0.9861932938855805,0.04180176013881668,0.9972913326362275,72.22222222222223,0.9999999999861537,1.0216962524655107,2.2070798877393827e-06,0.9996676724908291,0
339,234.38055555555556,0.7194444444444628,0.6777777777777771,0.7041666666666657,1.0216962524655107,0.04126452246344388,0.9844741097385388,72.22222222222223,0.9999999999861537,0.9625246548323475,1.1675402902255883e-06,0.999795994397626,0
340,235.05833333333334,0.6777777777777771,1.3666666666666742,0.7013888888888999,0.9663366336633502,0.042100763051961095,1.004424836410271,75.0,1.0384615384471596,1.9485148514851287,0.008371791802346706,0.9991246246608116,0
341,236.425,1.3666666666666742,0.7055555555555486,0.7069444444444457,1.933202357563858,0.0425817446158707,1.0158999212691844,77.77777777777777,1.0769230769081655,0.9980353634577487,4.175105772219467e-08,0.9973296743724964,0
342,237.13055555555556,0.7055555555555486,0.7472222222222058,0.7083333333333286,0.9960784313725459,0.04194617414929367,1.0007367100672655,72.22222222222223,0.9999999999861537,1.0549019607842975,2.53663097282697e-06,0.9998202253021644,0
343,237.87777777777777,0.7472222222222058,0.7194444444444628,0.7152777777777857,1.044660194174723,0.04409214594457732,1.0519345319869902,77.77777777777777,1.0769230769081655,1.005825242718461,6.012868652760517e-06,0.9970014289274833,0
344,238.59722222222223,0.7194444444444628,0.6861111111111029,0.7194444444444628,1.0,0.04143182350447662,0.9884655176986079,72.22222222222223,0.9999999999861537,0.953667953667918,9.598304586688755e-07,0.9995568240503581,0
345,239.28333333333333,0.6861111111111029,0.6611111111111256,0.7125000000000057,0.9629629629629437,0.040514271300025634,0.966574887789689,69.44444444444444,0.9615384615251478,0.9278752436647303,8.211620183828927e-07,0.998250652142725,0
346,239.94444444444446,0.6611111111111256,0.6888888888888687,0.7041666666666657,0.9388560157791146,0.041741876068792955,0.9958626400692323,72.22222222222223,0.9999999999861537,0.9783037475344893,2.945037977042375e-06,0.9993599236640907,0
347,240.63333333333333,0.6888888888888687,0.6583333333333314,0.6999999999999886,0.9841269841269712,0.042254790330667424,1.00809956373116,75.0,1.0384615384471596,0.940476190476203,3.085042635575519e-06,0.9993940760929036,0
348,241.29166666666666,0.6583333333333314,0.6583333333333314,0.6972222222222086,0.9442231075697368,0.042116342750005385,1.0047965312330023,77.77777777777777,1.0769230769081655,0.9442231075697368,1.3695166671823245e-05,0.9971892019956453,0
349,241.95,0.6583333333333314,0.6666666666666856,0.6874999999999858,0.9575757575757746,0.04204782524730949,1.003161865339854,72.22222222222223,0.9999999999861537,0.9696969696970174,3.0070812044868944e-06,0.999159466994586,0
350,242.61666666666667,0.6666666666666856,0.6916666666666629,0.6874999999999858,0.9696969696970174,0.042497080273378125,1.0138800298897115,75.0,1.0384615384471596,1.0060606060606214,7.57882389734732e-06,0.9986783599190046,0
351,243.30833333333334,0.6916666666666629,0.6916666666666629,0.6874999999999858,1.0060606060606214,0.042130535695138555,1.0051351414044134,75.0,1.0384615384471596,1.0060606060606214,4.529686066234717e-06,0.9996789733897102,0
352,244.0,0.6916666666666629,0.6777777777777771,0.6874999999999858,1.0060606060606214,0.04315903109279891,1.0296726140451997,75.0,1.0384615384471596,0.9858585858586053,4.8191532187047414e-06,0.9990836639327365,0
353,244.67777777777778,0.6777777777777771,0.6555555555555657,0.68194444444444,0.9938900203666043,0.043409190279535936,1.0356408217925213,77.77777777777777,1.0769230769081655,0.9613034623218133,1.3297712030180264e-05,0.9971620389319382,0
354,245.33333333333334,0.6555555555555657,0.6361111111110915,0.6722222222222314,0.9752066115702497,0.04231726312088685,1.0095900170518943,75.0,1.0384615384471596,0.9462809917354952,5.726571089326171e-06,0.9994826346848199,0
355,245.96944444444443,0.6361111111110915,0.6277777777777942,0.6638888888889056,0.958158995815846,0.041265492009851905,0.9844972408274236,72.22222222222223,0.9999999999861537,0.9456066945606704,4.026840542792343e-06,0.9994579844435793,0
356,246.59722222222223,0.6277777777777942,0.6777777777777771,0.6625000000000085,0.9475890985325074,0.042288127013155145,1.0088948982910793,75.0,1.0384615384471596,1.0230607966456882,1.5723386241006665e-05,0.9987101170383801,0
357,247.275,0.6777777777777771,0.6527777777777715,0.6625000000000085,1.0230607966456882,0.04270317127509295,1.0187968747560994,77.77777777777777,1.0769230769081655,0.9853249475890763,1.2402976608427707e-05,0.9994391977513075,0
358,247.92777777777778,0.6527777777777715,0.6555555555555657,0.6625000000000085,0.9853249475890763,0.042901558366890816,1.0235299225153298,75.0,1.0384615384471596,0.9895178197065014,9.268263056583237e-06,0.9992581085397649,0
359,248.58333333333334,0.6555555555555657,0.669444444444423,0.6611111111111256,0.9915966386554557,0.043005057250743536,1.0259991615966764,75.0,1.0384615384471596,1.012605042016752,1.1533588804013561e-05,0.9987784531921222,0
360,249.25277777777777,0.669444444444423,0.6888888888888971,0.6624999999999943,1.0104821802934774,0.04305265264820921,1.0271346754412674,80.55555555555556,1.1153846153691716,1.0398322851153252,3.9699720218777657e-05,0.9975527259301222,0
361,249.94166666666666,0.6888888888888971,0.6944444444444571,0.6624999999999943,1.0398322851153252,0.0420334767499854,1.0028195440603158,72.22222222222223,0.9999999999861537,1.0482180293501329,5.697493179468438e-06,0.9995766594714843,0
362,250.63611111111112,0.6944444444444571,0.6916666666666629,0.6624999999999943,1.0482180293501329,0.04151521832124562,0.9904551211907652,75.0,1.0384615384471596,1.0440251572327077,8.882063411874697e-06,0.9991970708926797,0
363,251.32777777777778,0.6916666666666629,0.63611111111112,0.6624999999999943,1.0440251572327077,0.04141454609055043,0.9880533193820361,72.22222222222223,0.9999999999861537,0.9601677148847176,2.9000043468840886e-06,0.9997564457555064,0
364,251.9638888888889,0.63611111111112,0.6305555555555316,0.6624999999999943,0.9601677148847176,0.041638218072398314,0.9933896049381873,69.44444444444444,0.9615384615251478,0.9517819706498671,2.9110603918525157e-06,0.9990478349102214,0
365,252.59444444444443,0.6305555555555316,0.6666666666666856,0.6624999999999943,0.9517819706498671,0.04054984537833931,0.9674236013331126,69.44444444444444,0.9615384615251478,1.006289308176138,3.851797828247072e-06,0.9988525060132811,0
366,253.26111111111112,0.6666666666666856,0.6916666666666629,0.6680555555555543,0.9979209979210282,0.042181896765721795,1.0063604953215088,72.22222222222223,0.9999999999861537,1.0353430353430317,5.230634997133166e-06,0.9995127116395219,0
367,253.95277777777778,0.6916666666666629,0.6916666666666629,0.6680555555555543,1.0353430353430317,0.04087193849876048,0.9751079829531942,69.44444444444444,0.9615384615251478,1.0353430353430317,2.545551524235634e-06,0.9995304205803799,0
368,254.64444444444445,0.6916666666666629,0.6861111111111029,0.67916666666666,1.0184049079754645,0.04131616386000835,0.9857061515718959,72.22222222222223,0.9999999999861537,1.0102249488752535,2.6980180791724706e-06,0.999552284072049,0
369,255.33055555555555,0.6861111111111029,0.7027777777778113,0.6875,0.9979797979797861,0.04247954745025061,1.0134617381124358,75.0,1.0384615384471596,1.022222222222271,5.852200047229417e-06,0.9992611260189097,0
370,256.03333333333336,0.7027777777778113,0.6972222222221944,0.69027777777778,1.0181086519115141,0.04313119385129845,1.029008483166961,77.77777777777777,1.0769230769081655,1.0100603621729947,1.1381720469216816e-05,0.9975497619044423,0
371,256.73055555555555,0.6972222222221944,0.6999999999999886,0.6916666666666629,1.0080321285140215,0.042629944848367844,1.0170498650500401,80.55555555555556,1.1153846153691716,1.0120481927710734,2.6869873181567527e-05,0.9962675582931467,0
372,257.43055555555554,0.6999999999999886,0.6805555555555429,0.6916666666666629,1.0120481927710734,0.041376472854375394,0.9871449818307779,72.22222222222223,0.9999999999861537,0.9839357429718747,2.0205038708809298e-06,0.9990794864780733,0
373,258.1111111111111,0.6805555555555429,0.6638888888888914,0.6888888888888829,0.9879032258064419,0.0399450827504297,0.9529953924463649,66.66666666666667,0.9230769230641419,0.9637096774193669,7.888020832069742e-07,0.9985754509155398,0
374,258.775,0.6638888888888914,0.6805555555555998,0.6888888888888829,0.9637096774193669,0.039721120196665224,0.947652174530118,66.66666666666667,0.9230769230641419,0.9879032258065243,1.0100299050463946e-06,0.9983437144564398,0
375,259.4555555555556,0.6805555555555998,0.73888888888888,0.6888888888888829,0.9879032258065243,0.04170806075195659,0.9950558864234704,75.0,1.0384615384471596,1.072580645161287,1.0021469279308803e-05,0.9989503019853687,0
376,260.19444444444446,0.73888888888888,0.7277777777777601,0.6916666666666629,1.068273092369471,0.042636273697280645,1.0172008564471808,75.0,1.0384615384471596,1.0522088353413457,4.604546575137647e-06,0.9985145296299337,0
377,260.9222222222222,0.7277777777777601,0.7138888888889028,0.6944444444444287,1.0479999999999983,0.042891053176947566,1.0232792934785784,75.0,1.0384615384471596,1.0280000000000433,3.635829443737748e-06,0.9994695844121836,0
378,261.6361111111111,0.7138888888889028,0.7361111111110858,0.6986111111110915,1.0218687872763905,0.04253586776126977,1.0148054078010866,77.77777777777777,1.0769230769081655,1.05367793240556,1.075406362360809e-05,0.9984423142330876,0
379,262.3722222222222,0.7361111111110858,0.716666666666697,0.7013888888888999,1.049504950494997,0.042986927092246614,1.0255666188073713,77.77777777777777,1.0769230769081655,1.021782178217849,6.489075531135313e-06,0.9984216712281218,0
380,263.0888888888889,0.716666666666697,0.7138888888889028,0.7069444444444457,1.013752455795719,0.041687681644634295,0.9945696890233634,72.22222222222223,0.9999999999861537,1.0098231827112163,1.477704472563346e-06,0.9998308231375486,0
381,263.8027777777778,0.7138888888889028,0.702777777777726,0.7138888888889028,1.0,0.04107036951977172,0.9798420787597703,72.22222222222223,0.9999999999861537,0.9844357976652779,1.2143207186454674e-06,0.9997216731685681,0
382,264.50555555555553,0.702777777777726,0.6972222222222513,0.7138888888889028,0.9844357976652779,0.040228068786326794,0.9597467713337624,66.66666666666667,0.9230769230641419,0.9766536964980762,3.813649698258814e-07,0.999274520646869,0
383,265.2027777777778,0.6972222222222513,0.6999999999999886,0.7138888888889028,0.9766536964980762,0.03977341469654032,0.9488997978669532,69.44444444444444,0.9615384615251478,0.980544747081677,7.857028094804264e-07,0.9988927510211303,0
384,265.90277777777777,0.6999999999999886,0.7722222222222399,0.7138888888889028,0.980544747081677,0.042000839716163696,1.002040901466194,72.22222222222223,0.9999999999861537,1.081712062256813,4.239498593960889e-06,0.9997863225747291,0
385,266.675,0.7722222222222399,0.7555555555555316,0.7152777777777999,1.0796116504854283,0.04297129639259158,1.0251937072065862,77.77777777777777,1.0769230769081655,1.0563106796115842,5.074262844573241e-06,0.9985232902233483,0
386,267.43055555555554,0.7555555555555316,0.7333333333333485,0.7152777777777999,1.0563106796115842,0.04249981346425686,1.013945237372955,77.77777777777777,1.0769230769081655,1.0252427184465915,4.288400759833166e-06,0.9987553674485434,0
387,268.1638888888889,0.7333333333333485,0.7361111111110858,0.7152777777777999,1.0252427184465915,0.041999799097191134,1.0020160747536713,75.0,1.0384615384471596,1.029126213592166,2.6952664029522566e-06,0.9992822706396911,0
388,268.9,0.7361111111110858,0.7138888888889028,0.7250000000000227,1.0153256704980176,0.04231724250369912,1.0095895251744578,77.77777777777777,1.0769230769081655,0.984674329501904,3.385413265277748e-06,0.9992524134536203,0
389,269.6138888888889,0.7138888888889028,0.716666666666697,0.7152777777777999,0.998058252427173,0.041433655990452484,0.9885092364887937,72.22222222222223,0.9999999999861537,1.001941747572827,1.277348815165169e-06,0.9999277942456396,0
390,270.3305555555556,0.716666666666697,0.7111111111111086,0.7152777777777999,1.001941747572827,0.04095250416344555,0.9770300895542483,72.22222222222223,0.9999999999861537,0.9941747572815192,1.2521792314146296e-06,0.9995260579271934,0
391,271.0416666666667,0.7111111111111086,0.7111111111111086,0.7152777777777999,0.9941747572815192,0.03984812932111046,0.9506823124610164,66.66666666666667,0.9230769230641419,0.9941747572815192,3.6908210176989087e-07,0.9992128287666613,0
392,271.7527777777778,0.7111111111111086,0.7194444444444343,0.7152777777777999,0.9941747572815192,0.04095365154190962,0.9770574632962551,69.44444444444444,0.9615384615251478,1.0058252427184013,9.103366096496757e-07,0.9984162415138009,0
393,272.47222222222223,0.7194444444444343,0.783333333333303,0.7180555555555657,1.001934235976761,0.04204021093344513,1.002980205783039,75.0,1.0384615384471596,1.0909090909090333,7.590564109705156e-06,0.9991205121491683,0
394,273.25555555555553,0.783333333333303,0.7555555555555884,0.7263888888888914,1.0783938814531093,0.042937277111742445,1.0243820874608938,77.77777777777777,1.0769230769081655,1.0401529636711697,3.7394343053165358e-06,0.9983525814138503,0
395,274.0111111111111,0.7555555555555884,0.7138888888889028,0.7263888888888914,1.0401529636711697,0.043558865443046324,1.0392117179170892,80.55555555555556,1.1153846153691716,0.9827915869981037,6.801560630265158e-06,0.9982808359326747,0
396,274.725,0.7138888888889028,0.7111111111111086,0.7180555555555657,0.9941972920696378,0.04282551642218172,1.0217157411956115,75.0,1.0384615384471596,0.9903288201160367,2.621956127768499e-06,0.9996623637964968,0
397,275.43611111111113,0.7111111111111086,0.6916666666666629,0.7152777777777999,0.9941747572815192,0.042274695572944505,1.0085744558297471,72.22222222222223,0.9999999999861537,0.9669902912621008,1.1699891047101119e-06,0.9997980566147462,0
398,276.1277777777778,0.6916666666666629,0.7166666666666401,0.7138888888889028,0.9688715953307151,0.04128231766315556,0.9848986612018278,72.22222222222223,0.9999999999861537,1.003891050583601,2.110824198098271e-06,0.9993569660016366,0
399,276.84444444444443,0.7166666666666401,0.705555555555577,0.7152777777777715,1.0019417475727872,0.04189396846749446,0.9994912057200844,75.0,1.0384615384471596,0.98640776699033,2.451729187669116e-06,0.9991716428170325,0
400,277.55,0.705555555555577,0.7166666666666401,0.7125000000000057,0.9902534113060651,0.040073036438786416,0.9560480654427467,69.44444444444444,0.9615384615251478,1.005847953216329,8.024619546631584e-07,0.9992013431254665,0
401,278.26666666666665,0.7166666666666401,0.7333333333333485,0.7152777777777715,1.0019417475727872,0.041805624247909304,0.9973835211587595,75.0,1.0384615384471596,1.0252427184466322,3.092165115958778e-06,0.9995116541087278,0
402,279.0,0.7333333333333485,0.7805555555555657,0.7166666666666401,1.0232558139535475,0.04234801121786943,1.0103235940714732,77.77777777777777,1.0769230769081655,1.0891472868217598,1.205428361572558e-05,0.9985798947871247,0
403,279.78055555555557,0.7805555555555657,0.7249999999999659,0.7166666666666401,1.0891472868217598,0.04266067926453779,1.0177831156777202,75.0,1.0384615384471596,1.011627906976734,1.4129376495475299e-06,0.9994483606174865,0
404,280.50555555555553,0.7249999999999659,0.6972222222222513,0.7166666666666401,1.011627906976734,0.04240251576109822,1.0116239438263845,77.77777777777777,1.0769230769081655,0.9728682170543401,3.979846951551735e-06,0.9990819642296056,0
405,281.2027777777778,0.6972222222222513,0.6916666666666629,0.7152777777777715,0.9747572815534473,0.04248415529526475,1.0135716704186228,75.0,1.0384615384471596,0.9669902912621392,3.465464260443696e-06,0.9984738553260153,0
406,281.89444444444445,0.6916666666666629,0.6777777777777487,0.7138888888888744,0.9688715953307537,0.04193597485033151,1.0004933788673314,75.0,1.0384615384471596,0.94941634241243,2.947504981420934e-06,0.999056793740041,0
407,282.5722222222222,0.6777777777777487,0.7027777777777828,0.7111111111111086,0.9531249999999625,0.04176164049851139,0.9963341727125286,72.22222222222223,0.9999999999861537,0.9882812500000107,2.228696530437446e-06,0.999887994635918,0
408,283.275,0.7027777777777828,0.7111111111111086,0.7111111111111086,0.9882812500000107,0.04188803074973162,0.9993495457889987,75.0,1.0384615384471596,1.0,3.177606686222134e-06,0.9995770748806989,0
409,283.9861111111111,0.7111111111111086,0.7138888888889028,0.7083333333333428,1.003921568627434,0.04212181542540508,1.004927096350938,72.22222222222223,0.9999999999861537,1.0078431372549082,1.6203347286136704e-06,0.9996357233256478,0
410,284.7,0.7138888888889028,0.7194444444444343,0.7125000000000057,1.001949317738803,0.042293114516989784,1.0090138883606183,75.0,1.0384615384471596,1.009746588693935,2.9134878332115477e-06,0.9996228022885738,0
411,285.4194444444444,0.7194444444444343,0.7555555555555884,0.7125000000000057,1.009746588693935,0.043340118667191584,1.03399293615102,77.77777777777777,1.0769230769081655,1.0604288499025718,1.1268050002399832e-05,0.9984739814878116,0
412,286.175,0.7555555555555884,0.7222222222222285,0.7125000000000057,1.0604288499025718,0.04303674996868828,1.026755275042833,80.55555555555556,1.1153846153691716,1.0136452241715408,1.1521386113599874e-05,0.9970223820451405,0
413,286.89722222222224,0.7222222222222285,0.6861111111110745,0.7125000000000057,1.0136452241715408,0.04210784445095682,1.0045937818761537,75.0,1.0384615384471596,0.9629629629629038,1.9446531496214448e-06,0.9997813809035284,0
414,287.5833333333333,0.6861111111110745,0.6916666666666629,0.7069444444444457,0.9705304518663511,0.04044465110746986,0.9649139143191516,69.44444444444444,0.9615384615251478,0.9783889980353564,9.221387813340698e-07,0.9991112291714895,0
415,288.275,0.6916666666666629,0.6861111111111313,0.7069444444444457,0.9783889980353564,0.042606441715961174,1.016489135785025,75.0,1.0384615384471596,0.9705304518664316,3.2219420518231345e-06,0.9996413729250195,0
416,288.9611111111111,0.6861111111111313,0.7083333333333144,0.7069444444444457,0.9705304518664316,0.040082956898674055,0.9562847442005036,69.44444444444444,0.9615384615251478,1.001964636542211,1.1873476069013122e-06,0.9985332749349021,0
417,289.6694444444444,0.7083333333333144,0.7138888888889028,0.7097222222222115,0.9980430528375618,0.04180207999585673,0.9972989636702477,72.22222222222223,0.9999999999861537,1.0058708414873145,1.5328387235058472e-06,0.9998308872610575,0
418,290.3833333333333,0.7138888888889028,0.7722222222222399,0.7125000000000057,1.001949317738803,0.028066093865904224,0.6695907555201194,44.44444444444444,0.6153846153760946,1.0838206627680473,7.300094148376957e-05,0.9473628289059292,0
419,291.15555555555557,0.7722222222222399,0.7194444444444343,0.7138888888889028,1.081712062256813,0.04304174391454257,1.026874418803756,77.77777777777777,1.0769230769081655,1.0077821011672814,4.221524704917101e-06,0.9975816993846307,0
420,291.875,0.7194444444444343,0.75,0.7166666666666686,1.0038759689922314,0.04338101619152788,1.034968654551667,80.55555555555556,1.1153846153691716,1.046511627906974,2.1530091544263996e-05,0.9975623435142027,0
421,292.625,0.75,0.7222222222222285,0.7166666666666686,1.046511627906974,0.043288355481708986,1.0327579887215337,77.77777777777777,1.0769230769081655,1.0077519379845024,5.516658347914927e-06,0.9970751697006373,0
422,293.34722222222223,0.7222222222222285,0.6888888888888687,0.7166666666666686,1.0077519379845024,0.041115122820429104,0.9809097868826879,69.44444444444444,0.9615384615251478,0.9612403100774887,5.95345341025677e-07,0.9989098251074926,0
423,294.0361111111111,0.6888888888888687,0.6777777777778056,0.7111111111111086,0.968749999999975,0.038675254656902504,0.9227002912973418,63.888888888888886,0.8846153846031359,0.9531250000000425,3.049904648833035e-07,0.9978311163875829,0
424,294.7138888888889,0.6777777777778056,0.6972222222221944,0.7111111111111086,0.9531250000000425,0.04062473068715424,0.969210188050392,69.44444444444444,0.9615384615251478,0.9804687499999644,1.1046082590837614e-06,0.9992707096344174,0
425,295.4111111111111,0.6972222222221944,0.7111111111111086,0.7111111111111086,0.9804687499999644,0.04115339377136121,0.9818228414413857,72.22222222222223,0.9999999999861537,1.0,1.9077624529018067e-06,0.9989688959943723,0
426,296.1222222222222,0.7111111111111086,0.7416666666666742,0.7125000000000057,0.9980506822611971,0.04289723388495544,1.0234267505833832,77.77777777777777,1.0769230769081655,1.0409356725146222,9.684498763817828e-06,0.998684645247673,0
427,296.8638888888889,0.7416666666666742,0.73888888888888,0.7166666666666686,1.0348837209302404,0.0437028500022301,1.0426468496539008,80.55555555555556,1.1153846153691716,1.0310077519379695,1.5931515008560382e-05,0.9966870949377942,0
428,297.60277777777776,0.73888888888888,0.7194444444444343,0.7208333333333314,1.0250481695568305,0.043888899524150655,1.0470855521161013,77.77777777777777,1.0769230769081655,0.9980732177263856,4.306260507291881e-06,0.9988461526171029,0
429,298.3222222222222,0.7194444444444343,0.7222222222222285,0.7194444444444343,1.0,0.0407284017320646,0.9716835344882239,69.44444444444444,0.9615384615251478,1.0038610038610267,7.183056709436642e-07,0.9988812149915209,0
430,299.0444444444444,0.7222222222222285,0.7305555555555543,0.7208333333333314,1.0019267822736144,0.04250923649573229,1.014170048662872,77.77777777777777,1.0769230769081655,1.0134874759152226,5.504088221641723e-06,0.9992700486122579,0
431,299.775,0.7305555555555543,0.6944444444444571,0.7208333333333314,1.0134874759152226,0.03981898979729907,0.9499871122006031,69.44444444444444,0.9615384615251478,0.9633911368015615,5.182453719498881e-07,0.9983695303840263,0
432,300.46944444444443,0.6944444444444571,0.6750000000000114,0.7152777777777715,0.9708737864077932,0.039692636127190324,0.9469726118631109,69.44444444444444,0.9615384615251478,0.9436893203883737,6.705013220198452e-07,0.9987369268417631,0
433,301.14444444444445,0.6750000000000114,0.7138888888889028,0.7152777777777715,0.9436893203883737,0.040391076014323166,0.9636357390494276,69.44444444444444,0.9615384615251478,0.9980582524272127,1.4775846466363873e-06,0.9988141278341891,0
434,301.85833333333335,0.7138888888889028,0.7305555555555543,0.7166666666666686,0.9961240310077687,0.04305428335140353,1.0271735801705513,75.0,1.0384615384471596,1.019379844961236,3.822435701295035e-06,0.999080509576382,0
435,302.5888888888889,0.7305555555555543,0.7527777777777374,0.7208333333333314,1.0134874759152226,0.043660255827244615,1.0416306531733517,80.55555555555556,1.1153846153691716,1.0443159922928176,1.858615542005282e-05,0.9976602294719685,0
436,303.34166666666664,0.7527777777777374,0.7444444444444684,0.7263888888888914,1.0363288718928663,0.04311041966955416,1.0285128602236355,77.77777777777777,1.0769230769081655,1.024856596558347,4.097539203939959e-06,0.998782321853884,0
437,304.0861111111111,0.7444444444444684,0.7277777777777601,0.7263888888888914,1.024856596558347,0.043088353773786725,1.0279864200325375,75.0,1.0384615384471596,1.0019120458890736,1.9580108983063838e-06,0.999166624609473,0
438,304.81388888888887,0.7277777777777601,0.7138888888889028,0.7249999999999943,1.0038314176245045,0.04046288329006682,0.9653488911626772,69.44444444444444,0.9615384615251478,0.9846743295019426,5.25919290339516e-07,0.9990996900196283,0
439,305.52777777777777,0.7138888888889028,0.7194444444444343,0.7249999999999943,0.9846743295019426,0.04289507942804938,1.0233753503267478,75.0,1.0384615384471596,0.9923371647509517,2.8600586574611953e-06,0.9995126687146461,0
440,306.2472222222222,0.7194444444444343,0.6916666666666629,0.7236111111110972,0.9942418426103699,0.039675293254439734,0.9465588518534906,66.66666666666667,0.9230769230641419,0.9558541266794757,3.8955263903517334e-07,0.996895203170179,0
441,306.93888888888887,0.6916666666666629,0.6833333333333371,0.7166666666666686,0.9651162790697596,0.04123330346802923,0.9837292981938277,72.22222222222223,0.9999999999861537,0.9534883720930261,1.3931655757914996e-06,0.9995341952603951,0
442,307.6222222222222,0.6833333333333371,0.7138888888889028,0.7166666666666686,0.9534883720930261,0.04146081240779351,0.9891571245095305,72.22222222222223,0.9999999999861537,0.9961240310077687,2.207808392995503e-06,0.9998785007464003,0
443,308.3361111111111,0.7138888888889028,0.7277777777777601,0.7166666666666686,0.9961240310077687,0.04180946028186574,0.9974750398748075,75.0,1.0384615384471596,1.015503875968965,3.2104644560604356e-06,0.999145682407619,0
444,309.06388888888887,0.7277777777777601,0.7583333333333258,0.7236111111110972,1.0057581573896301,0.04278841203063052,1.0208305179903236,77.77777777777777,1.0769230769081655,1.0479846449136372,9.55089126364328e-06,0.9978241078595851,0
445,309.8222222222222,0.7583333333333258,0.7388888888889369,0.7236111111110972,1.0479846449136372,0.04200489458889303,1.0021376411588405,75.0,1.0384615384471596,1.021113243762082,1.8409677977615502e-06,0.9990851898016828,0
446,310.56111111111113,0.7388888888889369,0.7083333333333144,0.7236111111110972,1.021113243762082,0.04165678704226714,0.9938326167311038,72.22222222222223,0.9999999999861537,0.9788867562379965,8.162758149410365e-07,0.9997828225086366,0
447,311.26944444444445,0.7083333333333144,0.6972222222221944,0.7166666666666686,0.9883720930232268,0.03961816064027646,0.9451958025290922,66.66666666666667,0.9230769230641419,0.9728682170542222,3.597204454308667e-07,0.99859347829853,0
448,311.96666666666664,0.6972222222221944,0.7277777777778169,0.7138888888889028,0.9766536964979965,0.04069097560248418,0.970790635372954,69.44444444444444,0.9615384615251478,1.019455252918323,1.1159526138726505e-06,0.9990379786904096,0
449,312.69444444444446,0.7277777777778169,0.6972222222221944,0.7166666666666686,1.0155038759690442,0.04139173696408779,0.9875091474607903,72.22222222222223,0.9999999999861537,0.9728682170542222,9.47871228618169e-07,0.9998819793554541,0
450,313.39166666666665,0.6972222222221944,0.7027777777777828,0.7111111111111086,0.9804687499999644,0.04207222441707364,1.0037439719413104,72.22222222222223,0.9999999999861537,0.9882812500000107,1.6659763559800922e-06,0.9997319140648673,0
451,314.09444444444443,0.7027777777777828,0.7361111111111427,0.7111111111111086,0.9882812500000107,0.04175020582525577,0.9960613683977944,75.0,1.0384615384471596,1.0351562500000482,4.815221018361626e-06,0.9989805875035601,0
452,314.8305555555556,0.7361111111111427,0.7416666666666174,0.7208333333333314,1.0211946050096805,0.042041719473811176,1.0030161959955801,77.77777777777777,1.0769230769081655,1.0289017341039806,5.5904974942677654e-06,0.9981935420482793,0
453,315.5722222222222,0.7416666666666174,0.7638888888889142,0.7277777777777885,1.0190839694655662,0.04264653196236581,1.0174455944396326,75.0,1.0384615384471596,1.0496183206107061,3.0508520012517693e-06,0.9989842862023539,0
454,316.3361111111111,0.7638888888889142,0.7361111111110858,0.7319444444444798,1.0436432637570998,0.04178600457063863,0.9969154419672089,75.0,1.0384615384471596,1.0056925996204102,1.3808271432935726e-06,0.9991948311407284,0
455,317.0722222222222,0.7361111111110858,0.6972222222222513,0.7319444444444514,1.0056925996204493,0.04057169366939757,0.96794484998946,69.44444444444444,0.9615384615251478,0.9525616698292526,3.4599716514094325e-07,0.9995945150536307,0
456,317.76944444444445,0.6972222222222513,0.6805555555555429,0.7180555555555657,0.9709864603481893,0.038528190482347596,0.9191916872065605,63.888888888888886,0.8846153846031359,0.9477756286266615,3.6539427128445823e-07,0.9958145834082319,0
457,318.45,0.6805555555555429,0.7333333333333485,0.7152777777777999,0.9514563106795646,0.04023359594143319,0.9598786362089121,66.66666666666667,0.9230769230641419,1.0252427184465915,8.392830750381108e-07,0.9991793322738908,0
458,319.18333333333334,0.7333333333333485,0.705555555555577,0.7305555555555827,1.0038022813688048,0.04234966554468891,1.0103630624046949,75.0,1.0384615384471596,0.9657794676806019,1.5831666360099916e-06,0.9991454384966088,0
459,319.8888888888889,0.705555555555577,0.7083333333333144,0.7194444444444628,0.9806949806949856,0.041949749758446876,1.0008220156621863,75.0,1.0384615384471596,0.9845559845559332,3.0718640573468292e-06,0.9989488292043147,0
460,320.59722222222223,0.7083333333333144,0.7444444444444116,0.7208333333333314,0.9826589595375486,0.042449521766589865,1.012745396169611,75.0,1.0384615384471596,1.0327552986512096,4.756680937134661e-06,0.9990867690832708,0
461,321.34166666666664,0.7444444444444116,0.7361111111111427,0.7347222222222172,1.013232514177656,0.04299476497368791,1.0257536121588877,77.77777777777777,1.0769230769081655,1.001890359168292,3.950073278247146e-06,0.9987085211961426,0
462,322.0777777777778,0.7361111111111427,0.7444444444444116,0.7347222222222172,1.001890359168292,0.04230634603290516,1.0093295611001447,75.0,1.0384615384471596,1.013232514177656,2.3291052002605284e-06,0.99935661968519,0
463,322.8222222222222,0.7444444444444116,0.7305555555556111,0.7347222222222172,1.013232514177656,0.04176060909651343,0.9963095658952652,72.22222222222223,0.9999999999861537,0.9943289224953565,7.661301424377598e-07,0.999767685597948,0
464,323.5527777777778,0.7305555555556111,0.6972222222221944,0.7319444444444798,0.9981024667931966,0.039171874286755295,0.9345484634992892,66.66666666666667,0.9230769230641419,0.952561669829138,2.480416014805087e-07,0.9982104518116548,0
465,324.25,0.6972222222221944,0.6750000000000114,0.7194444444444628,0.9691119691119058,0.03936267900672542,0.9391006137633062,66.66666666666667,0.9230769230641419,0.9382239382239301,5.063846515440673e-07,0.9964940754002776,0
466,324.925,0.6750000000000114,0.7416666666666742,0.7194444444444628,0.9382239382239301,0.04103081655732061,0.9788984384321481,72.22222222222223,0.9999999999861537,1.0308880308880153,3.7409679407574004e-06,0.9996826852194352,0
467,325.6666666666667,0.7416666666666742,0.7222222222222285,0.7319444444444798,1.0132827324477793,0.04252156294257389,1.0144641285905236,75.0,1.0384615384471596,0.9867172675521431,1.5181190065050032e-06,0.9996859169613344,0
468,326.3888888888889,0.7222222222222285,0.7222222222221717,0.7263888888889198,0.9942638623326623,0.04220729322009196,1.006966394779784,75.0,1.0384615384471596,0.994263862332584,2.545697043387918e-06,0.9989987259048402,0
469,327.1111111111111,0.7222222222221717,0.7388888888889369,0.7263888888889198,0.994263862332584,0.04193894803198415,1.0005643119639926,72.22222222222223,0.9999999999861537,1.0172084130019348,1.4662061857961817e-06,0.999592355008244,0
470,327.85,0.7388888888889369,0.7249999999999659,0.7333333333333769,1.0075757575757631,0.04299863228062098,1.0258458769743448,77.77777777777777,1.0769230769081655,0.9886363636362584,3.751639496840653e-06,0.9988897200879061,0
471,328.575,0.7249999999999659,0.7138888888889028,0.7277777777777885,0.9961832061068087,0.04219913820809331,1.0067718354416895,75.0,1.0384615384471596,0.9809160305343557,2.434504040138563e-06,0.9982605022557692,0
472,329.2888888888889,0.7138888888889028,0.6944444444444571,0.7236111111110972,0.9865642994242224,0.0436198671095401,1.0406670736980081,77.77777777777777,1.0769230769081655,0.9596928982725886,1.9182223695679568e-05,0.9910508096004018,0
473,329.98333333333335,0.6944444444444571,0.669444444444423,0.7222222222222001,0.9615384615385084,0.041805177137785976,0.9973728541665264,72.22222222222223,0.9999999999861537,0.9269230769230755,1.8424219661028474e-06,0.9971164254806522,0
474,330.65277777777777,0.669444444444423,0.6583333333333599,0.7180555555555372,0.9323017408123729,0.04314094116794995,1.029241031135772,72.22222222222223,0.9999999999861537,0.9168278529981261,4.232913397572702e-06,0.9951689940907283,0
475,331.31111111111113,0.6583333333333599,0.7194444444444343,0.7180555555555372,0.9168278529981261,0.03872982416332057,0.9240021909206172,72.22222222222223,0.9999999999861537,1.0019342359768006,1.2053870705130976e-05,0.9930208638219334,0
476,332.03055555555557,0.7194444444444343,0.7055555555555202,0.720833333333303,0.9980732177264249,0.045318980936680166,1.0812039192122154,80.55555555555556,1.1153846153691716,0.9788053949903582,2.7601312467595562e-05,0.9937424584410774,0
477,332.7361111111111,0.7055555555555202,0.705555555555577,0.7166666666666686,0.9844961240309558,0.04302456010625613,1.0264644536968124,80.55555555555556,1.1153846153691716,0.9844961240310351,5.883195990463719e-05,0.9900809720417199,0
478,333.44166666666666,0.705555555555577,0.6999999999999886,0.7097222222222399,0.9941291585127257,0.04031514271739206,0.9618241498092519,75.0,1.0384615384471596,0.9863013698629731,6.170728283905191e-06,0.9944789545380421,0
479,334.14166666666665,0.6999999999999886,0.6805555555555429,0.7055555555555486,0.9921259842519622,0.040703328995227474,0.9710853581662198,72.22222222222223,0.9999999999861537,0.9645669291338499,2.7353564746590564e-06,0.9956947251633589,0
480,334.8222222222222,0.6805555555555429,0.6777777777778056,0.7027777777777544,0.9683794466403304,0.03986290367522427,0.9510347936784118,72.22222222222223,0.9999999999861537,0.9644268774704273,3.192779786331812e-06,0.9957445923648589,0
481,335.5,0.6777777777778056,0.6499999999999773,0.6972222222222229,0.9721115537848996,0.04217108079623778,1.0061024518184447,72.22222222222223,0.9999999999861537,0.9322709163346279,2.3574073111376492e-06,0.9980632352826542,0
482,336.15,0.6499999999999773,0.625,0.6875,0.9454545454545124,0.042995537829881615,1.0257720506835046,77.77777777777777,1.0769230769081655,0.9090909090909091,2.1237317923805676e-05,0.9945662769508254,0
483,336.775,0.625,0.6333333333333826,0.6791666666666742,0.9202453987729958,0.041815053758571724,0.9976084870267852,77.77777777777777,1.0769230769081655,0.932515337423375,4.404812352731824e-05,0.9929036609397414,0
484,337.40833333333336,0.6333333333333826,0.6416666666666515,0.6791666666666742,0.932515337423375,0.043545432050422016,1.0388912288757755,75.0,1.0384615384471596,0.9447852760735868,1.6739659258746542e-05,0.9953039510717749,0
485,338.05,0.6416666666666515,0.7055555555555202,0.6791666666666742,0.9447852760735868,0.04273289614692661,1.019506040038733,80.55555555555556,1.1153846153691716,1.0388548057259077,0.00021261895017232746,0.9891270135813897,0
486,338.75555555555553,0.7055555555555202,0.6555555555555657,0.6791666666666742,1.0388548057259077,0.045081664321387376,1.0755421049073604,83.33333333333333,1.1538461538301772,0.965235173824135,0.00017096126975957304,0.9876093302707769,0
487,339.4111111111111,0.6555555555555657,0.6666666666666856,0.6666666666666856,0.9833333333333205,0.04227515718734166,1.0085854688597193,88.88888888888889,1.2307692307521891,1.0,0.0012639457127079368,0.9843770428745129,0
488,340.0777777777778,0.6666666666666856,0.6444444444444457,0.6611111111111256,1.0084033613445442,0.04416272027188761,1.0536182688607356,83.33333333333333,1.1538461538301772,0.974789915966367,0.00014980083506088704,0.9909363761209595,0
489,340.72222222222223,0.6444444444444457,0.6388888888888573,0.6527777777777715,0.987234042553203,0.042862147190431445,1.0225896648668145,77.77777777777777,1.0769230769081655,0.9787234042552803,2.543048503866885e-05,0.9975247150710649,0
490,341.3611111111111,0.6388888888888573,0.6305555555555884,0.6472222222222115,0.9871244635192808,0.04266245149846359,1.0178253969962037,75.0,1.0384615384471596,0.9742489270386935,1.9715054804692045e-05,0.996982852460244,0
491,341.9916666666667,0.6305555555555884,0.6527777777777715,0.6430555555555486,0.9805615550756556,0.04437176005077719,1.0586054645905438,77.77777777777777,1.0769230769081655,1.0151187904967613,4.420091136125848e-05,0.9967078682496733,0
492,342.64444444444445,0.6527777777777715,0.6166666666666742,0.6430555555555486,1.0151187904967613,0.04505102536060114,1.0748111316198332,80.55555555555556,1.1153846153691716,0.9589632829373872,6.278540968196467e-05,0.9952125980039167,0
493,343.2611111111111,0.6166666666666742,0.625,0.6430555555555486,0.9589632829373872,0.044239421036996136,1.055448168080177,77.77777777777777,1.0769230769081655,0.9719222462203129,3.116506559308618e-05,0.9980961227400291,0
494,343.8861111111111,0.625,0.6555555555555657,0.6430555555555486,0.9719222462203129,0.0431010367854692,1.0282890067556958,77.77777777777777,1.0769230769081655,1.0194384449244327,3.7232446629786864e-05,0.9978877475058017,0
495,344.5416666666667,0.6555555555555657,0.7027777777777828,0.6486111111111086,1.0107066381156513,0.043429197722693325,1.0361181521628888,83.33333333333333,1.1538461538301772,1.0835117773019391,0.00023880363733042032,0.9933721950246707,0
496,345.24444444444447,0.7027777777777828,0.6611111111110972,0.6486111111111086,1.0835117773019391,0.04453249803404099,1.0624402934829653,83.33333333333333,1.1538461538301772,1.0192719486081196,0.00011590188660193235,0.9937670786835187,0
497,345.90555555555557,0.6611111111110972,0.6416666666666515,0.6486111111111086,1.0192719486081196,0.04387339230811077,1.0467155865429163,86.11111111111111,1.1923076922911833,0.9892933618843488,0.00030085202888585627,0.9909915093451565,0
498,346.5472222222222,0.6416666666666515,0.6472222222222399,0.6430555555555486,0.9978401727861643,0.04451788155075771,1.0620915786909655,80.55555555555556,1.1153846153691716,1.006479481641507,7.641561387572438e-05,0.9952835575429062,0
499,347.19444444444446,0.6472222222222399,0.63611111111112,0.6444444444444457,1.0043103448276116,0.04224798956988108,1.0079373136305656,75.0,1.0384615384471596,0.9870689655172532,2.213180960097816e-05,0.9968517650066353,0
500,347.8305555555556,0.63611111111112,0.6444444444444457,0.6444444444444457,0.9870689655172532,0.04108425310066143,0.9801733082305217,69.44444444444444,0.9615384615251478,1.0,6.516964731417829e-06,0.9985197965823271,0
501,348.475,0.6444444444444457,0.6527777777777715,0.6458333333333428,0.9978494623655787,0.04068725048880689,0.9707017629529624,69.44444444444444,0.9615384615251478,1.0107526881720184,6.410485639207764e-06,0.9984213071832505,0
502,349.1277777777778,0.6527777777777715,0.6388888888888573,0.6458333333333428,1.0107526881720184,0.042335050559580686,1.0100143833556159,72.22222222222223,0.9999999999861537,0.9892473118278936,8.219398296205327e-06,0.999305699542401,0
503,349.76666666666665,0.6388888888888573,0.6500000000000341,0.6458333333333428,0.9892473118278936,0.04344648164556336,1.0365305057674978,77.77777777777777,1.0769230769081655,1.006451612903264,2.9045608243905008e-05,0.9983944833862282,0
504,350.4166666666667,0.6500000000000341,0.6833333333333371,0.648611111111137,1.002141327623139,0.043565435853267165,1.039368472396885,75.0,1.0384615384471596,1.0535331905781222,2.3211083316709846e-05,0.9985656477607764,0
505,351.1,0.6833333333333371,0.7055555555555202,0.648611111111137,1.0535331905781222,0.043854532217053405,1.0462656292855717,77.77777777777777,1.0769230769081655,1.087794432548082,4.1661845898488536e-05,0.9974757539015396,0
506,351.80555555555554,0.7055555555555202,0.6694444444444798,0.648611111111137,1.087794432548082,0.04301134643397428,1.0261492066642657,75.0,1.0384615384471596,1.0321199143469084,1.3831751857651398e-05,0.9984167472310578,0
507,352.475,0.6694444444444798,0.6361111111110631,0.648611111111137,1.0321199143469084,0.042300120750991904,1.009181040567165,77.77777777777777,1.0769230769081655,0.9807280513917498,1.758111648086924e-05,0.9990441759154596,0
508,353.1111111111111,0.6361111111110631,0.6444444444444457,0.648611111111137,0.9807280513917498,0.04270267240446948,1.0187849728805025,72.22222222222223,0.9999999999861537,0.9935760171305833,8.21319281385513e-06,0.9995499213632236,0
509,353.75555555555553,0.6444444444444457,0.6305555555555884,0.6472222222222399,0.9957081545064125,0.04253665347682595,1.0148241531197406,72.22222222222223,0.9999999999861537,0.9742489270386507,6.81157007420552e-06,0.9998630743422011,0
510,354.3861111111111,0.6305555555555884,0.6555555555555657,0.6472222222222399,0.9742489270386507,0.04079478146076246,0.9732671981395458,72.22222222222223,0.9999999999861537,1.0128755364806747,9.69795564742526e-06,0.9992085983017032,0
511,355.0416666666667,0.6555555555555657,0.669444444444423,0.6513888888889028,1.0063965884861348,0.04090008995336198,0.9757796102143896,69.44444444444444,0.9615384615251478,1.0277185501065549,5.552290076593636e-06,0.9988719005693949,0
512,355.7111111111111,0.669444444444423,0.6638888888888914,0.6527777777777999,1.0255319148935493,0.04202912237714182,1.0027156590018504,72.22222222222223,0.9999999999861537,1.017021276595714,6.71746238367632e-06,0.9995520354415768,0
513,356.375,0.6638888888888914,0.6722222222222172,0.6597222222222285,1.0063157894736785,0.042631807793722325,1.0170943105291066,77.77777777777777,1.0769230769081655,1.0189473684210353,1.791771501302719e-05,0.9992009000948054,0
514,357.0472222222222,0.6722222222222172,0.7083333333333144,0.6666666666666572,1.0083333333333402,0.04296811526932509,1.0251178131138212,77.77777777777777,1.0769230769081655,1.0624999999999867,2.185118501074612e-05,0.9985133890646529,0
515,357.75555555555553,0.7083333333333144,0.7083333333333712,0.6666666666666572,1.0624999999999867,0.0427721460758526,1.0204424507016927,77.77777777777777,1.0769230769081655,1.062500000000072,1.933143357746303e-05,0.9981997507382998,0
516,358.4638888888889,0.7083333333333712,0.6833333333333371,0.6666666666666572,1.062500000000072,0.04138340843353991,0.9873104483796652,72.22222222222223,0.9999999999861537,1.0250000000000203,3.2894326977839228e-06,0.9998080992400531,0
517,359.14722222222224,0.6833333333333371,0.6416666666666515,0.6666666666666572,1.0250000000000203,0.04172686014791966,0.9955043956391232,72.22222222222223,0.9999999999861537,0.9624999999999909,3.1617128115613014e-06,0.9992992626669728,0
518,359.7888888888889,0.6416666666666515,0.6527777777777715,0.6666666666666572,0.9624999999999909,0.040258447338618254,0.9604715318892437,69.44444444444444,0.9615384615251478,0.9791666666666711,2.7271307772025466e-06,0.9987306768285142,0
519,360.44166666666666,0.6527777777777715,0.6499999999999773,0.6666666666666572,0.9791666666666711,0.04211617734360341,1.0047925850266584,72.22222222222223,0.9999999999861537,0.9749999999999798,4.182370048511075e-06,0.999569227372253,0
520,361.09166666666664,0.6499999999999773,0.6833333333333371,0.6666666666666572,0.9749999999999798,0.04167238583860244,0.9942047671939811,75.0,1.0384615384471596,1.0250000000000203,1.0098006896441802e-05,0.9990393459268206,0
