beat_index,peak_time_s,rr_prev_s,rr_next_s,rr_baseline_s,prematurity_index,aa_ratio,morph_index,qrs_width_ms,width_index,pause_index,pvc_score,morphology_score,is_pvc_candidate
0,0.5472222222222223,,0.8083333333333333,0.8500000000001364,,0.03354827047616486,0.9339849021626142,38.888888888888886,0.4999999999935714,0.9509803921567102,0.0,0.9927381432246214,0
1,1.3555555555555556,0.8083333333333333,0.8722222222222222,0.8500000000001364,0.9509803921567102,0.03867806289344927,1.07679848393506,86.11111111111111,1.1071428571286226,1.0261437908495086,0.0,0.9937487284854336,0
2,2.227777777777778,0.8722222222222222,0.8999999999999999,0.8500000000001364,1.0261437908495086,0.03511436113433293,0.9775849152001298,83.33333333333333,1.071428571414796,1.0588235294115946,0.0,0.9959812581334688,0
3,3.1277777777777778,0.8999999999999999,0.8416666666666668,0.8500000000001364,1.0588235294115946,0.03496539154381738,0.9734375971283464,50.0,0.6428571428488776,0.9901960784312137,0.0,0.9935465756742068,0
4,3.9694444444444446,0.8416666666666668,0.858333333333333,0.8500000000001364,0.9901960784312137,0.04076573045952354,1.13491921444584,91.66666666666667,1.1785714285562756,1.0098039215684649,0.0,0.9902657452232296,0
5,4.8277777777777775,0.858333333333333,0.8361111111111112,0.8500000000001364,1.0098039215684649,0.03827286920087428,1.0655178788265063,80.55555555555556,1.0357142857009694,0.9836601307187965,0.0,0.9971008865048376,0
6,5.663888888888889,0.8361111111111112,0.844444444444445,0.8500000000001364,0.9836601307187965,0.03493159076183291,0.9724965822978736,75.0,0.9642857142733163,0.9934640522874228,0.0,0.9949867030055837,0
7,6.508333333333334,0.844444444444445,0.822222222222222,0.8500000000001364,0.9934640522874228,0.036142998554998265,1.0062222132505163,77.77777777777777,0.9999999999871428,0.967320261437753,0.0,0.9984140849135918,0
8,7.330555555555556,0.822222222222222,0.8916666666666657,0.8500000000001364,0.967320261437753,0.03648247177388074,1.0156731583104126,86.11111111111111,1.1071428571286226,1.0490196078429679,0.0,0.9967191332803698,0
9,8.222222222222221,0.8916666666666657,0.8805555555555564,0.8500000000001364,1.0490196078429679,0.036415343690166475,1.013804310354606,86.11111111111111,1.1071428571286226,1.0359477124181353,0.0,0.9951445035592844,0
10,9.102777777777778,0.8805555555555564,0.8361111111111104,0.8500000000001364,1.0359477124181353,0.03524212538914488,0.981141876060905,77.77777777777777,0.9999999999871428,0.9836601307187955,0.0,0.9980561445017461,0
11,9.938888888888888,0.8361111111111104,0.8555555555555561,0.8500000000001364,0.9836601307187955,0.03695927608662302,1.0289474053302017,83.33333333333333,1.071428571414796,1.0065359477122573,0.0,0.9985346673213922,0
12,10.794444444444444,0.8555555555555561,0.8555555555555561,0.8500000000001364,1.0065359477122573,0.034647368081970185,0.9645838139769974,80.55555555555556,1.0357142857009694,1.0065359477122573,0.0,0.9981284879081185,0
13,11.65,0.8555555555555561,0.8305555555555557,0.8500000000001364,1.0065359477122573,0.033582094210873596,0.9349265559976503,77.77777777777777,0.9999999999871428,0.9771241830063793,0.0,0.99541094677186,0
14,12.480555555555556,0.8305555555555557,0.81111111111111,0.8500000000001364,0.9771241830063793,0.0336552356405862,0.9369628156946351,41.666666666666664,0.535714285707398,0.9542483660129174,0.0,0.9944472598625422,0
15,13.291666666666666,0.81111111111111,0.875,0.8500000000001364,0.9542483660129174,0.036859842229107216,1.02617916361862,83.33333333333333,1.071428571414796,1.029411764705717,0.0,0.9982861597957937,0
16,14.166666666666666,0.875,0.8805555555555564,0.8500000000001364,1.029411764705717,0.036731281663920035,1.022600033452025,80.55555555555556,1.0357142857009694,1.0359477124181353,0.0,0.9980543641832731,0
17,15.047222222222222,0.8805555555555564,0.8527777777777779,0.8500000000001364,1.0359477124181353,0.03522249455807561,0.9805953531082945,80.55555555555556,1.0357142857009694,1.0032679738560482,0.0,0.9969966267565611,0
18,15.9,0.8527777777777779,0.8861111111111111,0.8500000000001364,1.0032679738560482,0.03505600082435383,0.9759601623400759,75.0,0.9642857142733163,1.0424836601305516,0.0,0.9974467875869386,0
19,16.78611111111111,0.8861111111111111,0.8305555555555557,0.8500000000001364,1.0424836601305516,0.03411489801429699,0.9497598305941999,80.55555555555556,1.0357142857009694,0.9771241830063793,0.0,0.996773859885309,0
20,17.616666666666667,0.8305555555555557,0.8194444444444429,0.8500000000001364,0.9771241830063793,0.03681034830753553,1.024801251289887,83.33333333333333,1.071428571414796,0.9640522875815427,0.0,0.9967925950603074,0
21,18.43611111111111,0.8194444444444429,0.8222222222222229,0.8500000000001364,0.9640522875815427,0.035475926690655,0.9876509116271815,77.77777777777777,0.9999999999871428,0.967320261437754,0.0,0.9983909395847124,0
22,19.258333333333333,0.8222222222222229,0.908333333333335,0.8500000000001364,0.967320261437754,0.035474771481970896,0.9876187505811875,83.33333333333333,1.071428571414796,1.0686274509802225,0.0,0.998404257719924,0
23,20.166666666666668,0.908333333333335,0.8805555555555529,0.8500000000001364,1.0686274509802225,0.03432589184540907,0.9556339054693307,80.55555555555556,1.0357142857009694,1.0359477124181313,0.0,0.996336910068895,0
24,21.04722222222222,0.8805555555555529,0.8500000000000014,0.8500000000001364,1.0359477124181313,0.03519695110961449,0.9798842227020698,83.33333333333333,1.071428571414796,0.9999999999998411,0.0,0.9953520869638675,0
25,21.897222222222222,0.8500000000000014,0.8638888888888907,0.8500000000001364,0.9999999999998411,0.0331435384304877,0.922717149318174,41.666666666666664,0.535714285707398,1.0163398692808847,0.0,0.9931205541093899,0
26,22.761111111111113,0.8638888888888907,0.8444444444444414,0.8500000000001364,1.0163398692808847,0.038162206490307216,1.0624370254938298,83.33333333333333,1.071428571414796,0.9934640522874187,0.0,0.9983957335297666,0
27,23.605555555555554,0.8444444444444414,0.8416666666666686,0.8500000000001364,0.9934640522874187,0.03791428085781437,1.0555347681100415,83.33333333333333,1.071428571414796,0.9901960784312158,0.0,0.9980201672602128,0
28,24.447222222222223,0.8416666666666686,0.8388888888888886,0.8500000000001364,0.9901960784312158,0.036123878870474614,1.0056899206337662,80.55555555555556,1.0357142857009694,0.9869281045750046,0.0,0.998763920276279,0
29,25.28611111111111,0.8388888888888886,0.8861111111111093,0.8500000000001364,0.9869281045750046,0.03689336638751467,1.0271124772400335,86.11111111111111,1.1071428571286226,1.0424836601305496,0.0,0.9988432657281465,0
30,26.17222222222222,0.8861111111111093,0.8611111111111143,0.8500000000001364,1.0424836601305496,0.03685930351474617,1.0261641657939138,80.55555555555556,1.0357142857009694,1.0130718954246778,0.0,0.998805416026395,0
31,27.033333333333335,0.8611111111111143,0.8583333333333307,0.8500000000001364,1.0130718954246778,0.039385493460591184,1.096493373109997,88.88888888888889,1.142857142842449,1.0098039215684622,0.0,0.9954534162396409,0
32,27.891666666666666,0.8583333333333307,0.8888888888888893,0.8500000000001364,1.0098039215684622,0.039166806243453825,1.0904051141266504,80.55555555555556,1.0357142857009694,1.0457516339867607,0.0,0.9953042986193514,0
33,28.780555555555555,0.8888888888888893,0.8555555555555578,0.8500000000001364,1.0457516339867607,0.035552596911837556,0.9897854129893561,80.55555555555556,1.0357142857009694,1.0065359477122595,0.0,0.9981729599856015,0
34,29.636111111111113,0.8555555555555578,0.8333333333333321,0.8500000000001364,1.0065359477122595,0.035631655879283616,0.99198641712242,80.55555555555556,1.0357142857009694,0.9803921568625864,0.0,0.9973566640490823,0
35,30.469444444444445,0.8333333333333321,0.8472222222222214,0.8500000000001364,0.9803921568625864,0.035915741787052737,0.9998953777039209,80.55555555555556,1.0357142857009694,0.99673202614363,0.0,0.9985711165720541,0
36,31.316666666666666,0.8472222222222214,0.9111111111111079,0.8500000000001364,0.99673202614363,0.03607250248126464,1.004259600346947,86.11111111111111,1.1071428571286226,1.0718954248364254,0.0,0.9980115813771469,0
37,32.227777777777774,0.9111111111111079,0.9222222222222243,0.8500000000001364,1.0718954248364254,0.035282716525064116,0.9822719345578738,83.33333333333333,1.071428571414796,1.0849673202612662,0.0,0.9960552208613951,0
38,33.15,0.9222222222222243,0.8833333333333329,0.8500000000001364,1.0849673202612662,0.0363189536956426,1.0111208098841777,83.33333333333333,1.071428571414796,1.0392156862743425,0.0,0.997359470671221,0
39,34.03333333333333,0.8833333333333329,0.8888888888888928,0.8500000000001364,1.0392156862743425,0.03642453166867096,1.0140601039643147,77.77777777777777,0.9999999999871428,1.045751633986765,0.0,0.999023205076391,0
40,34.922222222222224,0.8888888888888928,0.875,0.8500000000001364,1.045751633986765,0.03521450679471397,0.9803729735258025,75.0,0.9642857142733163,1.029411764705717,0.0,0.9969409006246537,0
41,35.797222222222224,0.875,0.8555555555555543,0.8500000000001364,1.029411764705717,0.03509130850145789,0.9769431291779358,77.77777777777777,0.9999999999871428,1.0065359477122553,0.0,0.9973667185234889,0
42,36.65277777777778,0.8555555555555543,0.87777777777778,0.8500000000001364,1.0065359477122553,0.03627452738997481,1.0098839801411348,77.77777777777777,0.9999999999871428,1.0326797385619284,0.0,0.9987176030004603,0
43,37.53055555555556,0.87777777777778,0.9249999999999972,0.8500000000001364,1.0326797385619284,0.03678581163596851,1.0241181495839673,83.33333333333333,1.071428571414796,1.088235294117469,0.0,0.997885701394938,0
44,38.455555555555556,0.9249999999999972,0.8944444444444457,0.8500000000001364,1.088235294117469,0.03536154491514939,0.9844665194099822,80.55555555555556,1.0357142857009694,1.052287581699179,0.0,0.998165113138661,0
45,39.35,0.8944444444444457,0.86944444444444,0.8500000000001364,1.052287581699179,0.03601043158126055,1.0025315445442298,80.55555555555556,1.0357142857009694,1.0228758169932948,0.0,0.9988565722639031,0
46,40.21944444444444,0.86944444444444,0.8861111111111128,0.8500000000001364,1.0228758169932948,0.03293833384577021,0.9170042472442249,75.0,0.9642857142733163,1.0424836601305536,0.0,0.9943071995175667,0
47,41.105555555555554,0.8861111111111128,0.8416666666666686,0.8500000000001364,1.0424836601305536,0.03442774823600665,0.9584695905778822,41.666666666666664,0.535714285707398,0.9901960784312158,0.0,0.9955725802098874,0
48,41.94722222222222,0.8416666666666686,0.8361111111111086,0.8500000000001364,0.9901960784312158,0.03712425820368372,1.0335405126431703,86.11111111111111,1.1071428571286226,0.9836601307187934,0.0,0.997128917914771,0
49,42.78333333333333,0.8361111111111086,0.875,0.8500000000001364,0.9836601307187934,0.03362125400679423,0.9360167659441697,72.22222222222223,0.9285714285594899,1.029411764705717,0.0,0.9914084293894023,0
50,43.65833333333333,0.875,0.875,0.8500000000001364,1.029411764705717,0.038173428125095485,1.0627494361582566,80.55555555555556,1.0357142857009694,1.029411764705717,0.0,0.9981780380529603,0
51,44.53333333333333,0.875,0.9083333333333385,0.8500000000001364,1.029411764705717,0.03874759253694665,1.0787341913905437,86.11111111111111,1.1071428571286226,1.0686274509802267,0.0,0.9936775245081493,0
52,45.44166666666667,0.9083333333333385,0.8416666666666615,0.8500000000001364,1.0686274509802267,0.03834265132629004,1.067460615386516,86.11111111111111,1.1071428571286226,0.9901960784312075,0.0,0.9977109856270278,0
53,46.28333333333333,0.8416666666666615,0.8611111111111143,0.8500000000001364,0.9901960784312075,0.03828081663158376,1.0657391355466974,83.33333333333333,1.071428571414796,1.0130718954246778,0.0,0.9978572899292173,0
54,47.144444444444446,0.8611111111111143,0.8333333333333286,0.8500000000001364,1.0130718954246778,0.036917254951149316,1.0277775356007903,80.55555555555556,1.0357142857009694,0.9803921568625822,0.0,0.9967731284709068,0
55,47.977777777777774,0.8333333333333286,0.81388888888889,0.8500000000001364,0.9803921568625822,0.040350098041533215,1.123347994894355,86.11111111111111,1.1071428571286226,0.9575163398691287,0.0,0.9963883198685595,0
56,48.791666666666664,0.81388888888889,0.8916666666666657,0.8500000000001364,0.9575163398691287,0.03747555501595639,1.0433206269138489,72.22222222222223,0.9285714285594899,1.0490196078429679,0.0,0.9865590198551142,0
57,49.68333333333333,0.8916666666666657,0.8944444444444457,0.8500000000001364,1.0490196078429679,0.025948899754148318,0.7224181829380634,33.333333333333336,0.4285714285659184,1.052287581699179,0.0,0.91648904575596,0
58,50.577777777777776,0.8944444444444457,0.8527777777777814,0.8500000000001364,1.052287581699179,0.036534095043708574,1.017110351761375,130.55555555555554,1.6785714285498468,1.0032679738560524,0.0,0.8605677321197034,0
59,51.43055555555556,0.8527777777777814,0.8500000000000014,0.8500000000001364,1.0032679738560524,0.032035886567180955,0.8918800867066812,44.44444444444444,0.5714285714212245,0.9999999999998411,0.0,0.9864127754358434,0
60,52.28055555555556,0.8500000000000014,0.8916666666666657,0.8500000000001364,0.9999999999998411,0.029502612320347264,0.8213536522289026,38.888888888888886,0.4999999999935714,1.0490196078429679,0.0,0.9759041916715909,0
61,53.172222222222224,0.8916666666666657,0.8527777777777743,0.8500000000001364,1.0490196078429679,0.035925673894436586,1.0001718878849677,41.666666666666664,0.535714285707398,1.003267973856044,0.0,0.9916188178159865,0
62,54.025,0.8527777777777743,0.8333333333333357,0.8500000000001364,1.003267973856044,0.0370977212874569,1.0328017240631922,80.55555555555556,1.0357142857009694,0.9803921568625905,0.0,0.9985798778249095,0
63,54.858333333333334,0.8333333333333357,0.8888888888888857,0.8500000000001364,0.9803921568625905,0.03478412728574156,0.9683911944988933,75.0,0.9642857142733163,1.0457516339867565,0.0,0.9928351187019395,0
64,55.74722222222222,0.8888888888888857,0.9027777777777786,0.8500000000001364,1.0457516339867565,0.03406495659220495,0.9483694598369462,80.55555555555556,1.0357142857009694,1.0620915032678042,0.0,0.995683429993266,0
65,56.65,0.9027777777777786,0.9027777777777786,0.8500000000001364,1.0620915032678042,0.033799460056268306,0.940978027950242,47.22222222222222,0.607142857135051,1.0620915032678042,0.0,0.9950120267861042,0
66,57.55277777777778,0.9027777777777786,0.8694444444444471,0.8500000000001364,1.0620915032678042,0.03701350899548551,1.0304572512137298,44.44444444444444,0.5714285714212245,1.022875816993303,0.0,0.9893802657970132,0
67,58.422222222222224,0.8694444444444471,0.87222222222222,0.8500000000001364,1.022875816993303,0.036511165781468284,1.0164720003815217,83.33333333333333,1.071428571414796,1.026143790849506,0.0,0.9974512971667818,0
68,59.294444444444444,0.87222222222222,0.8500000000000014,0.8500000000001364,1.026143790849506,0.03809816324093998,1.0606540594229878,80.55555555555556,1.0357142857009694,0.9999999999998411,0.0,0.9945066991700209,0
69,60.144444444444446,0.8500000000000014,0.8333333333333286,0.8500000000001364,0.9999999999998411,0.04117428516434587,1.1462933902407642,83.33333333333333,1.071428571414796,0.9803921568625822,0.0,0.9945614205144914,0
70,60.977777777777774,0.8333333333333286,0.9222222222222243,0.8500000000001364,0.9803921568625822,0.04259080508646988,1.1857293492961303,91.66666666666667,1.1785714285562756,1.0849673202612662,0.0,0.9899208001177637,0
71,61.9,0.9222222222222243,0.9166666666666714,0.8500000000001364,1.0849673202612662,0.040645800071955535,1.131580348694814,88.88888888888889,1.142857142842449,1.0784313725488521,0.0,0.9946768754442126,0
72,62.81666666666667,0.9166666666666714,0.9083333333333314,0.8500000000001364,1.0784313725488521,0.03880357237803953,1.0802926719221515,86.11111111111111,1.1071428571286226,1.0686274509802185,0.0,0.9969270347685837,0
73,63.725,0.9083333333333314,0.8638888888888872,0.8500000000001364,1.0686274509802185,0.03677069240083724,1.023697229603759,77.77777777777777,0.9999999999871428,1.0163398692808805,0.0,0.9973985460856585,0
74,64.58888888888889,0.8638888888888872,0.87222222222222,0.8500000000001364,1.0163398692808805,0.03408242091048699,0.948855667005616,38.888888888888886,0.4999999999935714,1.026143790849506,0.0,0.9903978793111199,0
75,65.46111111111111,0.87222222222222,0.8583333333333343,0.8500000000001364,1.026143790849506,0.035072710554768655,0.9764253617588579,77.77777777777777,0.9999999999871428,1.0098039215684664,0.0,0.9973102287674246,0
76,66.31944444444444,0.8583333333333343,0.8500000000000085,0.8500000000001364,1.0098039215684664,0.0351087094348307,0.977427571708745,77.77777777777777,0.9999999999871428,0.9999999999998496,0.0,0.9977314225573471,0
77,67.16944444444445,0.8500000000000085,0.8888888888888857,0.8500000000001364,0.9999999999998496,0.03439175302668899,0.9574674828216337,44.44444444444444,0.5714285714212245,1.0457516339867565,0.0,0.9917088767118123,0
78,68.05833333333334,0.8888888888888857,0.9083333333333314,0.8500000000001364,1.0457516339867565,0.03561368147650207,0.9914860091852871,83.33333333333333,1.071428571414796,1.0686274509802185,0.0,0.9953448284625901,0
79,68.96666666666667,0.9083333333333314,0.8583333333333343,0.8500000000001364,1.0686274509802185,0.03398103549037289,0.9460330937300947,36.111111111111114,0.46428571427974497,1.0098039215684664,0.0,0.9815421483119944,0
80,69.825,0.8583333333333343,0.87777777777778,0.8500000000001364,1.0098039215684664,0.034094275852066626,0.9491857089509755,72.22222222222223,0.9285714285594899,1.0326797385619284,0.0,0.9845202656065316,0
81,70.70277777777778,0.87777777777778,0.86666666666666,0.8500000000001364,1.0326797385619284,0.03746416928353528,1.0430036477661775,83.33333333333333,1.071428571414796,1.0196078431370834,0.0,0.9973602744894596,0
82,71.56944444444444,0.86666666666666,0.8305555555555628,0.8500000000001364,1.0196078431370834,0.03422047075761257,0.9526989790789689,38.888888888888886,0.4999999999935714,0.9771241830063877,0.0,0.9895680216607259,0
83,72.4,0.8305555555555628,0.8472222222222143,0.8500000000001364,0.9771241830063877,0.03646531377810705,1.0151954791699818,80.55555555555556,1.0357142857009694,0.9967320261436216,0.0,0.9976755837123747,0
84,73.24722222222222,0.8472222222222143,0.9027777777777857,0.8500000000001364,0.9967320261436216,0.03666497129498929,1.020753950701436,83.33333333333333,1.071428571414796,1.0620915032678127,0.0,0.9978882245828997,0
85,74.15,0.9027777777777857,0.9333333333333229,0.8500000000001364,1.0620915032678127,0.035468483301039966,0.987443687426867,83.33333333333333,1.071428571414796,1.098039215686086,0.0,0.9972299205760151,0
86,75.08333333333333,0.9333333333333229,0.9000000000000057,0.8500000000001364,1.098039215686086,0.03317935831043043,0.9237143758991255,44.44444444444444,0.5714285714212245,1.0588235294116015,0.0,0.9933128139888183,0
87,75.98333333333333,0.9000000000000057,0.8861111111111057,0.8500000000001364,1.0588235294116015,0.036279793824341725,1.01003059783907,44.44444444444444,0.5714285714212245,1.0424836601305454,0.0,0.9932479582201932,0
88,76.86944444444444,0.8861111111111057,0.8583333333333343,0.8500000000001364,1.0424836601305454,0.036543828276129287,1.0173813252572113,80.55555555555556,1.0357142857009694,1.0098039215684664,0.0,0.9975993528197844,0
89,77.72777777777777,0.8583333333333343,0.88055555555556,0.8500000000001364,1.0098039215684664,0.0335004386171922,0.932653261708762,75.0,0.9642857142733163,1.0359477124181395,0.0,0.9938544496299181,0
90,78.60833333333333,0.88055555555556,0.8916666666666657,0.8500000000001364,1.0359477124181395,0.03163165268586942,0.8806262027738029,38.888888888888886,0.4999999999935714,1.0490196078429679,0.0,0.9862356298691116,0
91,79.5,0.8916666666666657,0.9249999999999972,0.8500000000001364,1.0490196078429679,0.03241503787546768,0.902435671019935,41.666666666666664,0.535714285707398,1.088235294117469,0.0,0.9907056287585942,0
92,80.425,0.9249999999999972,0.9138888888888914,0.8500000000001364,1.088235294117469,0.03294080882848479,0.9170731508406166,41.666666666666664,0.535714285707398,1.0751633986926408,0.0,0.9923971923539165,0
93,81.33888888888889,0.9138888888888914,0.8472222222222285,0.8500000000001364,1.0751633986926408,0.036457880058771416,1.0149885241905492,47.22222222222222,0.607142857135051,0.9967320261436383,0.0,0.9915226922671582,0
94,82.18611111111112,0.8472222222222285,0.875,0.8500000000001364,0.9967320261436383,0.03601969085741175,1.0027893230826592,83.33333333333333,1.071428571414796,1.029411764705717,0.0,0.9942988153279357,0
95,83.06111111111112,0.875,0.8611111111111001,0.8500000000001364,1.029411764705717,0.034464024904510976,0.9594795341667138,80.55555555555556,1.0357142857009694,1.013071895424661,0.0,0.9976379855638647,0
96,83.92222222222222,0.8611111111111001,0.8638888888888943,0.8500000000001364,1.013071895424661,0.03305135278262873,0.9201506979907492,77.77777777777777,0.9999999999871428,1.016339869280889,0.0,0.9925673375862206,0
97,84.78611111111111,0.8638888888888943,0.8638888888888943,0.8500000000001364,1.016339869280889,0.030781368270348636,0.8569542579799632,36.111111111111114,0.46428571427974497,1.016339869280889,0.0,0.9823667231434409,0
98,85.65,0.8638888888888943,0.8999999999999915,0.8500000000001364,1.016339869280889,0.03693134168346213,1.0281697106701526,86.11111111111111,1.1071428571286226,1.0588235294115846,0.0,0.9983454661558285,0
99,86.55,0.8999999999999915,0.9361111111111171,0.8500000000001364,1.0588235294115846,0.036555749584380064,1.0177132148527768,83.33333333333333,1.071428571414796,1.1013071895423139,0.0,0.9971609639829933,0
100,87.48611111111111,0.9361111111111171,0.8805555555555458,0.8500000000001364,1.1013071895423139,0.034410837802446664,0.9579988035772445,47.22222222222222,0.607142857135051,1.035947712418123,0.0,0.9948258730180062,0
101,88.36666666666666,0.8805555555555458,0.88055555555556,0.8500000000001364,1.035947712418123,0.03174096523336334,0.8836694675241806,41.666666666666664,0.535714285707398,1.0359477124181395,0.0,0.9684214072011144,0
102,89.24722222222222,0.88055555555556,0.8583333333333343,0.8500000000001364,1.0359477124181395,0.029871680673421806,0.831628526752838,33.333333333333336,0.4285714285659184,1.0098039215684664,0.0,0.957464009294981,0
103,90.10555555555555,0.8583333333333343,0.8444444444444485,0.8500000000001364,1.0098039215684664,0.03164399805481932,0.8809698982325308,38.888888888888886,0.4999999999935714,0.9934640522874271,0.0,0.9846831228376263,0
104,90.95,0.8444444444444485,0.9111111111111114,0.8500000000001364,0.9934640522874271,0.03189729327136985,0.8880216450048803,36.111111111111114,0.46428571427974497,1.0718954248364296,0.0,0.9519119527880855,0
105,91.86111111111111,0.9111111111111114,0.9249999999999972,0.8500000000001364,1.0718954248364296,0.033948438436316404,0.945125590722887,44.44444444444444,0.5714285714212245,1.088235294117469,0.0,0.9862603888773311,0
106,92.78611111111111,0.9249999999999972,0.8944444444444457,0.8500000000001364,1.088235294117469,0.03228259035106401,0.8987483277868545,44.44444444444444,0.5714285714212245,1.052287581699179,0.0,0.9814853988623768,0
107,93.68055555555556,0.8944444444444457,0.8416666666666686,0.8500000000001364,1.052287581699179,0.034670422709194564,0.9652256555219396,41.666666666666664,0.535714285707398,0.9901960784312158,0.0,0.9954633436945006,0
108,94.52222222222223,0.8416666666666686,0.8527777777777743,0.8500000000001364,0.9901960784312158,0.04170625598363601,1.1611034745329205,88.88888888888889,1.142857142842449,1.003267973856044,0.0,0.9932349306804077,0
109,95.375,0.8527777777777743,0.86666666666666,0.8500000000001364,1.003267973856044,0.04231218133513632,1.1779724553210937,86.11111111111111,1.1071428571286226,1.0196078431370834,0.0,0.9904567310464552,0
110,96.24166666666666,0.86666666666666,0.8444444444444485,0.8500000000001364,1.0196078431370834,0.03974248012179041,1.1064318929532302,80.55555555555556,1.0357142857009694,0.9934640522874271,0.0,0.9958216225374761,0
111,97.08611111111111,0.8444444444444485,0.9027777777777857,0.8500000000001364,0.9934640522874271,0.03962007548618756,1.1030241440593191,86.11111111111111,1.1071428571286226,1.0620915032678127,0.0,0.9946710650178627,0
112,97.9888888888889,0.9027777777777857,0.9111111111111114,0.8500000000001364,1.0620915032678127,0.03703026502074451,1.0309237394824255,80.55555555555556,1.0357142857009694,1.0718954248364296,0.0,0.9986938904221041,0
113,98.9,0.9111111111111114,0.8916666666666657,0.8500000000001364,1.0718954248364296,0.03576802810658699,0.9957830242073107,77.77777777777777,0.9999999999871428,1.0490196078429679,0.0,0.995936061991546,0
114,99.79166666666667,0.8916666666666657,0.87777777777778,0.8500000000001364,1.0490196078429679,0.036246057371195045,1.0090913739254588,75.0,0.9642857142733163,1.0326797385619284,0.0,0.9935498686489874,0
115,100.66944444444445,0.87777777777778,0.8861111111111057,0.8500000000001364,1.0326797385619284,0.03775232660127043,1.0510259565288163,80.55555555555556,1.0357142857009694,1.0424836601305454,0.0,0.9982771544042791,0
116,101.55555555555556,0.8861111111111057,0.8499999999999943,0.8500000000001364,1.0424836601305454,0.03334778612076152,0.9284034114208021,44.44444444444444,0.5714285714212245,0.9999999999998328,0.0,0.9928732292184594,0
117,102.40555555555555,0.8499999999999943,0.8416666666666686,0.8500000000001364,0.9999999999998328,0.0386269280503954,1.075374888300802,80.55555555555556,1.0357142857009694,0.9901960784312158,0.0,0.9945931582065346,0
118,103.24722222222222,0.8416666666666686,0.9083333333333314,0.8500000000001364,0.9901960784312158,0.039137219475386266,1.08958141757578,83.33333333333333,1.071428571414796,1.0686274509802185,0.0,0.9987396383958699,0
119,104.15555555555555,0.9083333333333314,0.9138888888888914,0.8500000000001364,1.0686274509802185,0.039193446675276064,1.0911467845840512,83.33333333333333,1.071428571414796,1.0751633986926408,0.0,0.9967860148197689,0
120,105.06944444444444,0.9138888888888914,0.8583333333333343,0.8500000000001364,1.0751633986926408,0.03483779542181325,0.9698853170902137,77.77777777777777,0.9999999999871428,1.0098039215684664,0.0,0.9941614922959287,0
121,105.92777777777778,0.8583333333333343,0.8305555555555628,0.8500000000001364,1.0098039215684664,0.036348846879109144,1.0119530370493655,41.666666666666664,0.535714285707398,0.9771241830063877,0.0,0.9922522410489815,0
122,106.75833333333334,0.8305555555555628,0.8333333333333286,0.8500000000001364,0.9771241830063877,0.040208450012450075,1.1194045093224614,83.33333333333333,1.071428571414796,0.9803921568625822,0.0,0.9965424412844517,0
123,107.59166666666667,0.8333333333333286,0.8388888888888886,0.8500000000001364,0.9803921568625822,0.04126687363772789,1.1488710562433835,83.33333333333333,1.071428571414796,0.9869281045750046,0.0,0.9927010547891083,0
124,108.43055555555556,0.8388888888888886,0.8333333333333286,0.8500000000001364,0.9869281045750046,0.041312062107948,1.1501291046714655,83.33333333333333,1.071428571414796,0.9803921568625822,0.0,0.9961363553234366,0
125,109.26388888888889,0.8333333333333286,0.9194444444444514,0.8500000000001364,0.9803921568625822,0.042963158921470665,1.1960956917399281,88.88888888888889,1.142857142842449,1.0816993464050633,0.0,0.990233486087353,0
126,110.18333333333334,0.9194444444444514,0.8888888888888857,0.8500000000001364,1.0816993464050633,0.0400417484652237,1.1147635330197576,86.11111111111111,1.1071428571286226,1.0457516339867565,0.0,0.994551002203433,0
127,111.07222222222222,0.8888888888888857,0.8638888888888943,0.8500000000001364,1.0457516339867565,0.03886657651691591,1.0820467091243406,83.33333333333333,1.071428571414796,1.016339869280889,0.0,0.9969215352479297,0
128,111.93611111111112,0.8638888888888943,0.8861111111111057,0.8500000000001364,1.016339869280889,0.03856828817789256,1.0737423524113199,77.77777777777777,0.9999999999871428,1.0424836601305454,0.0,0.9975464725741265,0
129,112.82222222222222,0.8861111111111057,0.87222222222222,0.8500000000001364,1.0424836601305454,0.03947101582611416,1.0988743184482208,88.88888888888889,1.142857142842449,1.026143790849506,0.0,0.9940488324093244,0
130,113.69444444444444,0.87222222222222,0.8638888888888943,0.8500000000001364,1.026143790849506,0.039728935247900644,1.106054803239359,77.77777777777777,0.9999999999871428,1.016339869280889,0.0,0.9967245190868084,0
131,114.55833333333334,0.8638888888888943,0.8583333333333343,0.8500000000001364,1.016339869280889,0.037579715038182054,1.0462204451991703,75.0,0.9642857142733163,1.0098039215684664,0.0,0.9944788809949439,0
132,115.41666666666667,0.8583333333333343,0.8999999999999915,0.8500000000001364,1.0098039215684664,0.0388239112674453,1.0808589072410553,88.88888888888889,1.142857142842449,1.0588235294115846,0.0,0.9928536764631415,0
133,116.31666666666666,0.8999999999999915,0.9138888888888914,0.8500000000001364,1.0588235294115846,0.040060715644167175,1.115291579876373,86.11111111111111,1.1071428571286226,1.0751633986926408,0.0,0.9962012871179552,0
134,117.23055555555555,0.9138888888888914,0.8861111111111057,0.8500000000001364,1.0751633986926408,0.03679055532056832,1.0242502139119924,77.77777777777777,0.9999999999871428,1.0424836601305454,0.0,0.9938241065249087,0
135,118.11666666666666,0.8861111111111057,0.8888888888888999,0.8500000000001364,1.0424836601305454,0.03707680396190168,1.0322193850637473,83.33333333333333,1.071428571414796,1.0457516339867732,0.0,0.9987433948742847,0
136,119.00555555555556,0.8888888888888999,0.8333333333333286,0.8500000000001364,1.0457516339867732,0.033113680835420864,0.9218859129351501,36.111111111111114,0.46428571427974497,0.9803921568625822,0.0,0.9850174060231269,0
137,119.83888888888889,0.8333333333333286,0.8333333333333286,0.8500000000001364,0.9803921568625822,0.03779496258569738,1.0522129436723682,77.77777777777777,0.9999999999871428,0.9803921568625822,0.0,0.9919584465527724,0
138,120.67222222222222,0.8333333333333286,0.87777777777778,0.8500000000001364,0.9803921568625822,0.03807649996564337,1.060050953159349,77.77777777777777,0.9999999999871428,1.0326797385619284,0.0,0.9984115699316218,0
139,121.55,0.87777777777778,0.9138888888888914,0.8500000000001364,1.0326797385619284,0.037358522536001644,1.040062439001657,80.55555555555556,1.0357142857009694,1.0751633986926408,0.0,0.997706443454996,0
140,122.46388888888889,0.9138888888888914,0.8972222222222257,0.8500000000001364,1.0751633986926408,0.03496706506253742,0.9734841879419955,80.55555555555556,1.0357142857009694,1.0555555555553902,0.0,0.997380934732603,0
141,123.36111111111111,0.8972222222222257,0.8472222222222143,0.8500000000001364,1.0555555555553902,0.03814181847409968,1.061869422483224,86.11111111111111,1.1071428571286226,0.9967320261436216,0.0,0.9891644762714046,0
142,124.20833333333333,0.8472222222222143,0.87777777777778,0.8500000000001364,0.9967320261436216,0.039899156787351085,1.110793776235971,83.33333333333333,1.071428571414796,1.0326797385619284,0.0,0.9968953678410626,0
143,125.08611111111111,0.87777777777778,0.8638888888888943,0.8500000000001364,1.0326797385619284,0.03846191505391449,1.0707809213038064,83.33333333333333,1.071428571414796,1.016339869280889,0.0,0.9972299768157201,0
144,125.95,0.8638888888888943,0.8527777777777743,0.8500000000001364,1.016339869280889,0.03735002114849512,1.039825760106864,80.55555555555556,1.0357142857009694,1.003267973856044,0.0,0.9984506125790893,0
145,126.80277777777778,0.8527777777777743,0.88333333333334,0.8500000000001364,1.003267973856044,0.03812682088108425,1.0614518890233355,77.77777777777777,0.9999999999871428,1.039215686274351,0.0,0.9944728079514538,0
146,127.68611111111112,0.88333333333334,0.9249999999999972,0.8500000000001364,1.039215686274351,0.04184468473700361,1.164957335367934,83.33333333333333,1.071428571414796,1.088235294117469,0.0,0.9943453948028127,0
147,128.61111111111111,0.9249999999999972,0.9166666666666572,0.8500000000001364,1.088235294117469,0.03530185661857537,0.9828047953614789,77.77777777777777,0.9999999999871428,1.0784313725488355,0.0,0.9971605151090746,0
148,129.52777777777777,0.9166666666666572,0.8722222222222342,0.8500000000001364,1.0784313725488355,0.036378210402997074,1.012770518475274,77.77777777777777,0.9999999999871428,1.0261437908495226,0.0,0.9945667450878912,0
149,130.4,0.8722222222222342,0.86944444444444,0.8500000000001364,1.0261437908495226,0.035747871058421435,0.9952218513542371,83.33333333333333,1.071428571414796,1.0228758169932948,0.0,0.9959120332924136,0
150,131.26944444444445,0.86944444444444,0.8444444444444343,0.8500000000001364,1.0228758169932948,0.035328763610098464,0.983553886849311,41.666666666666664,0.535714285707398,0.9934640522874104,0.0,0.9866945896194367,0
151,132.11388888888888,0.8444444444444343,0.830555555555577,0.8500000000001364,0.9934640522874104,0.041815772664895334,1.1641524223737292,86.11111111111111,1.1071428571286226,0.9771241830064044,0.0,0.9936989586843186,0
152,132.94444444444446,0.830555555555577,0.9083333333333314,0.8500000000001364,0.9771241830064044,0.03892962340601349,1.0838019364940286,83.33333333333333,1.071428571414796,1.0686274509802185,0.0,0.9973607431565849,0
153,133.8527777777778,0.9083333333333314,0.9138888888888914,0.8500000000001364,1.0686274509802185,0.03799667421498748,1.0578286017576761,83.33333333333333,1.071428571414796,1.0751633986926408,0.0,0.9984422823334517,0
154,134.76666666666668,0.9138888888888914,0.919444444444423,0.8500000000001364,1.0751633986926408,0.03381020230277432,0.9412770924298566,41.666666666666664,0.535714285707398,1.08169934640503,0.0,0.9944102881975162,0
155,135.6861111111111,0.919444444444423,0.8361111111111086,0.8500000000001364,1.08169934640503,0.0363168750880044,1.0110629413823433,77.77777777777777,0.9999999999871428,0.9836601307187934,0.0,0.9956230545834608,0
156,136.5222222222222,0.8361111111111086,0.8500000000000227,0.8500000000001364,0.9836601307187934,0.04114110206292287,1.1453695716564936,83.33333333333333,1.071428571414796,0.9999999999998662,0.0,0.9948544076801944,0
157,137.37222222222223,0.8500000000000227,0.8555555555555543,0.8500000000001364,0.9999999999998662,0.03864271165458686,1.0758143043364814,80.55555555555556,1.0357142857009694,1.0065359477122553,0.0,0.9964380866814693,0
158,138.2277777777778,0.8555555555555543,0.8444444444444343,0.8500000000001364,1.0065359477122553,0.03300198188022266,0.9187762105194449,38.888888888888886,0.4999999999935714,0.9934640522874104,0.0,0.9916706807145885,0
159,139.07222222222222,0.8444444444444343,0.8944444444444457,0.8500000000001364,0.9934640522874104,0.030773305110245827,0.8567297793498325,41.666666666666664,0.535714285707398,1.052287581699179,0.0,0.9831904209930081,0
160,139.96666666666667,0.8944444444444457,0.8555555555555543,0.8500000000001364,1.052287581699179,0.038503230025080507,1.071931131396746,41.666666666666664,0.535714285707398,1.0065359477122553,0.0,0.9876350834800552,0
161,140.82222222222222,0.8555555555555543,0.88611111111112,0.8500000000001364,1.0065359477122553,0.041989082473370354,1.168977372876837,88.88888888888889,1.142857142842449,1.042483660130562,0.0,0.9897837759229364,0
162,141.70833333333334,0.88611111111112,0.8472222222222001,0.8500000000001364,1.042483660130562,0.041772078559733736,1.1629359771157408,83.33333333333333,1.071428571414796,0.9967320261436049,0.0,0.9931647563486765,0
163,142.55555555555554,0.8472222222222001,0.8666666666666742,0.8500000000001364,0.9967320261436049,0.039320838223241755,1.0946933692745382,80.55555555555556,1.0357142857009694,1.0196078431371,0.0,0.9979399223361722,0
164,143.42222222222222,0.8666666666666742,0.8555555555555543,0.8500000000001364,1.0196078431371,0.035508800647049095,0.9885661236041521,80.55555555555556,1.0357142857009694,1.0065359477122553,0.0,0.9969277189025226,0
165,144.27777777777777,0.8555555555555543,0.8222222222222229,0.8500000000001364,1.0065359477122553,0.03661573987189063,1.0193833463384243,77.77777777777777,0.9999999999871428,0.967320261437754,0.0,0.9950664997564036,0
166,145.1,0.8222222222222229,0.8833333333333258,0.8500000000001364,0.967320261437754,0.040211216196089375,1.1194815199617296,86.11111111111111,1.1071428571286226,1.039215686274334,0.0,0.9950112047938402,0
167,145.98333333333332,0.8833333333333258,0.9250000000000114,0.8500000000001364,1.039215686274334,0.0394135106584709,1.0972733727776147,86.11111111111111,1.1071428571286226,1.0882352941174858,0.0,0.995364543082959,0
168,146.90833333333333,0.9250000000000114,0.8916666666666799,0.8500000000001364,1.0882352941174858,0.034033512614981165,0.9474940585249224,44.44444444444444,0.5714285714212245,1.0490196078429845,0.0,0.9939781023105367,0
169,147.8,0.8916666666666799,0.8999999999999773,0.8500000000001364,1.0490196078429845,0.028507450207464816,0.7936483077970097,36.111111111111114,0.46428571427974497,1.058823529411568,0.0,0.9625646035048414,0
170,148.7,0.8999999999999773,0.7972222222222456,0.8500000000001364,1.058823529411568,0.028634472806549734,0.7971846209390853,27.77777777777778,0.3571428571382653,0.9379084967319031,0.0,0.647654447844671,0
171,149.49722222222223,0.7972222222222456,0.788888888888863,0.8500000000001364,0.9379084967319031,0.03634420863624501,1.0118239082225684,80.55555555555556,1.0357142857009694,0.9281045751632193,0.0,0.996255668414715,0
172,150.2861111111111,0.788888888888863,0.9055555555555657,0.8500000000001364,0.9281045751632193,0.04014948250350156,1.1177628520240566,83.33333333333333,1.071428571414796,1.065359477124024,0.0,0.9924344735740798,0
173,151.19166666666666,0.9055555555555657,0.9138888888888914,0.8500000000001364,1.065359477124024,0.03993856707127102,1.1118909597762465,86.11111111111111,1.1071428571286226,1.0751633986926408,0.0,0.9950518126243126,0
174,152.10555555555555,0.9138888888888914,0.8916666666666799,0.8500000000001364,1.0751633986926408,0.038682218654639264,1.076914180456918,86.11111111111111,1.1071428571286226,1.0490196078429845,0.0,0.9962899501971771,0
175,152.99722222222223,0.8916666666666799,0.8666666666666458,0.8500000000001364,1.0490196078429845,0.040578052894698236,1.1296942651553536,83.33333333333333,1.071428571414796,1.0196078431370668,0.0,0.9962143389234495,0
176,153.86388888888888,0.8666666666666458,0.8638888888889085,0.8500000000001364,1.0196078431370668,0.035791397377808655,0.9964336254510048,66.66666666666667,0.8571428571318368,1.0163398692809056,0.0,0.9818517146525076,0
177,154.7277777777778,0.8638888888889085,0.86388888888888,0.8500000000001364,1.0163398692809056,0.03902327753897168,1.0864092704926687,83.33333333333333,1.071428571414796,1.0163398692808723,0.0,0.9978637318866858,0
178,155.59166666666667,0.86388888888888,0.8416666666666686,0.8500000000001364,1.0163398692808723,0.034703174845267394,0.9661374760173458,75.0,0.9642857142733163,0.9901960784312158,0.0,0.9972340032746697,0
179,156.43333333333334,0.8416666666666686,0.7972222222222172,0.8500000000001364,0.9901960784312158,0.036971480659046145,1.0292871810092088,75.0,0.9642857142733163,0.9379084967318697,0.0,0.9909825729650252,0
180,157.23055555555555,0.7972222222222172,0.88055555555556,0.8500000000001364,0.9379084967318697,0.04041409085421096,1.1251295568061799,88.88888888888889,1.142857142842449,1.0359477124181395,0.0,0.9942393623238106,0
181,158.11111111111111,0.88055555555556,0.8777777777777658,0.8500000000001364,1.0359477124181395,0.0402983236607475,1.1219065945095863,88.88888888888889,1.142857142842449,1.0326797385619115,0.0,0.9945872722069042,0
182,158.98888888888888,0.8777777777777658,0.875,0.8500000000001364,1.0326797385619115,0.04093990583881327,1.1397682624675742,88.88888888888889,1.142857142842449,1.029411764705717,0.0,0.9939673478424997,0
183,159.86388888888888,0.875,0.8777777777777942,0.8500000000001364,1.029411764705717,0.03765690210742831,1.0483693356276471,69.44444444444444,0.8928571428456633,1.032679738561945,0.0,0.9833191244710058,0
184,160.74166666666667,0.8777777777777942,0.8416666666666686,0.8500000000001364,1.032679738561945,0.040079816163283356,1.115823338927578,83.33333333333333,1.071428571414796,0.9901960784312158,0.0,0.9967573136133743,0
185,161.58333333333334,0.8416666666666686,0.8305555555555486,0.8500000000001364,0.9901960784312158,0.037316182922892314,1.0388837028448823,77.77777777777777,0.9999999999871428,0.9771241830063709,0.0,0.998089789581831,0
186,162.4138888888889,0.8305555555555486,0.8416666666666686,0.8500000000001364,0.9771241830063709,0.03445633390195508,0.9592654164143604,75.0,0.9642857142733163,0.9901960784312158,0.0,0.9954112705511592,0
187,163.25555555555556,0.8416666666666686,0.9000000000000057,0.8500000000001364,0.9901960784312158,0.03507906602679333,0.9766022982993386,77.77777777777777,0.9999999999871428,1.0588235294116015,0.0,0.9957738461149345,0
188,164.15555555555557,0.9000000000000057,0.8861111111110915,0.8500000000001364,1.0588235294116015,0.034046292944969456,0.9478498633126,47.22222222222222,0.607142857135051,1.0424836601305285,0.0,0.9918384513053013,0
189,165.04166666666666,0.8861111111110915,0.8527777777777885,0.8500000000001364,1.0424836601305285,0.03273954379505361,0.9114699259980266,41.666666666666664,0.535714285707398,1.0032679738560608,0.0,0.9909214122361283,0
190,165.89444444444445,0.8527777777777885,0.8666666666666742,0.8500000000001364,1.0032679738560608,0.03663282151486435,1.0198588998145095,72.22222222222223,0.9285714285594899,1.0196078431371,0.0,0.9909872373850942,0
191,166.76111111111112,0.8666666666666742,0.8388888888888744,0.8500000000001364,1.0196078431371,0.03748121310528885,1.0434781482983078,80.55555555555556,1.0357142857009694,0.9869281045749879,0.0,0.9966070278399428,0
192,167.6,0.8388888888888744,0.8444444444444628,0.8500000000001364,0.9869281045749879,0.033477545722671996,0.9320159228073761,38.888888888888886,0.4999999999935714,0.9934640522874438,0.0,0.9921195339760017,0
193,168.44444444444446,0.8444444444444628,0.8249999999999886,0.8500000000001364,0.9934640522874438,0.03192910203290233,0.888907201923498,38.888888888888886,0.4999999999935714,0.9705882352939484,0.0,0.9863471901817524,0
194,169.26944444444445,0.8249999999999886,0.8722222222222342,0.8500000000001364,0.9705882352939484,0.03751098788882881,1.0443070792058262,86.11111111111111,1.1071428571286226,1.0261437908495226,0.0,0.9903741237670497,0
195,170.14166666666668,0.8722222222222342,0.875,0.8500000000001364,1.0261437908495226,0.038433347474440514,1.0699855989953442,83.33333333333333,1.071428571414796,1.029411764705717,0.0,0.99832524444029,0
196,171.01666666666668,0.875,0.8583333333333201,0.8500000000001364,1.029411764705717,0.03396343520940404,0.9455431013559602,77.77777777777777,0.9999999999871428,1.0098039215684498,0.0,0.9967116900025337,0
197,171.875,0.8583333333333201,0.86944444444444,0.8500000000001364,1.0098039215684498,0.03348733114752205,0.932288349342082,63.888888888888886,0.8214285714180102,1.0228758169932948,0.0,0.9828149381968316,0
198,172.74444444444444,0.86944444444444,0.8333333333333428,0.8500000000001364,1.0228758169932948,0.03482714729724986,0.9695888729684335,44.44444444444444,0.5714285714212245,0.9803921568625988,0.0,0.9967358341532929,0
199,173.57777777777778,0.8333333333333428,0.8111111111111029,0.8500000000001364,0.9803921568625988,0.034071997717900745,0.9485654849971336,36.111111111111114,0.46428571427974497,0.9542483660129091,0.0,0.989995455353188,0
200,174.38888888888889,0.8111111111111029,0.8111111111111029,0.8500000000001364,0.9542483660129091,0.03569402229062734,0.9937226999701002,77.77777777777777,0.9999999999871428,0.9542483660129091,0.0,0.998055509352044,0
201,175.2,0.8111111111111029,0.875,0.8500000000001364,0.9542483660129091,0.03861525386695418,1.0750498786676848,83.33333333333333,1.071428571414796,1.029411764705717,0.0,0.997241733934218,0
202,176.075,0.875,0.88611111111112,0.8500000000001364,1.029411764705717,0.037794101409324314,1.0521889684951347,88.88888888888889,1.142857142842449,1.042483660130562,0.0,0.9954095857503924,0
203,176.9611111111111,0.88611111111112,0.8583333333333485,0.8500000000001364,1.042483660130562,0.030334186462138504,0.8445047024153395,119.44444444444444,1.535714285694541,1.0098039215684833,0.0,0.9214924904563238,0
204,177.81944444444446,0.8583333333333485,0.8472222222222001,0.8500000000001364,1.0098039215684833,0.023920994338798594,0.6659612325776535,100.0,1.2857142856977553,0.9967320261436049,0.0,0.7746714121942732,0
205,178.66666666666666,0.8472222222222001,0.8277777777777828,0.8500000000001364,0.9967320261436049,0.024735383447009783,0.6886338508902824,30.555555555555557,0.3928571428520919,0.9738562091501765,0.0,0.9150239114415288,0
206,179.49444444444444,0.8277777777777828,0.8305555555555486,0.8500000000001364,0.9738562091501765,0.026638597801586374,0.7416193982083362,27.77777777777778,0.3571428571382653,0.9771241830063709,0.0,0.8974676370918204,0
207,180.325,0.8305555555555486,0.830555555555577,0.8500000000001364,0.9771241830063709,0.03204883016599837,0.8922404369036817,38.888888888888886,0.4999999999935714,0.9771241830064044,0.0,0.9535701711106135,0
208,181.15555555555557,0.830555555555577,0.8777777777777658,0.8500000000001364,0.9771241830064044,0.033461705936354544,0.9315749426595473,33.333333333333336,0.4285714285659184,1.0326797385619115,0.0,0.9560226474993527,0
209,182.03333333333333,0.8777777777777658,0.86388888888888,0.8500000000001364,1.0326797385619115,0.032880224159325434,0.9153864717512263,44.44444444444444,0.5714285714212245,1.0163398692808723,0.0,0.9842238457212715,0
210,182.8972222222222,0.86388888888888,0.8583333333333485,0.8500000000001364,1.0163398692808723,0.030792740695421223,0.8572708666506342,38.888888888888886,0.4999999999935714,1.0098039215684833,0.0,0.9671251872494826,0
211,183.75555555555556,0.8583333333333485,0.8305555555555486,0.8500000000001364,1.0098039215684833,0.03057744437793268,0.8512770104198527,136.11111111111111,1.7499999999775,0.9771241830063709,0.0,0.8695773867953467,0
212,184.5861111111111,0.8305555555555486,0.8361111111111086,0.8500000000001364,0.9771241830063709,0.03391074851653467,0.9440763021741712,44.44444444444444,0.5714285714212245,0.9836601307187934,0.0,0.9899963042423487,0
213,185.42222222222222,0.8361111111111086,0.8138888888888971,0.8500000000001364,0.9836601307187934,0.03304314879730982,0.9199222987821857,41.666666666666664,0.535714285707398,0.957516339869137,0.0,0.9788625272208945,0
214,186.23611111111111,0.8138888888888971,0.7638888888888857,0.8500000000001364,0.957516339869137,0.02722132293703164,0.7578424842539558,102.77777777777777,1.3214285714115817,0.8986928104573684,0.0,0.8712868393123914,0
215,187.0,0.7638888888888857,0.8333333333333428,0.8500000000001364,0.8986928104573684,0.02680155344286324,0.7461560883719306,27.77777777777778,0.3571428571382653,0.9803921568625988,0.0,0.7415673468948927,0
216,187.83333333333334,0.8333333333333428,0.8527777777777601,0.8500000000001364,0.9803921568625988,0.028611893437432832,0.7965560105947598,108.33333333333333,1.3928571428392347,1.0032679738560273,0.0,0.6142984497182928,0
217,188.6861111111111,0.8527777777777601,0.8611111111111143,0.8500000000001364,1.0032679738560273,0.0354665352483214,0.9873894535780893,27.77777777777778,0.3571428571382653,1.0130718954246778,0.0,0.8672373332529831,0
218,189.54722222222222,0.8611111111111143,0.7972222222222172,0.8500000000001364,1.0130718954246778,0.04131616461278131,1.1502433185346832,86.11111111111111,1.1071428571286226,0.9379084967318697,0.0,0.9916647168530051,0
219,190.34444444444443,0.7972222222222172,0.7944444444444514,0.8500000000001364,0.9379084967318697,0.038786148678526554,1.0798075955812863,83.33333333333333,1.071428571414796,0.9346405228756751,0.0,0.9972141229438259,0
220,191.13888888888889,0.7944444444444514,0.7833333333333314,0.8500000000001364,0.9346405228756751,0.03701835149168148,1.030592066459691,80.55555555555556,1.0357142857009694,0.9215686274508302,0.0,0.9990218284759929,0
221,191.92222222222222,0.7833333333333314,0.7722222222222399,0.8500000000001364,0.9215686274508302,0.039006291037253206,1.0859363657521133,77.77777777777777,0.9999999999871428,0.9084967320260188,0.0,0.9935480017679024,0
222,192.69444444444446,0.7722222222222399,0.8166666666666629,0.8500000000001364,0.9084967320260188,0.03521082775505734,0.9802705489463839,36.111111111111114,0.46428571427974497,0.9607843137253316,0.0,0.9732478384886816,0
223,193.51111111111112,0.8166666666666629,0.8666666666666458,0.8500000000001364,0.9607843137253316,0.04243060782035589,1.1812694523835756,88.88888888888889,1.142857142842449,1.0196078431370668,0.0,0.992473960261504,0
224,194.37777777777777,0.8666666666666458,0.8527777777777885,0.8500000000001364,1.0196078431370668,0.040665420526329224,1.1321265827598939,86.11111111111111,1.1071428571286226,1.0032679738560608,0.0,0.9901122892076262,0
225,195.23055555555555,0.8527777777777885,0.8166666666666629,0.8500000000001364,1.0032679738560608,0.03874367086327225,1.0786250118724612,83.33333333333333,1.071428571414796,0.9607843137253316,0.0,0.9961074438221,0
226,196.04722222222222,0.8166666666666629,0.8388888888889028,0.8500000000001364,0.9607843137253316,0.03882095648452854,1.0807766459919879,80.55555555555556,1.0357142857009694,0.9869281045750213,0.0,0.9965638125582239,0
227,196.88611111111112,0.8388888888889028,0.8333333333333144,0.8500000000001364,0.9869281045750213,0.035847603137900086,0.9979983955746172,77.77777777777777,0.9999999999871428,0.9803921568625654,0.0,0.9976761935802476,0
228,197.71944444444443,0.8333333333333144,0.7916666666666856,0.8500000000001364,0.9803921568625654,0.03953781154166225,1.1007339132638578,77.77777777777777,0.9999999999871428,0.9313725490194806,0.0,0.983215337180833,0
229,198.51111111111112,0.7916666666666856,0.8027777777777771,0.8500000000001364,0.9313725490194806,0.040147670681430984,1.1177124108407914,86.11111111111111,1.1071428571286226,0.9444444444442921,0.0,0.9938960401792769,0
230,199.3138888888889,0.8027777777777771,0.8611111111111143,0.8500000000001364,0.9444444444442921,0.04265006510475173,1.1873791500635484,86.11111111111111,1.1071428571286226,1.0130718954246778,0.0,0.9916978549822,0
231,200.175,0.8611111111111143,0.8611111111110858,0.8500000000001364,1.0130718954246778,0.04210691068013455,1.1722577138483585,86.11111111111111,1.1071428571286226,1.0130718954246443,0.0,0.9941439319290029,0
232,201.0361111111111,0.8611111111110858,0.8416666666666686,0.8500000000001364,1.0130718954246443,0.040210345052589636,1.119457267299377,80.55555555555556,1.0357142857009694,0.9901960784312158,0.0,0.9953148921185034,0
233,201.87777777777777,0.8416666666666686,0.8472222222222285,0.8500000000001364,0.9901960784312158,0.0362887816824595,1.0102808200909368,69.44444444444444,0.8928571428456633,0.9967320261436383,0.0,0.988248051115166,0
234,202.725,0.8472222222222285,0.8361111111111086,0.8500000000001364,0.9967320261436383,0.038332303786991054,1.0671725395679235,80.55555555555556,1.0357142857009694,0.9836601307187934,0.0,0.998221190591191,0
235,203.5611111111111,0.8361111111111086,0.8194444444444571,0.8500000000001364,0.9836601307187934,0.03573164973727051,0.9947702492646792,83.33333333333333,1.071428571414796,0.9640522875815595,0.0,0.9936617972167152,0
236,204.38055555555556,0.8194444444444571,0.7916666666666572,0.8500000000001364,0.9640522875815595,0.039025429910044894,1.0864691925708474,77.77777777777777,0.9999999999871428,0.9313725490194472,0.0,0.9893318656252315,0
237,205.17222222222222,0.7916666666666572,0.88055555555556,0.8500000000001364,0.9313725490194472,0.04288815172560357,1.1940074890546901,86.11111111111111,1.1071428571286226,1.0359477124181395,0.0,0.9921421576682029,0
238,206.05277777777778,0.88055555555556,0.8583333333333201,0.8500000000001364,1.0359477124181395,0.03845921135013597,1.0707056501058216,83.33333333333333,1.071428571414796,1.0098039215684498,0.0,0.994411696242178,0
239,206.9111111111111,0.8583333333333201,0.8444444444444628,0.8500000000001364,1.0098039215684498,0.04091786966404943,1.1391547746710733,80.55555555555556,1.0357142857009694,0.9934640522874438,0.0,0.9962609359842689,0
240,207.75555555555556,0.8444444444444628,0.8027777777777771,0.8500000000001364,0.9934640522874438,0.038802524617666354,1.0802635022405034,77.77777777777777,0.9999999999871428,0.9444444444442921,0.0,0.9952586935459238,0
241,208.55833333333334,0.8027777777777771,0.8333333333333428,0.8500000000001364,0.9444444444442921,0.03802794963820437,1.058699310520862,77.77777777777777,0.9999999999871428,0.9803921568625988,0.0,0.9979212861524345,0
242,209.39166666666668,0.8333333333333428,0.799999999999983,0.8500000000001364,0.9803921568625988,0.036588419034080374,1.0186227333569788,77.77777777777777,0.9999999999871428,0.9411764705880642,0.0,0.997677489801971,0
243,210.19166666666666,0.799999999999983,0.8000000000000114,0.8500000000001364,0.9411764705880642,0.03911255717733629,1.0888948184246352,83.33333333333333,1.071428571414796,0.9411764705880976,0.0,0.9921841466182512,0
244,210.99166666666667,0.8000000000000114,0.86944444444444,0.8500000000001364,0.9411764705880976,0.04065928928293307,1.1319558887514631,83.33333333333333,1.071428571414796,1.0228758169932948,0.0,0.9944979182656606,0
245,211.86111111111111,0.86944444444444,0.8722222222222058,0.8500000000001364,1.0228758169932948,0.0390647174273618,1.0875629582850446,83.33333333333333,1.071428571414796,1.0261437908494893,0.0,0.9959433197953571,0
246,212.73333333333332,0.8722222222222058,0.8527777777777885,0.8500000000001364,1.0261437908494893,0.03744116108518462,1.0423630988025359,80.55555555555556,1.0357142857009694,1.0032679738560608,0.0,0.998323476519971,0
247,213.5861111111111,0.8527777777777885,0.8333333333333428,0.8500000000001364,1.0032679738560608,0.03554184013931447,0.9894859441049705,75.0,0.9642857142733163,0.9803921568625988,0.0,0.996207908189713,0
248,214.41944444444445,0.8333333333333428,0.8249999999999886,0.8500000000001364,0.9803921568625988,0.03509395453143236,0.977016794735407,41.666666666666664,0.535714285707398,0.9705882352939484,0.0,0.9931166711082859,0
249,215.24444444444444,0.8249999999999886,0.8000000000000114,0.8500000000001364,0.9705882352939484,0.03874326874930328,1.0786138170069544,83.33333333333333,1.071428571414796,0.9411764705880976,0.0,0.991901058203857,0
250,216.04444444444445,0.8000000000000114,0.7888888888888914,0.8500000000001364,0.9411764705880976,0.03735924753428581,1.040082622976625,44.44444444444444,0.5714285714212245,0.9281045751632527,0.0,0.988873216239258,0
251,216.83333333333334,0.7888888888888914,0.8527777777777601,0.8500000000001364,0.9281045751632527,0.04131992480345592,1.1503480023609878,77.77777777777777,0.9999999999871428,1.0032679738560273,0.0,0.9869672197164336,0
252,217.6861111111111,0.8527777777777601,0.8638888888889085,0.8500000000001364,1.0032679738560273,0.04104157949820523,1.1425988603336308,88.88888888888889,1.142857142842449,1.0163398692809056,0.0,0.9926246447089313,0
253,218.55,0.8638888888889085,0.8611111111110858,0.8500000000001364,1.0163398692809056,0.03831149065830079,1.0665931014124668,83.33333333333333,1.071428571414796,1.0130718954246443,0.0,0.997435677225011,0
254,219.4111111111111,0.8611111111110858,0.8416666666666686,0.8500000000001364,1.0130718954246443,0.03967806474060818,1.1046385667209884,86.11111111111111,1.1071428571286226,0.9901960784312158,0.0,0.9920582806171969,0
255,220.25277777777777,0.8416666666666686,0.8527777777777885,0.8500000000001364,0.9901960784312158,0.04205985398475183,1.17094765397316,88.88888888888889,1.142857142842449,1.0032679738560608,0.0,0.9942842430640966,0
256,221.10555555555555,0.8527777777777885,0.8249999999999886,0.8500000000001364,1.0032679738560608,0.03983901230010535,1.1091193518248605,83.33333333333333,1.071428571414796,0.9705882352939484,0.0,0.9970960057122096,0
257,221.93055555555554,0.8249999999999886,0.8388888888889028,0.8500000000001364,0.9705882352939484,0.035741131480396114,0.9950342212906526,75.0,0.9642857142733163,0.9869281045750213,0.0,0.9972530244314508,0
258,222.76944444444445,0.8388888888889028,0.8777777777777658,0.8500000000001364,0.9869281045750213,0.03290026800770283,0.9159444931186475,72.22222222222223,0.9285714285594899,1.0326797385619115,0.0,0.9908700264821666,0
259,223.6472222222222,0.8777777777777658,0.8777777777777942,0.8500000000001364,1.0326797385619115,0.036201681022898266,1.0078559349971912,41.666666666666664,0.535714285707398,1.032679738561945,0.0,0.9906934334410318,0
260,224.525,0.8777777777777942,0.86944444444444,0.8500000000001364,1.032679738561945,0.03670772617263656,1.0219442478359704,83.33333333333333,1.071428571414796,1.0228758169932948,0.0,0.9962347327121568,0
261,225.39444444444445,0.86944444444444,0.8472222222222285,0.8500000000001364,1.0228758169932948,0.0368717373529722,1.0265103242400637,80.55555555555556,1.0357142857009694,0.9967320261436383,0.0,0.9982232300280717,0
262,226.24166666666667,0.8472222222222285,0.8611111111111143,0.8500000000001364,0.9967320261436383,0.03553466049823262,0.9892860626720913,80.55555555555556,1.0357142857009694,1.0130718954246778,0.0,0.9978960332104654,0
263,227.1027777777778,0.8611111111111143,0.8416666666666686,0.8500000000001364,1.0130718954246778,0.03346373047717153,0.9316313059393837,72.22222222222223,0.9285714285594899,0.9901960784312158,0.0,0.9902102671937691,0
264,227.94444444444446,0.8416666666666686,0.8388888888888744,0.8500000000001364,0.9901960784312158,0.03317637810077493,0.9236314067688541,38.888888888888886,0.4999999999935714,0.9869281045749879,0.0,0.9853823389077316,0
265,228.78333333333333,0.8388888888888744,0.8527777777777885,0.8500000000001364,0.9869281045749879,0.030606136006285232,0.8520757862529849,33.333333333333336,0.4285714285659184,1.0032679738560608,0.0,0.9458077219466179,0
266,229.63611111111112,0.8527777777777885,0.8944444444444457,0.8500000000001364,1.0032679738560608,0.035903995933289336,0.9995683727667865,83.33333333333333,1.071428571414796,1.052287581699179,0.0,0.9968064514926601,0
267,230.53055555555557,0.8944444444444457,0.9055555555555372,0.8500000000001364,1.052287581699179,0.03472205812087651,0.9666631870025014,83.33333333333333,1.071428571414796,1.0653594771239905,0.0,0.9972658475264895,0
268,231.4361111111111,0.9055555555555372,0.88055555555556,0.8500000000001364,1.0653594771239905,0.0346056645507518,0.9634227863600145,83.33333333333333,1.071428571414796,1.0359477124181395,0.0,0.9962300494413132,0
269,232.31666666666666,0.88055555555556,0.8777777777777942,0.8500000000001364,1.0359477124181395,0.03220752221375832,0.8966584284900547,36.111111111111114,0.46428571427974497,1.032679738561945,0.0,0.982530773600766,0
270,233.19444444444446,0.8777777777777942,0.8555555555555543,0.8500000000001364,1.032679738561945,0.029963011351509684,0.834171175695023,33.333333333333336,0.4285714285659184,1.0065359477122553,0.0,0.9634447140518521,0
271,234.05,0.8555555555555543,0.8388888888888744,0.8500000000001364,1.0065359477122553,0.029436540027039836,0.8195141975111329,36.111111111111114,0.46428571427974497,0.9869281045749879,0.0,0.9636414548045927,0
272,234.88888888888889,0.8388888888888744,0.9055555555555657,0.8500000000001364,0.9869281045749879,0.03092297198098018,0.8608965097247746,36.111111111111114,0.46428571427974497,1.065359477124024,0.0,0.9735228021029543,0
273,235.79444444444445,0.9055555555555657,0.9222222222222172,0.8500000000001364,1.065359477124024,0.03138943685919837,0.8738829065631585,38.888888888888886,0.4999999999935714,1.0849673202612578,0.0,0.9692723248427723,0
274,236.71666666666667,0.9222222222222172,0.8916666666666515,0.8500000000001364,1.0849673202612578,0.03548502409316788,0.9879041835984433,38.888888888888886,0.4999999999935714,1.049019607842951,0.0,0.9727773899482284,0
275,237.60833333333332,0.8916666666666515,0.8527777777777885,0.8500000000001364,1.049019607842951,0.03530861749678702,0.9829930184229189,77.77777777777777,0.9999999999871428,1.0032679738560608,0.0,0.9953095318405909,0
276,238.4611111111111,0.8527777777777885,0.86388888888888,0.8500000000001364,1.0032679738560608,0.03608653600828113,1.0046502941791913,80.55555555555556,1.0357142857009694,1.0163398692808723,0.0,0.9984836194708322,0
277,239.325,0.86388888888888,0.8583333333333485,0.8500000000001364,1.0163398692808723,0.0371663679189803,1.0347128484376285,77.77777777777777,0.9999999999871428,1.0098039215684833,0.0,0.9585515245394731,0
278,240.18333333333334,0.8583333333333485,0.8388888888888744,0.8500000000001364,1.0098039215684833,0.040537683855933815,1.1285703898501402,77.77777777777777,0.9999999999871428,0.9869281045749879,0.0,0.9917902568899464,0
279,241.0222222222222,0.8388888888888744,0.8972222222222399,0.8500000000001364,0.9869281045749879,0.03527352570740739,0.9820160619060775,77.77777777777777,0.9999999999871428,1.055555555555407,0.0,0.9955288162536564,0
280,241.91944444444445,0.8972222222222399,0.9277777777777771,0.8500000000001364,1.055555555555407,0.02669908148306729,0.7433032657975917,144.44444444444446,1.8571428571189799,1.0915032679736802,0.0,0.916606309163674,0
281,242.84722222222223,0.9277777777777771,0.8666666666666742,0.8500000000001364,1.0915032679736802,0.026948151376004398,0.7502373794280333,138.88888888888889,1.7857142856913266,1.0196078431371,0.0,0.6195217705024256,0
282,243.7138888888889,0.8666666666666742,0.8416666666666401,0.8500000000001364,1.0196078431371,0.03370990468934544,0.9384848037265666,33.333333333333336,0.4285714285659184,0.9901960784311824,0.0,0.9588360080962919,0
283,244.55555555555554,0.8416666666666401,0.8638888888889085,0.8500000000001364,0.9901960784311824,0.03378845253876183,0.9406715783176554,36.111111111111114,0.46428571427974497,1.0163398692809056,0.0,0.969298475809137,0
284,245.41944444444445,0.8638888888889085,0.8722222222222058,0.8500000000001364,1.0163398692809056,0.032173793982220776,0.8957194334662996,33.333333333333336,0.4285714285659184,1.0261437908494893,0.0,0.9656196623802591,0
285,246.29166666666666,0.8722222222222058,0.8277777777777828,0.8500000000001364,1.0261437908494893,0.027828062291850145,0.7747341269200355,30.555555555555557,0.3928571428520919,0.9738562091501765,0.0,0.5721879234627021,0
286,247.11944444444444,0.8277777777777828,0.8444444444444628,0.8500000000001364,0.9738562091501765,0.02781651783580688,0.7744127289017458,63.888888888888886,0.8214285714180102,0.9934640522874438,0.0,0.5323986921237823,0
287,247.9638888888889,0.8444444444444628,0.9027777777777715,0.8500000000001364,0.9934640522874438,0.0370278201617554,1.0308556745314956,108.33333333333333,1.3928571428392347,1.062091503267796,0.0,0.9441209989465287,0
288,248.86666666666667,0.9027777777777715,0.88055555555556,0.8500000000001364,1.062091503267796,0.03255987556910787,0.9064679569531279,38.888888888888886,0.4999999999935714,1.0359477124181395,0.0,0.97775878089772,0
289,249.74722222222223,0.88055555555556,0.8388888888888744,0.8500000000001364,1.0359477124181395,0.03155778889028408,0.8785698323882669,38.888888888888886,0.4999999999935714,0.9869281045749879,0.0,0.9667140229518654,0
290,250.5861111111111,0.8388888888888744,0.88055555555556,0.8500000000001364,0.9869281045749879,0.030413050731332082,0.8467002861429483,33.333333333333336,0.4285714285659184,1.0359477124181395,0.0,0.9530392019804779,0
291,251.46666666666667,0.88055555555556,0.8277777777777828,0.8500000000001364,1.0359477124181395,0.027909736570932493,0.7770079414110724,30.555555555555557,0.3928571428520919,0.9738562091501765,0.0,0.6128913176402574,0
292,252.29444444444445,0.8277777777777828,0.7944444444444514,0.8500000000001364,0.9738562091501765,0.02742037741868907,0.7633841672658396,27.77777777777778,0.3571428571382653,0.9346405228756751,0.0,0.6438960887334133,0
293,253.0888888888889,0.7944444444444514,0.8861111111110915,0.8500000000001364,0.9346405228756751,0.030628125950708525,0.8526879869953553,38.888888888888886,0.4999999999935714,1.0424836601305285,0.0,0.9289286256050524,0
294,253.975,0.8861111111110915,0.8833333333333258,0.8500000000001364,1.0424836601305285,0.035874255425801645,0.9987403961056381,113.88888888888889,1.4642857142668877,1.039215686274334,0.0,0.9305011887174743,0
295,254.85833333333332,0.8833333333333258,0.8694444444444684,0.8500000000001364,1.039215686274334,0.03250318723615488,0.9048897519859159,38.888888888888886,0.4999999999935714,1.022875816993328,0.0,0.9794250429828727,0
296,255.7277777777778,0.8694444444444684,0.8333333333333428,0.8500000000001364,1.022875816993328,0.032088537422159225,0.8933458881604579,36.111111111111114,0.46428571427974497,0.9803921568625988,0.0,0.9193271304283048,0
297,256.56111111111113,0.8333333333333428,0.8777777777777374,0.8500000000001364,0.9803921568625988,0.035005222714674704,0.9745464981741584,41.666666666666664,0.535714285707398,1.0326797385618782,0.0,0.9925995164437247,0
298,257.43888888888887,0.8777777777777374,0.830555555555577,0.8500000000001364,1.0326797385618782,0.030495125234132184,0.8489852428748389,38.888888888888886,0.4999999999935714,0.9771241830064044,0.0,0.9764059878781617,0
299,258.26944444444445,0.830555555555577,0.8111111111111313,0.8500000000001364,0.9771241830064044,0.03529385171790947,0.9825819386758987,80.55555555555556,1.0357142857009694,0.9542483660129425,0.0,0.9983224172057887,0
300,259.0805555555556,0.8111111111111313,0.8861111111110631,0.8500000000001364,0.9542483660129425,0.0354440603724492,0.9867637523289735,72.22222222222223,0.9285714285594899,1.0424836601304952,0.0,0.9919025581370662,0
301,259.96666666666664,0.8861111111110631,0.88611111111112,0.8500000000001364,1.0424836601304952,0.03408197939207514,0.9488433751191837,41.666666666666664,0.535714285707398,1.042483660130562,0.0,0.9937587079115111,0
302,260.85277777777776,0.88611111111112,0.86388888888888,0.8500000000001364,1.042483660130562,0.033981749830693006,0.9460529809870092,36.111111111111114,0.46428571427974497,1.0163398692808723,0.0,0.967185708913717,0
303,261.71666666666664,0.86388888888888,0.8555555555555543,0.8500000000001364,1.0163398692808723,0.03636447476518045,1.0123881178876963,36.111111111111114,0.46428571427974497,1.0065359477122553,0.0,0.9801275044310105,0
304,262.5722222222222,0.8555555555555543,0.841666666666697,0.8500000000001364,1.0065359477122553,0.03791865149886701,1.0556564468940144,83.33333333333333,1.071428571414796,0.9901960784312492,0.0,0.9980096833219929,0
305,263.4138888888889,0.841666666666697,0.8111111111111313,0.8500000000001364,0.9901960784312492,0.03656364658487241,1.0179330675941414,77.77777777777777,0.9999999999871428,0.9542483660129425,0.0,0.996919757351634,0
306,264.225,0.8111111111111313,0.8055555555555429,0.8500000000001364,0.9542483660129425,0.03969004047817487,1.1049719716304156,77.77777777777777,0.9999999999871428,0.9477124183004866,0.0,0.9900923655995271,0
307,265.03055555555557,0.8055555555555429,0.8888888888888573,0.8500000000001364,0.9477124183004866,0.04013967785865977,1.117489890404178,86.11111111111111,1.1071428571286226,1.0457516339867232,0.0,0.9956036676839564,0
308,265.9194444444444,0.8888888888888573,0.88611111111112,0.8500000000001364,1.0457516339867232,0.03741729746826856,1.0416987349592066,83.33333333333333,1.071428571414796,1.042483660130562,0.0,0.9989590286053943,0
309,266.80555555555554,0.88611111111112,0.8666666666666742,0.8500000000001364,1.042483660130562,0.03698328226054101,1.0296157379649356,80.55555555555556,1.0357142857009694,1.0196078431371,0.0,0.9988562786143813,0
310,267.6722222222222,0.8666666666666742,0.8472222222222285,0.8500000000001364,1.0196078431371,0.03555503788978226,0.989853369891888,77.77777777777777,0.9999999999871428,0.9967320261436383,0.0,0.995622918500248,0
311,268.51944444444445,0.8472222222222285,0.8222222222221944,0.8500000000001364,0.9967320261436383,0.03488617560816656,0.9712322229955392,38.888888888888886,0.4999999999935714,0.9673202614377205,0.0,0.990859037058772,0
312,269.34166666666664,0.8222222222221944,0.8388888888889028,0.8500000000001364,0.9673202614377205,0.037487632653812324,1.0436568687305245,80.55555555555556,1.0357142857009694,0.9869281045750213,0.0,0.9974607897420594,0
313,270.18055555555554,0.8388888888889028,0.8277777777777828,0.8500000000001364,0.9869281045750213,0.036360862465717375,1.012287551357359,77.77777777777777,0.9999999999871428,0.9738562091501765,0.0,0.9984842134897488,0
314,271.0083333333333,0.8277777777777828,0.88611111111112,0.8500000000001364,0.9738562091501765,0.033013025407749974,0.919083662672141,41.666666666666664,0.535714285707398,1.042483660130562,0.0,0.9932010356185839,0
315,271.89444444444445,0.88611111111112,0.8833333333333258,0.8500000000001364,1.042483660130562,0.03405103121413849,0.9479817768748625,44.44444444444444,0.5714285714212245,1.039215686274334,0.0,0.9947920916893531,0
316,272.77777777777777,0.8833333333333258,0.8888888888889142,0.8500000000001364,1.039215686274334,0.03262123675846242,0.908176254389105,38.888888888888886,0.4999999999935714,1.04575163398679,0.0,0.9889135094702753,0
317,273.6666666666667,0.8888888888889142,0.8555555555555543,0.8500000000001364,1.04575163398679,0.03690361682313058,1.027397849689044,38.888888888888886,0.4999999999935714,1.0065359477122553,0.0,0.9850140690667866,0
318,274.52222222222224,0.8555555555555543,0.8555555555555543,0.8500000000001364,1.0065359477122553,0.03466471887761271,0.965066860671823,80.55555555555556,1.0357142857009694,1.0065359477122553,0.0,0.9973863318140521,0
319,275.3777777777778,0.8555555555555543,0.8166666666666629,0.8500000000001364,1.0065359477122553,0.03244068091124865,0.9031495739402677,38.888888888888886,0.4999999999935714,0.9607843137253316,0.0,0.9841167670811388,0
320,276.19444444444446,0.8166666666666629,0.8055555555555429,0.8500000000001364,0.9607843137253316,0.038278323198466566,1.0656697182905182,80.55555555555556,1.0357142857009694,0.9477124183004866,0.0,0.9868793853312993,0
321,277.0,0.8055555555555429,0.8694444444444684,0.8500000000001364,0.9477124183004866,0.03633632638034507,1.0116044659711187,80.55555555555556,1.0357142857009694,1.022875816993328,0.0,0.9979237691054215,0
322,277.86944444444447,0.8694444444444684,0.9166666666666288,0.8500000000001364,1.022875816993328,0.03732960982742933,1.0392575082882736,86.11111111111111,1.1071428571286226,1.078431372548802,0.0,0.9967893960456164,0
323,278.7861111111111,0.9166666666666288,0.8888888888889142,0.8500000000001364,1.078431372548802,0.03561484499902974,0.9915184016889467,86.11111111111111,1.1071428571286226,1.04575163398679,0.0,0.9966653091763937,0
324,279.675,0.8888888888889142,0.8444444444444343,0.8500000000001364,1.04575163398679,0.03470174043904762,0.9660975421032029,75.0,0.9642857142733163,0.9934640522874104,0.0,0.988467708315909,0
325,280.51944444444445,0.8444444444444343,0.8416666666666401,0.8500000000001364,0.9934640522874104,0.03701683618124253,1.0305498801695492,83.33333333333333,1.071428571414796,0.9901960784311824,0.0,0.9919568058436589,0
326,281.3611111111111,0.8416666666666401,0.8583333333333485,0.8500000000001364,0.9901960784311824,0.037694865005570545,1.0494262239024803,80.55555555555556,1.0357142857009694,1.0098039215684833,0.0,0.996754515842353,0
327,282.21944444444443,0.8583333333333485,0.8361111111111086,0.8500000000001364,1.0098039215684833,0.03648952505093753,1.0158695217648712,44.44444444444444,0.5714285714212245,0.9836601307187934,0.0,0.9890452058301791,0
328,283.05555555555554,0.8361111111111086,0.8916666666666515,0.8500000000001364,0.9836601307187934,0.03561586075901023,0.9915466804786587,80.55555555555556,1.0357142857009694,1.049019607842951,0.0,0.99861329222587,0
329,283.9472222222222,0.8916666666666515,0.8916666666667084,0.8500000000001364,1.049019607842951,0.036817177589605725,1.024991378716894,83.33333333333333,1.071428571414796,1.0490196078430178,0.0,0.9979685994242207,0
330,284.8388888888889,0.8916666666667084,0.8944444444444457,0.8500000000001364,1.0490196078430178,0.03482920009209848,0.9696460228413968,77.77777777777777,0.9999999999871428,1.052287581699179,0.0,0.9930878851802434,0
331,285.73333333333335,0.8944444444444457,0.8277777777777828,0.8500000000001364,1.052287581699179,0.032219237979850684,0.896984595785484,33.333333333333336,0.4285714285659184,0.9738562091501765,0.0,0.9607566958529932,0
332,286.56111111111113,0.8277777777777828,0.8666666666666742,0.8500000000001364,0.9738562091501765,0.03936563203400969,1.0959404303710947,86.11111111111111,1.1071428571286226,1.0196078431371,0.0,0.9911888989602803,0
333,287.4277777777778,0.8666666666666742,0.8333333333333144,0.8500000000001364,1.0196078431371,0.04354611511697231,1.2123252105047637,86.11111111111111,1.1071428571286226,0.9803921568625654,0.0,0.9904868682350655,0
334,288.2611111111111,0.8333333333333144,0.8111111111110745,0.8500000000001364,0.9803921568625654,0.04023959058094175,1.120271463725868,83.33333333333333,1.071428571414796,0.9542483660128757,0.0,0.9945704857791808,0
335,289.0722222222222,0.8111111111110745,0.88611111111112,0.8500000000001364,0.9542483660128757,0.038825592564338755,1.0809057145992962,77.77777777777777,0.9999999999871428,1.042483660130562,0.0,0.9969035777432709,0
336,289.9583333333333,0.88611111111112,0.9027777777777715,0.8500000000001364,1.042483660130562,0.03308720321473117,0.9211487751447853,41.666666666666664,0.535714285707398,1.062091503267796,0.0,0.9920747259337908,0
337,290.8611111111111,0.9027777777777715,0.8555555555555543,0.8500000000001364,1.062091503267796,0.03157473723917325,0.879041674952858,36.111111111111114,0.46428571427974497,1.0065359477122553,0.0,0.9649118725742525,0
338,291.71666666666664,0.8555555555555543,0.830555555555577,0.8500000000001364,1.0065359477122553,0.03831535982518214,1.0667008191397842,83.33333333333333,1.071428571414796,0.9771241830064044,0.0,0.9920650402369111,0
339,292.5472222222222,0.830555555555577,0.8388888888889028,0.8500000000001364,0.9771241830064044,0.038589929046874596,1.0743448348824585,80.55555555555556,1.0357142857009694,0.9869281045750213,0.0,0.9977233640106029,0
340,293.3861111111111,0.8388888888889028,0.8333333333333144,0.8500000000001364,0.9869281045750213,0.037491811994407334,1.0437732217037579,83.33333333333333,1.071428571414796,0.9803921568625654,0.0,0.9954073722660088,0
341,294.21944444444443,0.8333333333333144,0.8222222222222513,0.8500000000001364,0.9803921568625654,0.03389239034357533,0.9435652100632532,83.33333333333333,1.071428571414796,0.9673202614377874,0.0,0.9934865726136131,0
342,295.0416666666667,0.8222222222222513,0.8916666666666515,0.8500000000001364,0.9673202614377874,0.03540688084957056,0.9857286732460464,80.55555555555556,1.0357142857009694,1.049019607842951,0.0,0.997430225731459,0
343,295.93333333333334,0.8916666666666515,0.8833333333333258,0.8500000000001364,1.049019607842951,0.03615885724387655,1.0066637196462314,44.44444444444444,0.5714285714212245,1.039215686274334,0.0,0.9940769575731465,0
344,296.81666666666666,0.8833333333333258,0.8833333333333258,0.8500000000001364,1.039215686274334,0.034741571168263104,0.9672064308536922,47.22222222222222,0.607142857135051,1.039215686274334,0.0,0.9949453363784474,0
345,297.7,0.8833333333333258,0.8611111111111427,0.8500000000001364,1.039215686274334,0.03853459742700893,1.0728044008501452,75.0,0.9642857142733163,1.013071895424711,0.0,0.9909700515214017,0
346,298.56111111111113,0.8611111111111427,0.8916666666666515,0.8500000000001364,1.013071895424711,0.03705026844994475,1.0314806355786872,83.33333333333333,1.071428571414796,1.049019607842951,0.0,0.9979673409210855,0
347,299.4527777777778,0.8916666666666515,0.8500000000000227,0.8500000000001364,1.049019607842951,0.03254593967527402,0.9060799812317505,41.666666666666664,0.535714285707398,0.9999999999998662,0.0,0.9899692059968757,0
348,300.3027777777778,0.8500000000000227,0.8222222222221944,0.8500000000001364,0.9999999999998662,0.033974365086330595,0.9458473894723669,75.0,0.9642857142733163,0.9673202614377205,0.0,0.9944222867928583,0
349,301.125,0.8222222222221944,0.88611111111112,0.8500000000001364,0.9673202614377205,0.03982735364824608,1.108794774591472,83.33333333333333,1.071428571414796,1.042483660130562,0.0,0.9909096606661482,0
350,302.0111111111111,0.88611111111112,0.8916666666666515,0.8500000000001364,1.042483660130562,0.03692674002287939,1.0280416002952169,86.11111111111111,1.1071428571286226,1.049019607842951,0.0,0.9945835001345454,0
351,302.90277777777777,0.8916666666666515,0.8833333333333258,0.8500000000001364,1.049019607842951,0.038721058894726254,1.0779954939590073,80.55555555555556,1.0357142857009694,1.039215686274334,0.0,0.9979288972424515,0
352,303.7861111111111,0.8833333333333258,0.8500000000000227,0.8500000000001364,1.039215686274334,0.03890992457463214,1.0832535204105973,80.55555555555556,1.0357142857009694,0.9999999999998662,0.0,0.9967801933968997,0
353,304.6361111111111,0.8500000000000227,0.8416666666666401,0.8500000000001364,0.9999999999998662,0.034895415456987836,0.9714894606764942,77.77777777777777,0.9999999999871428,0.9901960784311824,0.0,0.9965004649162057,0
354,305.47777777777776,0.8416666666666401,0.8194444444444571,0.8500000000001364,0.9901960784311824,0.03382095433975596,0.9415764294766198,72.22222222222223,0.9285714285594899,0.9640522875815595,0.0,0.9898211317326713,0
355,306.2972222222222,0.8194444444444571,0.8138888888888687,0.8500000000001364,0.9640522875815595,0.029273256528064756,0.8149683797789382,33.333333333333336,0.4285714285659184,0.9575163398691036,0.0,0.950740339123787,0
356,307.1111111111111,0.8138888888888687,0.9027777777778283,0.8500000000001364,0.9575163398691036,0.03373514868672512,0.939187597405293,38.888888888888886,0.4999999999935714,1.0620915032678628,0.0,0.9626305583491314,0
357,308.0138888888889,0.9027777777778283,0.8944444444444457,0.8500000000001364,1.0620915032678628,0.034458892573136765,0.959336649900301,44.44444444444444,0.5714285714212245,1.052287581699179,0.0,0.9955134657259652,0
358,308.90833333333336,0.8944444444444457,0.8694444444444116,0.8500000000001364,1.052287581699179,0.031463500861861504,0.8759448507200188,38.888888888888886,0.4999999999935714,1.0228758169932612,0.0,0.9828957701965687,0
359,309.77777777777777,0.8694444444444116,0.8444444444444343,0.8500000000001364,1.0228758169932612,0.03074557776478964,0.855957849182776,33.333333333333336,0.4285714285659184,0.9934640522874104,0.0,0.9559412964448941,0
360,310.6222222222222,0.8444444444444343,0.8500000000000227,0.8500000000001364,0.9934640522874104,0.0360955264534903,1.0049005884557636,41.666666666666664,0.535714285707398,0.9999999999998662,0.0,0.9866726617954448,0
361,311.47222222222223,0.8500000000000227,0.8499999999999659,0.8500000000001364,0.9999999999998662,0.035714708917506444,0.994298616311167,80.55555555555556,1.0357142857009694,0.9999999999997994,0.0,0.9991568367153518,0
362,312.3222222222222,0.8499999999999659,0.8611111111111427,0.8500000000001364,0.9999999999997994,0.03207741883805443,0.8930363464302908,41.666666666666664,0.535714285707398,1.013071895424711,0.0,0.9883177118390929,0
363,313.18333333333334,0.8611111111111427,0.8805555555555316,0.8500000000001364,1.013071895424711,0.034609205827806626,0.9635213756242789,38.888888888888886,0.4999999999935714,1.0359477124181062,0.0,0.9914987513790849,0
364,314.06388888888887,0.8805555555555316,0.8722222222222626,0.8500000000001364,1.0359477124181062,0.03879668412068116,1.080100902621272,86.11111111111111,1.1071428571286226,1.026143790849556,0.0,0.9932261373130377,0
365,314.93611111111113,0.8722222222222626,0.9111111111110972,0.8500000000001364,1.026143790849556,0.03841410191798671,1.0694498021001109,86.11111111111111,1.1071428571286226,1.071895424836413,0.0,0.9961033239855708,0
366,315.84722222222223,0.9111111111110972,0.8777777777777942,0.8500000000001364,1.071895424836413,0.035471228966643016,0.9875201268433627,75.0,0.9642857142733163,1.032679738561945,0.0,0.9941181056037225,0
367,316.725,0.8777777777777942,0.8666666666666174,0.8500000000001364,1.032679738561945,0.034473925472972664,0.9597551663031786,75.0,0.9642857142733163,1.0196078431370332,0.0,0.9948645181718896,0
368,317.59166666666664,0.8666666666666174,0.8222222222222513,0.8500000000001364,1.0196078431370332,0.03223604266945876,0.8974524388711841,36.111111111111114,0.46428571427974497,0.9673202614377874,0.0,0.9803410037066186,0
369,318.4138888888889,0.8222222222222513,0.8388888888889028,0.8500000000001364,0.9673202614377874,0.03732162527818285,1.0390352181868483,80.55555555555556,1.0357142857009694,0.9869281045750213,0.0,0.9984942958317842,0
370,319.2527777777778,0.8388888888889028,0.9111111111110972,0.8500000000001364,0.9869281045750213,0.03789381098665414,1.0549648862549859,80.55555555555556,1.0357142857009694,1.071895424836413,0.0,0.9975231977458451,0
371,320.1638888888889,0.9111111111110972,0.9027777777777715,0.8500000000001364,1.071895424836413,0.03626384301193612,1.0095865267214652,83.33333333333333,1.071428571414796,1.062091503267796,0.0,0.9977855641991519,0
372,321.06666666666666,0.9027777777777715,0.8527777777777601,0.8500000000001364,1.062091503267796,0.03469383351749755,0.9658774131592803,41.666666666666664,0.535714285707398,1.0032679738560273,0.0,0.9928144178078842,0
373,321.9194444444444,0.8527777777777601,0.8694444444444684,0.8500000000001364,1.0032679738560273,0.03382836664411101,0.9417827882623215,69.44444444444444,0.8928571428456633,1.022875816993328,0.0,0.9860651950103281,0
374,322.7888888888889,0.8694444444444684,0.8444444444444343,0.8500000000001364,1.022875816993328,0.03714972181982109,1.0342494205149984,77.77777777777777,0.9999999999871428,0.9934640522874104,0.0,0.9981236416383679,0
375,323.6333333333333,0.8444444444444343,0.8527777777777601,0.8500000000001364,0.9934640522874104,0.033900304144139526,0.9437855305191448,75.0,0.9642857142733163,1.0032679738560273,0.0,0.9944161416343308,0
376,324.4861111111111,0.8527777777777601,0.8111111111111313,0.8500000000001364,1.0032679738560273,0.034794970313166786,0.9686930647224594,36.111111111111114,0.46428571427974497,0.9542483660129425,0.0,0.9830374193556096,0
377,325.2972222222222,0.8111111111111313,0.88611111111112,0.8500000000001364,0.9542483660129425,0.0371741069147038,1.034928302321273,41.666666666666664,0.535714285707398,1.042483660130562,0.0,0.9784165846637173,0
378,326.18333333333334,0.88611111111112,0.8833333333333258,0.8500000000001364,1.042483660130562,0.039551818592628823,1.1011238700020418,83.33333333333333,1.071428571414796,1.039215686274334,0.0,0.9971787395672735,0
379,327.06666666666666,0.8833333333333258,0.8527777777777601,0.8500000000001364,1.039215686274334,0.03822999107966388,1.0643241505873096,80.55555555555556,1.0357142857009694,1.0032679738560273,0.0,0.9985140062632007,0
380,327.9194444444444,0.8527777777777601,0.8666666666666742,0.8500000000001364,1.0032679738560273,0.03510020025595452,0.977190675901976,69.44444444444444,0.8928571428456633,1.0196078431371,0.0,0.9895461061386116,0
381,328.7861111111111,0.8666666666666742,0.8555555555555543,0.8500000000001364,1.0196078431371,0.039216580667254426,1.0917908356462334,80.55555555555556,1.0357142857009694,1.0065359477122553,0.0,0.9958576131823521,0
382,329.64166666666665,0.8555555555555543,0.8277777777777828,0.8500000000001364,1.0065359477122553,0.03563734997168525,0.9921449408334537,75.0,0.9642857142733163,0.9738562091501765,0.0,0.99433822824837,0
383,330.46944444444443,0.8277777777777828,0.8333333333333712,0.8500000000001364,0.9738562091501765,0.03548240377356899,0.9878312338186345,122.22222222222223,1.5714285714083676,0.9803921568626324,0.0,0.9660520831046341,0
384,331.3027777777778,0.8333333333333712,0.8833333333333258,0.8500000000001364,0.9803921568626324,0.03957003237183819,1.1016309421864323,80.55555555555556,1.0357142857009694,1.039215686274334,0.0,0.9978345193799381,0
385,332.18611111111113,0.8833333333333258,0.8999999999999773,0.8500000000001364,1.039215686274334,0.037806171033807186,1.052524987219253,80.55555555555556,1.0357142857009694,1.058823529411568,0.0,0.9989125287384966,0
386,333.0861111111111,0.8999999999999773,0.8555555555555543,0.8500000000001364,1.058823529411568,0.03508807279385641,0.9768530469768356,41.666666666666664,0.535714285707398,1.0065359477122553,0.0,0.9935637463241702,0
387,333.94166666666666,0.8555555555555543,0.8666666666666742,0.8500000000001364,1.0065359477122553,0.03432661481788091,0.9556540330456196,69.44444444444444,0.8928571428456633,1.0196078431371,0.0,0.9867722621884955,0
388,334.80833333333334,0.8666666666666742,0.8444444444444343,0.8500000000001364,1.0196078431371,0.03482515931432658,0.9695335274615043,72.22222222222223,0.9285714285594899,0.9934640522874104,0.0,0.993847532981174,0
389,335.65277777777777,0.8444444444444343,0.8166666666666629,0.8500000000001364,0.9934640522874104,0.03507046801604963,0.976362929410592,41.666666666666664,0.535714285707398,0.9607843137253316,0.0,0.9950547011934947,0
390,336.46944444444443,0.8166666666666629,0.8138888888889255,0.8500000000001364,0.9607843137253316,0.037666770069856345,1.0486440600111127,86.11111111111111,1.1071428571286226,0.9575163398691705,0.0,0.9975893537794245,0
391,337.28333333333336,0.8138888888889255,0.9027777777777715,0.8500000000001364,0.9575163398691705,0.03899596009884945,1.0856487521029645,88.88888888888889,1.142857142842449,1.062091503267796,0.0,0.9962824554064691,0
392,338.18611111111113,0.9027777777777715,0.8861111111110631,0.8500000000001364,1.062091503267796,0.03611882247201664,1.0055491503421226,83.33333333333333,1.071428571414796,1.0424836601304952,0.0,0.9982331320405202,0
393,339.0722222222222,0.8861111111110631,0.8444444444444912,0.8500000000001364,1.0424836601304952,0.035445833397579576,0.9868131134042069,36.111111111111114,0.46428571427974497,0.9934640522874773,0.0,0.9824733486212658,0
394,339.9166666666667,0.8444444444444912,0.8555555555555543,0.8500000000001364,0.9934640522874773,0.03284226387449553,0.9143296562310905,66.66666666666667,0.8571428571318368,1.0065359477122553,0.0,0.9811734808646428,0
395,340.77222222222224,0.8555555555555543,0.8583333333332916,0.8500000000001364,1.0065359477122553,0.03449786718330328,0.960421704269618,77.77777777777777,0.9999999999871428,1.0098039215684163,0.0,0.9952374066531514,0
396,341.63055555555553,0.8583333333332916,0.8500000000000227,0.8500000000001364,1.0098039215684163,0.03398341653762074,0.9460993821601469,75.0,0.9642857142733163,0.9999999999998662,0.0,0.9954907186161974,0
397,342.48055555555555,0.8500000000000227,0.8083333333333371,0.8500000000001364,0.9999999999998662,0.03473585941283768,0.9670474154035222,36.111111111111114,0.46428571427974497,0.9509803921567146,0.0,0.9870804805802739,0
398,343.2888888888889,0.8083333333333371,0.8722222222222058,0.8500000000001364,0.9509803921567146,0.03983237151587906,1.1089344721837393,83.33333333333333,1.071428571414796,1.0261437908494893,0.0,0.9914222051248861,0
399,344.1611111111111,0.8722222222222058,0.8916666666667084,0.8500000000001364,1.0261437908494893,0.037505056040358524,1.044141936358385,80.55555555555556,1.0357142857009694,1.0490196078430178,0.0,0.9986972033311503,0
400,345.0527777777778,0.8916666666667084,0.8472222222221717,0.8500000000001364,1.0490196078430178,0.037716629113546445,1.0500321373510728,83.33333333333333,1.071428571414796,0.9967320261435715,0.0,0.9990036420433311,0
401,345.9,0.8472222222221717,0.8666666666666742,0.8500000000001364,0.9967320261435715,0.033443946122934,0.9310805088969544,63.888888888888886,0.8214285714180102,1.0196078431371,0.0,0.9854182791481538,0
402,346.76666666666665,0.8666666666666742,0.8388888888889028,0.8500000000001364,1.0196078431371,0.03454497209292466,0.961733106430733,77.77777777777777,0.9999999999871428,0.9869281045750213,0.0,0.9951681846832902,0
403,347.60555555555555,0.8388888888889028,0.8083333333333371,0.8500000000001364,0.9869281045750213,0.0341301728802709,0.950185083341948,36.111111111111114,0.46428571427974497,0.9509803921567146,0.0,0.9893509000040146,0
404,348.4138888888889,0.8083333333333371,0.8055555555555429,0.8500000000001364,0.9509803921567146,0.03682800493466272,1.0252928123428369,77.77777777777777,0.9999999999871428,0.9477124183004866,0.0,0.9988430054173386,0
405,349.21944444444443,0.8055555555555429,0.9111111111110972,0.8500000000001364,0.9477124183004866,0.03655603069826913,1.0177210410722644,83.33333333333333,1.071428571414796,1.071895424836413,0.0,0.9989313766483301,0
406,350.13055555555553,0.9111111111110972,0.8972222222222399,0.8500000000001364,1.071895424836413,0.03501485138115287,0.9748145605508749,77.77777777777777,0.9999999999871428,1.055555555555407,0.0,0.9960480506582874,0
407,351.02777777777777,0.8972222222222399,0.8666666666666742,0.8500000000001364,1.055555555555407,0.03420815279056067,0.9523560464899405,75.0,0.9642857142733163,1.0196078431371,0.0,0.9951437302720382,0
408,351.89444444444445,0.8666666666666742,0.830555555555577,0.8500000000001364,1.0196078431371,0.03307745036229231,0.9208772554270285,66.66666666666667,0.8571428571318368,0.9771241830064044,0.0,0.9772519324737503,0
409,352.725,0.830555555555577,0.8583333333332916,0.8500000000001364,0.9771241830064044,0.037989832001937916,1.0576381143317979,80.55555555555556,1.0357142857009694,1.0098039215684163,0.0,0.9971584593215489,0
410,353.5833333333333,0.8583333333332916,0.841666666666697,0.8500000000001364,1.0098039215684163,0.03771064801281631,1.0498656233191728,80.55555555555556,1.0357142857009694,0.9901960784312492,0.0,0.9983482105728425,0
411,354.425,0.841666666666697,0.8361111111111086,0.8500000000001364,0.9901960784312492,0.036419876517064215,1.0139305043975928,77.77777777777777,0.9999999999871428,0.9836601307187934,0.0,0.9983499533295969,0
412,355.2611111111111,0.8361111111111086,0.8999999999999773,0.8500000000001364,0.9836601307187934,0.036659497245619746,1.0206015529953165,80.55555555555556,1.0357142857009694,1.058823529411568,0.0,0.9991400885458179,0
413,356.1611111111111,0.8999999999999773,0.8888888888889142,0.8500000000001364,1.058823529411568,0.03533235320402449,0.9836538212567847,77.77777777777777,0.9999999999871428,1.04575163398679,0.0,0.9958672920631177,0
414,357.05,0.8888888888889142,0.8583333333333485,0.8500000000001364,1.04575163398679,0.037249107191287795,1.0370163123734526,77.77777777777777,0.9999999999871428,1.0098039215684833,0.0,0.9906053435354027,0
415,357.90833333333336,0.8583333333333485,0.8916666666666515,0.8500000000001364,1.0098039215684833,0.03318483016579173,0.9238667125239869,69.44444444444444,0.8928571428456633,1.049019607842951,0.0,0.985883326331209,0
416,358.8,0.8916666666666515,0.8499999999999659,0.8500000000001364,1.049019607842951,0.035326130588649696,0.9834805834496032,77.77777777777777,0.9999999999871428,0.9999999999997994,0.0,0.9964758530592964,0
417,359.65,0.8499999999999659,0.830555555555577,0.8500000000001364,0.9999999999997994,0.03337680400616604,0.9292112702604928,75.0,0.9642857142733163,0.9771241830064044,0.0,0.9933152141125822,0
418,360.48055555555555,0.830555555555577,0.8249999999999886,0.8500000000001364,0.9771241830064044,0.03494853603332187,0.9729683391875463,75.0,0.9642857142733163,0.9705882352939484,0.0,0.9966634392966662,0
419,361.30555555555554,0.8249999999999886,0.9055555555555657,0.8500000000001364,0.9705882352939484,0.03380310441762128,0.9410794870845994,77.77777777777777,0.9999999999871428,1.065359477124024,0.0,0.9948445374900905,0
420,362.2111111111111,0.9055555555555657,0.8944444444444457,0.8500000000001364,1.065359477124024,0.03654498225410466,1.0174134520402356,77.77777777777777,0.9999999999871428,1.052287581699179,0.0,0.9958725745765126,0
421,363.10555555555555,0.8944444444444457,0.8722222222222058,0.8500000000001364,1.052287581699179,0.035227250923549815,0.9807277704722607,80.55555555555556,1.0357142857009694,1.0261437908494893,0.0,0.9973107804624342,0
422,363.97777777777776,0.8722222222222058,0.8722222222222626,0.8500000000001364,1.0261437908494893,0.03528234559099496,0.9822616077417556,77.77777777777777,0.9999999999871428,1.026143790849556,0.0,0.9960373609164277,0
423,364.85,0.8722222222222626,0.8527777777777601,0.8500000000001364,1.026143790849556,0.03700078796344061,1.0301030972826561,77.77777777777777,0.9999999999871428,1.0032679738560273,0.0,0.990034580833682,0
424,365.7027777777778,0.8527777777777601,0.8583333333333485,0.8500000000001364,1.0032679738560273,0.037231016133194725,1.0365126567487886,77.77777777777777,0.9999999999871428,1.0098039215684833,0.0,0.996947995746085,0
425,366.56111111111113,0.8583333333333485,0.8666666666666742,0.8500000000001364,1.0098039215684833,0.034876489338168844,0.9709625569350322,77.77777777777777,0.9999999999871428,1.0196078431371,0.0,0.9960805533678303,0
426,367.4277777777778,0.8666666666666742,0.908333333333303,0.8500000000001364,1.0196078431371,0.03373910180385837,0.9392976523102563,77.77777777777777,0.9999999999871428,1.068627450980185,0.0,0.9950168258540733,0
427,368.3361111111111,0.908333333333303,0.8888888888889142,0.8500000000001364,1.068627450980185,0.03828919206440308,1.0659723078590488,83.33333333333333,1.071428571414796,1.04575163398679,0.0,0.992818619597739,0
428,369.225,0.8888888888889142,0.8611111111110858,0.8500000000001364,1.04575163398679,0.03828474111581615,1.065848393310803,80.55555555555556,1.0357142857009694,1.0130718954246443,0.0,0.9994762708917239,0
429,370.0861111111111,0.8611111111110858,0.8611111111110858,0.8500000000001364,1.0130718954246443,0.036736550036736634,1.0227467051164605,77.77777777777777,0.9999999999871428,1.0130718954246443,0.0,0.9966906385993177,0
430,370.9472222222222,0.8611111111110858,0.8472222222222285,0.8500000000001364,1.0130718954246443,0.034520236260305245,0.9610444600748688,75.0,0.9642857142733163,0.9967320261436383,0.0,0.9928253253316384,0
431,371.7944444444444,0.8472222222222285,0.8527777777778169,0.8500000000001364,0.9967320261436383,0.03357815434043598,0.9348168698811089,72.22222222222223,0.9285714285594899,1.0032679738560941,0.0,0.9924200012192648,0
432,372.64722222222224,0.8527777777778169,0.8416666666666401,0.8500000000001364,1.0032679738560941,0.0331466374825278,0.9228034270241596,69.44444444444444,0.8928571428456633,0.9901960784311824,0.0,0.9812089280957313,0
433,373.4888888888889,0.8416666666666401,0.8833333333333258,0.8500000000001364,0.9901960784311824,0.03302269957573564,0.9193529918122533,38.888888888888886,0.4999999999935714,1.039215686274334,0.0,0.9853490453172478,0
434,374.3722222222222,0.8833333333333258,0.9027777777777715,0.8500000000001364,1.039215686274334,0.03227453625626799,0.8985241015351492,38.888888888888886,0.4999999999935714,1.062091503267796,0.0,0.9868991719721654,0
435,375.275,0.9027777777777715,0.8555555555555543,0.8500000000001364,1.062091503267796,0.0343944939421679,0.9575437899945244,38.888888888888886,0.4999999999935714,1.0065359477122553,0.0,0.9863565738343327,0
436,376.13055555555553,0.8555555555555543,0.8583333333333485,0.8500000000001364,1.0065359477122553,0.03453203508670462,0.9613729397718499,80.55555555555556,1.0357142857009694,1.0098039215684833,0.0,0.993373510709948,0
437,376.9888888888889,0.8583333333333485,0.8222222222222513,0.8500000000001364,1.0098039215684833,0.03499850311868187,0.9743594244109849,41.666666666666664,0.535714285707398,0.9673202614377874,0.0,0.9942223099940086,0
438,377.81111111111113,0.8222222222222513,0.8388888888888459,0.8500000000001364,0.9673202614377874,0.03885040891414169,1.0815966025560746,80.55555555555556,1.0357142857009694,0.9869281045749545,0.0,0.9941386564351319,0
439,378.65,0.8388888888888459,0.8500000000000227,0.8500000000001364,0.9869281045749545,0.03882600007090596,1.0809170595949071,80.55555555555556,1.0357142857009694,0.9999999999998662,0.0,0.9951934011168806,0
440,379.5,0.8500000000000227,0.9138888888888914,0.8500000000001364,0.9999999999998662,0.037896355351277604,1.0550357214458967,86.11111111111111,1.1071428571286226,1.0751633986926408,0.0,0.9972536406162436,0
441,380.4138888888889,0.9138888888888914,0.919444444444423,0.8500000000001364,1.0751633986926408,0.03528313154067867,0.9822834886055982,77.77777777777777,0.9999999999871428,1.08169934640503,0.0,0.9971161081760637,0
442,381.3333333333333,0.919444444444423,0.8611111111111427,0.8500000000001364,1.08169934640503,0.03304028494490116,0.9198425690413156,41.666666666666664,0.535714285707398,1.013071895424711,0.0,0.9884968370111669,0
443,382.19444444444446,0.8611111111111427,0.8722222222222058,0.8500000000001364,1.013071895424711,0.03223583101409706,0.8974465463792767,36.111111111111114,0.46428571427974497,1.0261437908494893,0.0,0.9826254061486492,0
444,383.06666666666666,0.8722222222222058,0.8555555555555543,0.8500000000001364,1.0261437908494893,0.031035490619186687,0.864029032141137,36.111111111111114,0.46428571427974497,1.0065359477122553,0.0,0.9763972305910069,0
445,383.9222222222222,0.8555555555555543,0.8249999999999886,0.8500000000001364,1.0065359477122553,0.03809380076748746,1.0605326080252582,80.55555555555556,1.0357142857009694,0.9705882352939484,0.0,0.9946504667919163,0
446,384.7472222222222,0.8249999999999886,0.841666666666697,0.8500000000001364,0.9705882352939484,0.04092541436887125,1.1393648194899222,83.33333333333333,1.071428571414796,0.9901960784312492,0.0,0.9937194106863003,0
447,385.5888888888889,0.841666666666697,0.8833333333333258,0.8500000000001364,0.9901960784312492,0.03884042234963454,1.0813185762870074,80.55555555555556,1.0357142857009694,1.039215686274334,0.0,0.9957979316625813,0
448,386.47222222222223,0.8833333333333258,0.8999999999999773,0.8500000000001364,1.039215686274334,0.03710160845711527,1.0329099429883868,80.55555555555556,1.0357142857009694,1.058823529411568,0.0,0.9982445943296845,0
449,387.3722222222222,0.8999999999999773,0.8388888888889028,0.8500000000001364,1.058823529411568,0.036102797591096254,1.0051030171547433,80.55555555555556,1.0357142857009694,0.9869281045750213,0.0,0.9976097378552397,0
450,388.2111111111111,0.8388888888889028,0.86388888888888,0.8500000000001364,0.9869281045750213,0.0348361114271729,0.9698384346266147,77.77777777777777,0.9999999999871428,1.0163398692808723,0.0,0.9972201465175163,0
451,389.075,0.86388888888888,0.830555555555577,0.8500000000001364,1.0163398692808723,0.033229615753470505,0.9251135446894831,75.0,0.9642857142733163,0.9771241830064044,0.0,0.9933349132297367,0
452,389.90555555555557,0.830555555555577,0.8249999999999886,0.8500000000001364,0.9771241830064044,0.03200261541644426,0.8909538168267561,72.22222222222223,0.9285714285594899,0.9705882352939484,0.0,0.9848444064462025,0
453,390.73055555555555,0.8249999999999886,0.8444444444444343,0.8500000000001364,0.9705882352939484,0.031385795839065915,0.873781540448485,36.111111111111114,0.46428571427974497,0.9934640522874104,0.0,0.9806614982538925,0
454,391.575,0.8444444444444343,0.9000000000000341,0.8500000000001364,0.9934640522874104,0.032527040164344045,0.9055538182547531,38.888888888888886,0.4999999999935714,1.0588235294116348,0.0,0.9830465435215676,0
455,392.475,0.9000000000000341,0.86388888888888,0.8500000000001364,1.0588235294116348,0.033540976441487576,0.9337818360084505,38.888888888888886,0.4999999999935714,1.0163398692808723,0.0,0.9883990203822817,0
456,393.3388888888889,0.86388888888888,0.8361111111111086,0.8500000000001364,1.0163398692808723,0.03939561183702532,1.0967750690272455,88.88888888888889,1.142857142842449,0.9836601307187934,0.0,0.9915199518415458,0
457,394.175,0.8361111111111086,0.8555555555555543,0.8500000000001364,0.9836601307187934,0.03690624758844102,1.02747109027779,77.77777777777777,0.9999999999871428,1.0065359477122553,0.0,0.9986133149325662,0
458,395.03055555555557,0.8555555555555543,0.8416666666666401,0.8500000000001364,1.0065359477122553,0.03511313922147586,0.9775508971078686,75.0,0.9642857142733163,0.9901960784311824,0.0,0.9962394183100274,0
459,395.8722222222222,0.8416666666666401,0.841666666666697,0.8500000000001364,0.9901960784311824,0.03212402310181011,0.8943338105948038,72.22222222222223,0.9285714285594899,0.9901960784312492,0.0,0.9877114891731427,0
460,396.7138888888889,0.841666666666697,0.8472222222222285,0.8500000000001364,0.9901960784312492,0.035039973318752075,0.975513956081485,72.22222222222223,0.9285714285594899,0.9967320261436383,0.0,0.9925926744003621,0
461,397.56111111111113,0.8472222222222285,0.9027777777777715,0.8500000000001364,0.9967320261436383,0.037780236244393,1.051802961868622,83.33333333333333,1.071428571414796,1.062091503267796,0.0,0.9946146638827782,0
462,398.4638888888889,0.9027777777777715,0.8916666666666515,0.8500000000001364,1.062091503267796,0.03782238494099293,1.052976382903788,86.11111111111111,1.1071428571286226,1.049019607842951,0.0,0.9987797643393017,0
463,399.35555555555555,0.8916666666666515,0.8666666666666742,0.8500000000001364,1.049019607842951,0.03593903560161509,1.0005438782318534,80.55555555555556,1.0357142857009694,1.0196078431371,0.0,0.9973470054243647,0
464,400.22222222222223,0.8666666666666742,0.8833333333333258,0.8500000000001364,1.0196078431371,0.035776005096224424,0.996005103848983,77.77777777777777,0.9999999999871428,1.039215686274334,0.0,0.9976792288747389,0
465,401.10555555555555,0.8833333333333258,0.8472222222222285,0.8500000000001364,1.039215686274334,0.039202102053889666,1.091387750596095,83.33333333333333,1.071428571414796,0.9967320261436383,0.0,0.9935248135574786,0
466,401.9527777777778,0.8472222222222285,0.8416666666666401,0.8500000000001364,0.9967320261436383,0.0431091491486227,1.2001600642422354,86.11111111111111,1.1071428571286226,0.9901960784311824,0.0,0.9882973843666919,0
467,402.7944444444444,0.8416666666666401,0.8722222222222626,0.8500000000001364,0.9901960784311824,0.037586307525053306,1.0464039802404128,72.22222222222223,0.9285714285594899,1.026143790849556,0.0,0.9916591609872958,0
468,403.6666666666667,0.8722222222222626,0.9027777777777715,0.8500000000001364,1.026143790849556,0.03720709744475835,1.0358467597126066,83.33333333333333,1.071428571414796,1.062091503267796,0.0,0.9991821984931015,0
469,404.56944444444446,0.9027777777777715,0.9222222222222172,0.8500000000001364,1.062091503267796,0.035254847317482664,0.9814960549448009,80.55555555555556,1.0357142857009694,1.0849673202612578,0.0,0.997079778050443,0
470,405.4916666666667,0.9222222222222172,0.8722222222222058,0.8500000000001364,1.0849673202612578,0.03246816515573977,0.9039147361688329,38.888888888888886,0.4999999999935714,1.0261437908494893,0.0,0.9845145077093842,0
471,406.3638888888889,0.8722222222222058,0.841666666666697,0.8500000000001364,1.0261437908494893,0.03759934879443364,1.046767049588948,77.77777777777777,0.9999999999871428,0.9901960784312492,0.0,0.9877094843951072,0
472,407.2055555555556,0.841666666666697,0.8249999999999886,0.8500000000001364,0.9901960784312492,0.03987107519739983,1.1100119838910623,83.33333333333333,1.071428571414796,0.9705882352939484,0.0,0.9961941883976709,0
473,408.03055555555557,0.8249999999999886,0.8361111111111086,0.8500000000001364,0.9705882352939484,0.03802834993331327,1.0587104547492474,80.55555555555556,1.0357142857009694,0.9836601307187934,0.0,0.9977510929259815,0
474,408.8666666666667,0.8361111111111086,0.8916666666666515,0.8500000000001364,0.9836601307187934,0.03398770970776668,0.9462189041516479,72.22222222222223,0.9285714285594899,1.049019607842951,0.0,0.9903271015403714,0
475,409.7583333333333,0.8916666666666515,0.9083333333333599,0.8500000000001364,1.049019607842951,0.03447767775514453,0.9598596299565185,38.888888888888886,0.4999999999935714,1.0686274509802518,0.0,0.9760280012860417,0
476,410.6666666666667,0.9083333333333599,0.8805555555555316,0.8500000000001364,1.0686274509802518,0.03499615084064578,0.9742939369166904,44.44444444444444,0.5714285714212245,1.0359477124181062,0.0,0.9673053768385134,0
477,411.5472222222222,0.8805555555555316,0.8527777777777601,0.8500000000001364,1.0359477124181062,0.03467379502834243,0.9653195409927754,44.44444444444444,0.5714285714212245,1.0032679738560273,0.0,0.9976184356566485,0
478,412.4,0.8527777777777601,0.8611111111111427,0.8500000000001364,1.0032679738560273,0.032939657773980745,0.9170411054471258,38.888888888888886,0.4999999999935714,1.013071895424711,0.0,0.9904860050753967,0
479,413.2611111111111,0.8611111111111427,0.8361111111111086,0.8500000000001364,1.013071895424711,0.03403735219368479,0.9476009525164443,36.111111111111114,0.46428571427974497,0.9836601307187934,0.0,0.9842669029866876,0
480,414.09722222222223,0.8361111111111086,0.8138888888888687,0.8500000000001364,0.9836601307187934,0.03892781994814861,1.0837517281705122,83.33333333333333,1.071428571414796,0.9575163398691036,0.0,0.9954146868594822,0
481,414.9111111111111,0.8138888888888687,0.8916666666667084,0.8500000000001364,0.9575163398691036,0.045322495807106615,1.261779704627118,86.11111111111111,1.1071428571286226,1.0490196078430178,0.0,0.9825043697783262,0
482,415.8027777777778,0.8916666666667084,0.8944444444443889,0.8500000000001364,1.0490196078430178,0.04467496862407098,1.2437525275443275,88.88888888888889,1.142857142842449,1.0522875816991122,0.0,0.9844635059611522,0
483,416.6972222222222,0.8944444444443889,0.9250000000000114,0.8500000000001364,1.0522875816991122,0.042512252727093906,1.1835424491476252,88.88888888888889,1.142857142842449,1.0882352941174858,0.0,0.9907958506808341,0
484,417.6222222222222,0.9250000000000114,0.86388888888888,0.8500000000001364,1.0882352941174858,0.03667302876630798,1.0209782709556383,83.33333333333333,1.071428571414796,1.0163398692808723,0.0,0.9971797852173301,0
485,418.4861111111111,0.86388888888888,0.8472222222222285,0.8500000000001364,1.0163398692808723,0.03472509364293403,0.9667476960317797,75.0,0.9642857142733163,0.9967320261436383,0.0,0.9935007385795616,0
486,419.3333333333333,0.8472222222222285,0.8555555555555543,0.8500000000001364,0.9967320261436383,0.032061850145269855,0.892602913534919,38.888888888888886,0.4999999999935714,1.0065359477122553,0.0,0.9827359488345929,0
487,420.18888888888887,0.8555555555555543,0.8472222222222285,0.8500000000001364,1.0065359477122553,0.03778086640415818,1.051820505536247,83.33333333333333,1.071428571414796,0.9967320261436383,0.0,0.9972432756444877,0
488,421.0361111111111,0.8472222222222285,0.9000000000000341,0.8500000000001364,0.9967320261436383,0.03631828124986121,1.0111020889725353,80.55555555555556,1.0357142857009694,1.0588235294116348,0.0,0.9962751022564675,0
489,421.93611111111113,0.9000000000000341,0.919444444444423,0.8500000000001364,1.0588235294116348,0.037474522946506376,1.0432918940679938,88.88888888888889,1.142857142842449,1.08169934640503,0.0,0.9973365573531864,0
490,422.85555555555555,0.919444444444423,0.8916666666666515,0.8500000000001364,1.08169934640503,0.038963565488131444,1.084746885124649,86.11111111111111,1.1071428571286226,1.049019607842951,0.0,0.9974355231171899,0
491,423.7472222222222,0.8916666666666515,0.8527777777778169,0.8500000000001364,1.049019607842951,0.03930327389988606,1.0942043779614816,80.55555555555556,1.0357142857009694,1.0032679738560941,0.0,0.99547543409895,0
492,424.6,0.8527777777778169,0.8694444444444116,0.8500000000001364,1.0032679738560941,0.04102262018017334,1.1420710323250403,80.55555555555556,1.0357142857009694,1.0228758169932612,0.0,0.9946915885809597,0
493,425.46944444444443,0.8694444444444116,0.8666666666666742,0.8500000000001364,1.0228758169932612,0.04040718026014368,1.124937165650624,83.33333333333333,1.071428571414796,1.0196078431371,0.0,0.9938985585180727,0
494,426.3361111111111,0.8666666666666742,0.841666666666697,0.8500000000001364,1.0196078431371,0.03783116083211961,1.053220703987975,80.55555555555556,1.0357142857009694,0.9901960784312492,0.0,0.9961025203725958,0
495,427.1777777777778,0.841666666666697,0.8777777777777374,0.8500000000001364,0.9901960784312492,0.040488787160126154,1.1272091043054073,86.11111111111111,1.1071428571286226,1.0326797385618782,0.0,0.9974298210672656,0
496,428.05555555555554,0.8777777777777374,0.9000000000000341,0.8500000000001364,1.0326797385618782,0.041362885721980915,1.1515440356800195,88.88888888888889,1.142857142842449,1.0588235294116348,0.0,0.9936536532050739,0
497,428.9555555555556,0.9000000000000341,0.8944444444444457,0.8500000000001364,1.0588235294116348,0.039557581429289564,1.1012843075554049,83.33333333333333,1.071428571414796,1.052287581699179,0.0,0.996712445331676,0
498,429.85,0.8944444444444457,0.8777777777777374,0.8500000000001364,1.052287581699179,0.03569705408089875,0.9938071051063362,72.22222222222223,0.9285714285594899,1.0326797385618782,0.0,0.9912595904702715,0
499,430.72777777777776,0.8777777777777374,0.8472222222222285,0.8500000000001364,1.0326797385618782,0.037780394948398625,1.0518073801931156,80.55555555555556,1.0357142857009694,0.9967320261436383,0.0,0.9960809875883933,0
500,431.575,0.8472222222222285,0.841666666666697,0.8500000000001364,0.9967320261436383,0.03916510068000703,1.0903576311868037,80.55555555555556,1.0357142857009694,0.9901960784312492,0.0,0.9955600670284639,0
501,432.4166666666667,0.841666666666697,0.8333333333333144,0.8500000000001364,0.9901960784312492,0.03723830790774994,1.036715659981083,77.77777777777777,0.9999999999871428,0.9803921568625654,0.0,0.9978839686054284,0
502,433.25,0.8333333333333144,0.8972222222222399,0.8500000000001364,0.9803921568625654,0.03646607486384534,1.015216667820804,80.55555555555556,1.0357142857009694,1.055555555555407,0.0,0.9985774865815749,0
503,434.14722222222224,0.8972222222222399,0.8999999999999773,0.8500000000001364,1.055555555555407,0.03891852634517193,1.083492993972185,88.88888888888889,1.142857142842449,1.058823529411568,0.0,0.9940620649967358,0
504,435.0472222222222,0.8999999999999773,0.8722222222222058,0.8500000000001364,1.058823529411568,0.037773328028427006,1.0516106369194804,83.33333333333333,1.071428571414796,1.0261437908494893,0.0,0.9985713267535636,0
505,435.9194444444444,0.8722222222222058,0.8472222222222285,0.8500000000001364,1.0261437908494893,0.03272254974032827,0.9109968109815231,66.66666666666667,0.8571428571318368,0.9967320261436383,0.0,0.9816893263712412,0
506,436.76666666666665,0.8472222222222285,0.841666666666697,0.8500000000001364,0.9967320261436383,0.038926284727298366,1.0837089875738952,86.11111111111111,1.1071428571286226,0.9901960784312492,0.0,0.9955950984182309,0
507,437.60833333333335,0.841666666666697,0.8472222222222285,0.8500000000001364,0.9901960784312492,0.038371754023415,1.0682708353871637,77.77777777777777,0.9999999999871428,0.9967320261436383,0.0,0.9960064932710123,0
508,438.4555555555556,0.8472222222222285,0.8555555555555543,0.8500000000001364,0.9967320261436383,0.03787248393312735,1.054371140415963,77.77777777777777,0.9999999999871428,1.0065359477122553,0.0,0.991130641059832,0
509,439.31111111111113,0.8555555555555543,0.9166666666666288,0.8500000000001364,1.0065359477122553,0.036265931294490725,1.009644664573276,83.33333333333333,1.071428571414796,1.078431372548802,0.0,0.9970638122173856,0
510,440.22777777777776,0.9166666666666288,0.9000000000000341,0.8500000000001364,1.078431372548802,0.038075919404101315,1.0600347903078111,83.33333333333333,1.071428571414796,1.0588235294116348,0.0,0.9975609368592906,0
511,441.1277777777778,0.9000000000000341,0.8694444444444116,0.8500000000001364,1.0588235294116348,0.039422825003489655,1.0975326844350437,83.33333333333333,1.071428571414796,1.0228758169932612,0.0,0.99576225785811,0
512,441.9972222222222,0.8694444444444116,0.9055555555555657,0.8500000000001364,1.0228758169932612,0.036519002032346495,1.0166901618517235,80.55555555555556,1.0357142857009694,1.065359477124024,0.0,0.9979836795402433,0
513,442.90277777777777,0.9055555555555657,0.8722222222222058,0.8500000000001364,1.065359477124024,0.035267314925862436,0.9818431535530899,77.77777777777777,0.9999999999871428,1.0261437908494893,0.0,0.9982493040755132,0
514,443.775,0.8722222222222058,0.8444444444444912,0.8500000000001364,1.0261437908494893,0.03888220941011213,1.082481929361186,77.77777777777777,0.9999999999871428,0.9934640522874773,0.0,0.9948848766098638,0
515,444.61944444444447,0.8444444444444912,0.8499999999999659,0.8500000000001364,0.9934640522874773,0.037424655165775464,1.0419035734885436,75.0,0.9642857142733163,0.9999999999997994,0.0,0.9949118046644249,0
516,445.46944444444443,0.8499999999999659,0.9166666666666856,0.8500000000001364,0.9999999999997994,0.03932762839477314,1.0948824078629185,83.33333333333333,1.071428571414796,1.0784313725488688,0.0,0.9977079477534436,0
517,446.3861111111111,0.9166666666666856,0.8972222222222399,0.8500000000001364,1.0784313725488688,0.036939282884215115,1.0283907939481596,80.55555555555556,1.0357142857009694,1.055555555555407,0.0,0.9988358624856066,0
518,447.28333333333336,0.8972222222222399,0.8666666666666174,0.8500000000001364,1.055555555555407,0.03682452605882549,1.0251959603304275,80.55555555555556,1.0357142857009694,1.0196078431370332,0.0,0.9986564943972591,0
519,448.15,0.8666666666666174,0.8638888888889369,0.8500000000001364,1.0196078431370332,0.03626928496108159,1.0097380307563397,80.55555555555556,1.0357142857009694,1.0163398692809391,0.0,0.9984795702463495,0
520,449.0138888888889,0.8638888888889369,0.8194444444444002,0.8500000000001364,1.0163398692809391,0.03705644350650766,1.0316525493470543,80.55555555555556,1.0357142857009694,0.9640522875814926,0.0,0.9985045168983475,0
521,449.8333333333333,0.8194444444444002,0.8277777777777828,0.8500000000001364,0.9640522875814926,0.03538080689300808,0.9850027734776423,75.0,0.9642857142733163,0.9738562091501765,0.0,0.9960876664340661,0
522,450.6611111111111,0.8277777777777828,0.8444444444444343,0.8500000000001364,0.9738562091501765,0.036155183226366426,1.006561434883529,72.22222222222223,0.9285714285594899,0.9934640522874104,0.0,0.9936393830939914,0
523,451.50555555555553,0.8444444444444343,0.8916666666667084,0.8500000000001364,0.9934640522874104,0.03977937029191231,1.1074589164463353,88.88888888888889,1.142857142842449,1.0490196078430178,0.0,0.9926551995647925,0
524,452.39722222222224,0.8916666666667084,0.8999999999999773,0.8500000000001364,1.0490196078430178,0.037914507154417465,1.0555410682145685,83.33333333333333,1.071428571414796,1.058823529411568,0.0,0.9981565043532907,0
525,453.2972222222222,0.8999999999999773,0.8555555555555543,0.8500000000001364,1.058823529411568,0.03667973247948058,1.0211649025405984,80.55555555555556,1.0357142857009694,1.0065359477122553,0.0,0.9989771283030671,0
526,454.15277777777777,0.8555555555555543,0.8777777777777942,0.8500000000001364,1.0065359477122553,0.035691448762034214,0.9936510528533592,80.55555555555556,1.0357142857009694,1.032679738561945,0.0,0.9973727060247053,0
527,455.03055555555557,0.8777777777777942,0.8472222222222285,0.8500000000001364,1.032679738561945,0.03678108217890169,1.0239864813509068,77.77777777777777,0.9999999999871428,0.9967320261436383,0.0,0.9971351897119565,0
528,455.8777777777778,0.8472222222222285,0.8499999999999659,0.8500000000001364,0.9967320261436383,0.03679423080349852,1.024352539472036,75.0,0.9642857142733163,0.9999999999997994,0.0,0.9967209660414986,0
529,456.72777777777776,0.8499999999999659,0.8555555555555543,0.8500000000001364,0.9999999999997994,0.03676635636487855,1.0235765142266868,75.0,0.9642857142733163,1.0065359477122553,0.0,0.9948952094620558,0
530,457.5833333333333,0.8555555555555543,0.9083333333333599,0.8500000000001364,1.0065359477122553,0.03550117705719964,0.9883538826236602,77.77777777777777,0.9999999999871428,1.0686274509802518,0.0,0.9984470917714436,0
531,458.4916666666667,0.9083333333333599,0.8805555555555316,0.8500000000001364,1.0686274509802518,0.03447099109633734,0.9596734731656263,44.44444444444444,0.5714285714212245,1.0359477124181062,0.0,0.9948581696167086,0
532,459.3722222222222,0.8805555555555316,0.8583333333333485,0.8500000000001364,1.0359477124181062,0.0387113211585132,1.077724395077451,88.88888888888889,1.142857142842449,1.0098039215684833,0.0,0.994409591312002,0
533,460.23055555555555,0.8583333333333485,0.86388888888888,0.8500000000001364,1.0098039215684833,0.039239615115279014,1.0924321154016203,91.66666666666667,1.1785714285562756,1.0163398692808723,0.0,0.9964483668332287,0
534,461.09444444444443,0.86388888888888,0.8444444444444343,0.8500000000001364,1.0163398692808723,0.03963055063986324,1.103315772666161,83.33333333333333,1.071428571414796,0.9934640522874104,0.0,0.9957518546935814,0
535,461.93888888888887,0.8444444444444343,0.841666666666697,0.8500000000001364,0.9934640522874104,0.0370832195528019,1.0323979953156086,75.0,0.9642857142733163,0.9901960784312492,0.0,0.9935009613199683,0
536,462.78055555555557,0.841666666666697,0.8694444444444116,0.8500000000001364,0.9901960784312492,0.0345023813674652,0.9605473792982553,72.22222222222223,0.9285714285594899,1.0228758169932612,0.0,0.9912891394091916,0
537,463.65,0.8694444444444116,0.8972222222222399,0.8500000000001364,1.0228758169932612,0.03762031974179032,1.0473508814210273,80.55555555555556,1.0357142857009694,1.055555555555407,0.0,0.998023127177657,0
538,464.5472222222222,0.8972222222222399,0.9166666666666856,0.8500000000001364,1.055555555555407,0.03738863530428853,1.0409007794151295,86.11111111111111,1.1071428571286226,1.0784313725488688,0.0,0.9900955488547384,0
539,465.4638888888889,0.9166666666666856,0.8583333333332916,0.8500000000001364,1.0784313725488688,0.03886187133511131,1.0819157167153415,83.33333333333333,1.071428571414796,1.0098039215684163,0.0,0.9983755078467569,0
540,466.3222222222222,0.8583333333332916,0.8583333333333485,0.8500000000001364,1.0098039215684163,0.03892065702415598,1.083552312141921,80.55555555555556,1.0357142857009694,1.0098039215684833,0.0,0.9966390121255616,0
541,467.18055555555554,0.8583333333333485,0.8388888888889028,0.8500000000001364,1.0098039215684833,0.03763494073020321,1.0477579301969704,83.33333333333333,1.071428571414796,0.9869281045750213,0.0,0.998778750755225,0
542,468.01944444444445,0.8388888888889028,0.8611111111110858,0.8500000000001364,0.9869281045750213,0.03913854742531442,1.0896183877434256,80.55555555555556,1.0357142857009694,1.0130718954246443,0.0,0.9950930898276322,0
543,468.88055555555553,0.8611111111110858,0.875,0.8500000000001364,1.0130718954246443,0.0357238525039146,0.9945531740435217,69.44444444444444,0.8928571428456633,1.029411764705717,0.0,0.9890581015149342,0
544,469.75555555555553,0.875,0.8638888888889369,0.8500000000001364,1.029411764705717,0.03757382074068338,1.0460563477719564,80.55555555555556,1.0357142857009694,1.0163398692809391,0.0,0.9973030561078291,0
545,470.61944444444447,0.8638888888889369,0.8888888888888573,0.8500000000001364,1.0163398692809391,0.04224136147009999,1.1760008280575032,86.11111111111111,1.1071428571286226,1.0457516339867232,0.0,0.9912772333007336,0
546,471.5083333333333,0.8888888888888573,0.8611111111111427,0.8500000000001364,1.0457516339867232,0.043370624606908756,1.2074395492010424,88.88888888888889,1.142857142842449,1.013071895424711,0.0,0.9887525129041463,0
547,472.36944444444447,0.8611111111111427,0.86388888888888,0.8500000000001364,1.013071895424711,0.041988149904633836,1.1689514101339658,83.33333333333333,1.071428571414796,1.0163398692808723,0.0,0.9914017736297074,0
548,473.23333333333335,0.86388888888888,0.8472222222222285,0.8500000000001364,1.0163398692808723,0.03921045040603923,1.0916201689817513,80.55555555555556,1.0357142857009694,0.9967320261436383,0.0,0.9968395953170566,0
549,474.0805555555556,0.8472222222222285,0.8249999999999886,0.8500000000001364,0.9967320261436383,0.039277829271326316,1.0934959987044102,77.77777777777777,0.9999999999871428,0.9705882352939484,0.0,0.9945163717394891,0
550,474.90555555555557,0.8249999999999886,0.8694444444444116,0.8500000000001364,0.9705882352939484,0.03381621949021679,0.94144461111696,66.66666666666667,0.8571428571318368,1.0228758169932612,0.0,0.9859479883537435,0
551,475.775,0.8694444444444116,0.8805555555555884,0.8500000000001364,1.0228758169932612,0.04153979145767125,1.1564690969095732,86.11111111111111,1.1071428571286226,1.035947712418173,0.0,0.9948056898699005,0
552,476.65555555555557,0.8805555555555884,0.9111111111110972,0.8500000000001364,1.035947712418173,0.04368878531663152,1.2162971533375515,91.66666666666667,1.1785714285562756,1.071895424836413,0.0,0.9867387969076896,0
553,477.56666666666666,0.9111111111110972,0.8388888888889028,0.8500000000001364,1.071895424836413,0.0417722301264957,1.1629401967391473,88.88888888888889,1.142857142842449,0.9869281045750213,0.0,0.9935268373789156,0
554,478.40555555555557,0.8388888888889028,0.8388888888889028,0.8500000000001364,0.9869281045750213,0.0365299672382484,1.0169954335279119,77.77777777777777,0.9999999999871428,0.9869281045750213,0.0,0.9987667423402853,0
555,479.24444444444447,0.8388888888889028,0.8249999999999886,0.8500000000001364,0.9869281045750213,0.03817750256502345,1.0628628686936292,80.55555555555556,1.0357142857009694,0.9705882352939484,0.0,0.9958910202548714,0
556,480.06944444444446,0.8249999999999886,0.8111111111110745,0.8500000000001364,0.9705882352939484,0.03671883110859345,1.0222534096012716,77.77777777777777,0.9999999999871428,0.9542483660128757,0.0,0.995181072899695,0
557,480.88055555555553,0.8111111111110745,0.8694444444444684,0.8500000000001364,0.9542483660128757,0.03817659850655358,1.0628376996774762,72.22222222222223,0.9285714285594899,1.022875816993328,0.0,0.987925195148937,0
