beat_index,peak_time_s,rr_prev_s,rr_next_s,rr_baseline_s,prematurity_index,aa_ratio,morph_index,qrs_width_ms,width_index,pause_index,pvc_score,morphology_score,is_pvc_candidate
0,0.3472222222222222,,0.7138888888888889,0.7111111111111104,,0.02306739252002581,0.9162270218412133,33.333333333333336,0.8571428571208165,1.003906250000001,0.0,0.9909472392838352,0
1,1.0611111111111111,0.7138888888888889,0.7305555555555556,0.7111111111111104,1.003906250000001,0.02539875090075733,1.008827585349542,38.888888888888886,0.9999999999742858,1.027343750000001,0.0,0.9973045395464908,0
2,1.7916666666666667,0.7305555555555556,0.6888888888888889,0.7111111111111104,1.027343750000001,0.023895379014758918,0.9491142933234785,36.111111111111114,0.9285714285475513,0.968750000000001,0.0,0.9967526962828661,0
3,2.4805555555555556,0.6888888888888889,0.7111111111111112,0.7111111111111104,0.968750000000001,0.02529498025762954,1.0047058595313776,36.111111111111114,0.9285714285475513,1.0000000000000013,0.0,0.9940231480767949,0
4,3.191666666666667,0.7111111111111112,0.6777777777777776,0.7111111111111104,1.0000000000000013,0.02403217434181331,0.9545477455439682,33.333333333333336,0.8571428571208165,0.9531250000000008,0.0,0.9949936873445385,0
5,3.8694444444444445,0.6777777777777776,0.708333333333333,0.7111111111111104,0.9531250000000008,0.026563618208965276,1.0550956194896384,38.888888888888886,0.9999999999742858,0.9960937500000007,0.0,0.9943068284163414,0
6,4.5777777777777775,0.708333333333333,0.6750000000000007,0.7111111111111104,0.9960937500000007,0.024695961484129038,0.9809130885714664,38.888888888888886,0.9999999999742858,0.949218750000002,0.0,0.9847845152951042,0
7,5.252777777777778,0.6750000000000007,0.7111111111111104,0.7111111111111104,0.949218750000002,0.02571959644576947,1.0215714339627864,41.666666666666664,1.0714285714010205,1.0,0.0,0.9808783520920653,0
8,5.963888888888889,0.7111111111111104,0.6805555555555562,0.7111111111111104,1.0,0.026995597592326188,1.0722536569041388,41.666666666666664,1.0714285714010205,0.957031250000002,0.0,0.9885114193670158,0
9,6.644444444444445,0.6805555555555562,0.6611111111111105,0.7111111111111104,0.957031250000002,0.023011243663764315,0.9139968131469451,33.333333333333336,0.8571428571208165,0.9296875000000002,0.0,0.9915405440248259,0
10,7.305555555555555,0.6611111111111105,0.6944444444444446,0.7111111111111104,0.9296875000000002,0.027356262401643055,1.0865791097630366,41.666666666666664,1.0714285714010205,0.9765625000000013,0.0,0.9946210074485822,0
11,8.0,0.6944444444444446,0.6888888888888882,0.7111111111111104,0.9765625000000013,0.026091658779292832,1.0363495916365442,38.888888888888886,0.9999999999742858,0.9687500000000001,0.0,0.9963156192215805,0
12,8.688888888888888,0.6888888888888882,0.6944444444444446,0.7111111111111104,0.9687500000000001,0.02393936453538652,0.9508613794986401,36.111111111111114,0.9285714285475513,0.9765625000000013,0.0,0.9947609401642973,0
13,9.383333333333333,0.6944444444444446,0.6805555555555554,0.7111111111111104,0.9765625000000013,0.02540903304972745,1.0092359879343091,38.888888888888886,0.9999999999742858,0.9570312500000008,0.0,0.985773307048484,0
14,10.063888888888888,0.6805555555555554,0.68888888888889,0.7111111111111104,0.9570312500000008,0.02652634113657503,1.0536149900258,41.666666666666664,1.0714285714010205,0.9687500000000026,0.0,0.9818584690466012,0
15,10.752777777777778,0.68888888888889,0.6888888888888882,0.7111111111111104,0.9687500000000026,0.025983420080112243,1.0320503965319348,38.888888888888886,0.9999999999742858,0.9687500000000001,0.0,0.9860998350945427,0
16,11.441666666666666,0.6888888888888882,0.6944444444444446,0.7111111111111104,0.9687500000000001,0.02655597582241766,1.0547920671457744,38.888888888888886,0.9999999999742858,0.9765625000000013,0.0,0.9875859304780636,0
17,12.136111111111111,0.6944444444444446,0.7083333333333339,0.7111111111111104,0.9765625000000013,0.0249419688190686,0.9906843953044269,36.111111111111114,0.9285714285475513,0.9960937500000019,0.0,0.9960633681942306,0
18,12.844444444444445,0.7083333333333339,0.6888888888888882,0.7111111111111104,0.9960937500000019,0.026822461383205116,1.0653767603013624,38.888888888888886,0.9999999999742858,0.9687500000000001,0.0,0.9918268386036478,0
19,13.533333333333333,0.6888888888888882,0.6888888888888882,0.7111111111111104,0.9687500000000001,0.028244717942171583,1.1218681860307633,41.666666666666664,1.0714285714010205,0.9687500000000001,0.0,0.9912055997526135,0
20,14.222222222222221,0.6888888888888882,0.6694444444444461,0.7111111111111104,0.9687500000000001,0.025825672835806997,1.025784743067722,36.111111111111114,0.9285714285475513,0.9414062500000032,0.0,0.9949999421982496,0
21,14.891666666666667,0.6694444444444461,0.7138888888888886,0.7111111111111104,0.9414062500000032,0.028305311003433357,1.1242749166578128,41.666666666666664,1.0714285714010205,1.0039062500000007,0.0,0.987507429802327,0
22,15.605555555555556,0.7138888888888886,0.6861111111111118,0.7111111111111104,1.0039062500000007,0.024154759737705214,0.9594167853412386,38.888888888888886,0.9999999999742858,0.964843750000002,0.0,0.9818747361431583,0
23,16.291666666666668,0.6861111111111118,0.6777777777777771,0.7111111111111104,0.964843750000002,0.0258374633715738,1.0262530581346354,41.666666666666664,1.0714285714010205,0.9531250000000001,0.0,0.9866092535657796,0
24,16.969444444444445,0.6777777777777771,0.6999999999999993,0.7111111111111104,0.9531250000000001,0.025024678305255756,0.9939695809248427,38.888888888888886,0.9999999999742858,0.984375,0.0,0.99131563874074,0
25,17.669444444444444,0.6999999999999993,0.6916666666666664,0.7111111111111104,0.984375,0.025456073028917607,1.011104395904714,38.888888888888886,0.9999999999742858,0.9726562500000007,0.0,0.9977386481713861,0
26,18.36111111111111,0.6916666666666664,0.6999999999999993,0.7111111111111104,0.9726562500000007,0.025843494717474873,1.0264926206290887,38.888888888888886,0.9999999999742858,0.984375,0.0,0.9983992953264544,0
27,19.06111111111111,0.6999999999999993,0.7083333333333357,0.7111111111111104,0.984375,0.024948417887213307,0.9909405495487674,36.111111111111114,0.9285714285475513,0.9960937500000043,0.0,0.9962079615196755,0
28,19.769444444444446,0.7083333333333357,0.7249999999999979,0.7111111111111104,0.9960937500000043,0.026544179705755015,1.0543235304080516,38.888888888888886,0.9999999999742858,1.019531249999998,0.0,0.9970856014987346,0
29,20.494444444444444,0.7249999999999979,0.7083333333333357,0.7111111111111104,1.019531249999998,0.023852170508223424,0.9473980698176422,36.111111111111114,0.9285714285475513,0.9960937500000043,0.0,0.9941760112268581,0
30,21.20277777777778,0.7083333333333357,0.7055555555555557,0.7111111111111104,0.9960937500000043,0.02673713636205797,1.0619876867445517,38.888888888888886,0.9999999999742858,0.9921875000000012,0.0,0.9955867403972125,0
31,21.908333333333335,0.7055555555555557,0.7305555555555543,0.7111111111111104,0.9921875000000012,0.025623161826486163,1.0177410918921934,38.888888888888886,0.9999999999742858,1.0273437499999993,0.0,0.9941609463428106,0
32,22.63888888888889,0.7305555555555543,0.7083333333333321,0.7111111111111104,1.0273437499999993,0.026746747185174856,1.0623694245518998,38.888888888888886,0.9999999999742858,0.9960937499999993,0.0,0.990310856658916,0
33,23.34722222222222,0.7083333333333321,0.7027777777777793,0.7111111111111104,0.9960937499999993,0.023247896108111597,0.9233965476036036,33.333333333333336,0.8571428571208165,0.9882812500000031,0.0,0.9919292318826108,0
34,24.05,0.7027777777777793,0.6944444444444429,0.7111111111111104,0.9882812500000031,0.024768083217874774,0.983777733167188,38.888888888888886,0.9999999999742858,0.9765624999999988,0.0,0.9964865606463549,0
35,24.744444444444444,0.6944444444444429,0.7222222222222214,0.7111111111111104,0.9765624999999988,0.024371407798899267,0.9680219542056074,36.111111111111114,0.9285714285475513,1.015625,0.0,0.9974502211050035,0
36,25.466666666666665,0.7222222222222214,0.7111111111111121,0.7111111111111104,1.015625,0.02583999615086736,1.02635365905115,38.888888888888886,0.9999999999742858,1.0000000000000024,0.0,0.9963607596074661,0
37,26.177777777777777,0.7111111111111121,0.7055555555555557,0.7111111111111104,1.0000000000000024,0.025323842782168957,1.005852266732738,36.111111111111114,0.9285714285475513,0.9921875000000012,0.0,0.9944068462201464,0
38,26.883333333333333,0.7055555555555557,0.7305555555555543,0.7111111111111104,0.9921875000000012,0.026638709500641865,1.0580782136636144,38.888888888888886,0.9999999999742858,1.0273437499999993,0.0,0.9952815951795971,0
39,27.613888888888887,0.7305555555555543,0.7055555555555557,0.7111111111111104,1.0273437499999993,0.02397868399270917,0.9524231316235007,36.111111111111114,0.9285714285475513,0.9921875000000012,0.0,0.9923829773467534,0
40,28.319444444444443,0.7055555555555557,0.6972222222222229,0.7111111111111104,0.9921875000000012,0.024857898470539985,0.9873451568104942,38.888888888888886,0.9999999999742858,0.9804687500000019,0.0,0.983102278684897,0
41,29.016666666666666,0.6972222222222229,0.7138888888888886,0.7111111111111104,0.9804687500000019,0.022619461063020527,0.8984353748449326,36.111111111111114,0.9285714285475513,1.0039062500000007,0.0,0.9801018973956761,0
42,29.730555555555554,0.7138888888888886,0.722222222222225,0.7111111111111104,1.0039062500000007,0.02598271279615913,1.0320223035140788,41.666666666666664,1.0714285714010205,1.0156250000000049,0.0,0.9887275439703223,0
43,30.45277777777778,0.722222222222225,0.7138888888888886,0.7111111111111104,1.0156250000000049,0.023702819456402385,0.9414659095485503,36.111111111111114,0.9285714285475513,1.0039062500000007,0.0,0.9906693827081021,0
44,31.166666666666668,0.7138888888888886,0.6805555555555536,0.7111111111111104,1.0039062500000007,0.02683872170866478,1.0660226135141666,38.888888888888886,0.9999999999742858,0.9570312499999982,0.0,0.994782821520029,0
45,31.84722222222222,0.6805555555555536,0.7416666666666671,0.7111111111111104,0.9570312499999982,0.02427304546636818,0.9641150441845431,36.111111111111114,0.9285714285475513,1.0429687500000018,0.0,0.9961414509063546,0
46,32.58888888888889,0.7416666666666671,0.6833333333333371,0.7111111111111104,1.0429687500000018,0.027252907174398353,1.0824738840870993,41.666666666666664,1.0714285714010205,0.9609375000000063,0.0,0.992932242266364,0
47,33.272222222222226,0.6833333333333371,0.7083333333333286,0.7111111111111104,0.9609375000000063,0.025211059736755477,1.0013725721281717,36.111111111111114,0.9285714285475513,0.9960937499999943,0.0,0.9832724826650933,0
48,33.980555555555554,0.7083333333333286,0.7166666666666686,0.7111111111111104,0.9960937499999943,0.02712071122027817,1.0772231170037438,41.666666666666664,1.0714285714010205,1.0078125000000038,0.0,0.9825265997850856,0
49,34.69722222222222,0.7166666666666686,0.7055555555555557,0.7111111111111104,1.0078125000000038,0.02556368981394281,1.015378888843531,36.111111111111114,0.9285714285475513,0.9921875000000012,0.0,0.9844473839717172,0
50,35.40277777777778,0.7055555555555557,0.7055555555555557,0.7111111111111104,0.9921875000000012,0.025838968928140697,1.0263128582012575,36.111111111111114,0.9285714285475513,0.9921875000000012,0.0,0.98752536768849,0
51,36.108333333333334,0.7055555555555557,0.6944444444444429,0.7111111111111104,0.9921875000000012,0.02498923615220123,0.9925618336767478,36.111111111111114,0.9285714285475513,0.9765624999999988,0.0,0.9952652633725247,0
52,36.80277777777778,0.6944444444444429,0.7305555555555543,0.7111111111111104,0.9765624999999988,0.02622687163540758,1.0417201887842324,38.888888888888886,0.9999999999742858,1.0273437499999993,0.0,0.994721172063932,0
53,37.53333333333333,0.7305555555555543,0.6972222222222229,0.7111111111111104,1.0273437499999993,0.025830714359980442,1.0259849902640605,38.888888888888886,0.9999999999742858,0.9804687500000019,0.0,0.9933646432053572,0
54,38.230555555555554,0.6972222222222229,0.6944444444444429,0.7111111111111104,0.9804687500000019,0.02648253766245847,1.0518751346606445,38.888888888888886,0.9999999999742858,0.9765624999999988,0.0,0.9952144148240034,0
55,38.925,0.6944444444444429,0.6805555555555571,0.7111111111111104,0.9765624999999988,0.025780517640194258,1.023991197899537,38.888888888888886,0.9999999999742858,0.9570312500000032,0.0,0.9962764404045825,0
56,39.605555555555554,0.6805555555555571,0.68888888888889,0.7111111111111104,0.9570312500000032,0.027099367396470134,1.0763753493982218,38.888888888888886,0.9999999999742858,0.9687500000000026,0.0,0.9927989274558243,0
57,40.294444444444444,0.68888888888889,0.6972222222222229,0.7111111111111104,0.9687500000000026,0.02630994622732407,1.0450198762489618,36.111111111111114,0.9285714285475513,0.9804687500000019,0.0,0.996554023281474,0
58,40.99166666666667,0.6972222222222229,0.6777777777777771,0.7111111111111104,0.9804687500000019,0.02343944340801441,0.9310047249031975,33.333333333333336,0.8571428571208165,0.9531250000000001,0.0,0.9949444069357769,0
59,41.669444444444444,0.6777777777777771,0.7222222222222214,0.7111111111111104,0.9531250000000001,0.025624178727543117,1.017781482769754,38.888888888888886,0.9999999999742858,1.015625,0.0,0.993224368269767,0
60,42.391666666666666,0.7222222222222214,0.68888888888889,0.7111111111111104,1.015625,0.025452058238776488,1.0109449301475366,41.666666666666664,1.0714285714010205,0.9687500000000026,0.0,0.985431508899541,0
61,43.080555555555556,0.68888888888889,0.6944444444444429,0.7111111111111104,0.9687500000000026,0.024752337537417738,0.9831523214350433,38.888888888888886,0.9999999999742858,0.9765624999999988,0.0,0.9894923629148857,0
62,43.775,0.6944444444444429,0.7083333333333357,0.7111111111111104,0.9765624999999988,0.02568752062341841,1.0202973959387527,38.888888888888886,0.9999999999742858,0.9960937500000043,0.0,0.9931192365484254,0
63,44.483333333333334,0.7083333333333357,0.7083333333333357,0.7111111111111104,0.9960937500000043,0.025910190838882605,1.029141762209903,38.888888888888886,0.9999999999742858,0.9960937500000043,0.0,0.9944558547068184,0
64,45.19166666666667,0.7083333333333357,0.7194444444444414,0.7111111111111104,0.9960937500000043,0.02668486500270444,1.059911490578622,38.888888888888886,0.9999999999742858,1.011718749999997,0.0,0.992118277106155,0
65,45.91111111111111,0.7194444444444414,0.6972222222222229,0.7111111111111104,1.011718749999997,0.024647035050353792,0.9789697514271278,36.111111111111114,0.9285714285475513,0.9804687500000019,0.0,0.9933656814824282,0
66,46.608333333333334,0.6972222222222229,0.7083333333333357,0.7111111111111104,0.9804687500000019,0.02489723626890625,0.9889076374338079,38.888888888888886,0.9999999999742858,0.9960937500000043,0.0,0.990014662851596,0
67,47.31666666666667,0.7083333333333357,0.6888888888888829,0.7111111111111104,0.9960937500000043,0.024022822807081227,0.9541763065610063,36.111111111111114,0.9285714285475513,0.9687499999999926,0.0,0.9867045009919752,0
68,48.00555555555555,0.6888888888888829,0.7055555555555557,0.7111111111111104,0.9687499999999926,0.025409508394668115,1.0092548684332194,38.888888888888886,0.9999999999742858,0.9921875000000012,0.0,0.9908162396002429,0
69,48.71111111111111,0.7055555555555557,0.7055555555555557,0.7111111111111104,0.9921875000000012,0.02351317082051006,0.9339331463760754,33.333333333333336,0.8571428571208165,0.9921875000000012,0.0,0.990429453471751,0
70,49.416666666666664,0.7055555555555557,0.7194444444444485,0.7111111111111104,0.9921875000000012,0.025495492569429786,1.0126701232913038,38.888888888888886,0.9999999999742858,1.0117187500000069,0.0,0.9950315943737262,0
71,50.13611111111111,0.7194444444444485,0.68333333333333,0.7111111111111104,1.0117187500000069,0.024861758729667758,0.9874984846615334,36.111111111111114,0.9285714285475513,0.9609374999999963,0.0,0.9934101655740545,0
72,50.81944444444444,0.68333333333333,0.6972222222222229,0.7111111111111104,0.9609374999999963,0.028258572111055105,1.1224184677275444,41.666666666666664,1.0714285714010205,0.9804687500000019,0.0,0.9910883694724371,0
73,51.516666666666666,0.6972222222222229,0.7083333333333357,0.7111111111111104,0.9804687500000019,0.02689162103673095,1.0681237523303284,41.666666666666664,1.0714285714010205,0.9960937500000043,0.0,0.99000804782799,0
74,52.225,0.7083333333333357,0.6916666666666629,0.7111111111111104,0.9960937500000043,0.024867922791193615,0.987743318564168,38.888888888888886,0.9999999999742858,0.9726562499999957,0.0,0.9931144758840029,0
75,52.916666666666664,0.6916666666666629,0.7083333333333357,0.7111111111111104,0.9726562499999957,0.025272980791068173,1.0038320500744953,38.888888888888886,0.9999999999742858,0.9960937500000043,0.0,0.9847016669616089,0
76,53.625,0.7083333333333357,0.68611111111111,0.7111111111111104,0.9960937500000043,0.02430845194590883,0.9655213744958363,38.888888888888886,0.9999999999742858,0.9648437499999994,0.0,0.9910928793585974,0
77,54.31111111111111,0.68611111111111,0.7083333333333357,0.7111111111111104,0.9648437499999994,0.025125153122230803,0.9979603979297195,38.888888888888886,0.9999999999742858,0.9960937500000043,0.0,0.9952380734642539,0
78,55.019444444444446,0.7083333333333357,0.6944444444444429,0.7111111111111104,0.9960937500000043,0.023542298466705545,0.9350900840968761,36.111111111111114,0.9285714285475513,0.9765624999999988,0.0,0.9957314991909127,0
79,55.71388888888889,0.6944444444444429,0.7138888888888886,0.7111111111111104,0.9765624999999988,0.02511521777463141,0.9975657701479255,36.111111111111114,0.9285714285475513,1.0039062500000007,0.0,0.9984121614698626,0
80,56.42777777777778,0.7138888888888886,0.7250000000000014,0.7111111111111104,1.0039062500000007,0.024308064840789165,0.9655059988450938,36.111111111111114,0.9285714285475513,1.019531250000003,0.0,0.9983698037560754,0
81,57.15277777777778,0.7250000000000014,0.7166666666666686,0.7111111111111104,1.019531250000003,0.02637233940290841,1.0474981066514326,38.888888888888886,0.9999999999742858,1.0078125000000038,0.0,0.9975863068833881,0
82,57.86944444444445,0.7166666666666686,0.7083333333333286,0.7111111111111104,1.0078125000000038,0.025813608230771872,1.0253055420860147,36.111111111111114,0.9285714285475513,0.9960937499999943,0.0,0.9957368398577449,0
83,58.577777777777776,0.7083333333333286,0.7138888888888886,0.7111111111111104,0.9960937499999943,0.026617150617260735,1.0572219039833,38.888888888888886,0.9999999999742858,1.0039062500000007,0.0,0.9948831687737643,0
84,59.291666666666664,0.7138888888888886,0.7138888888888886,0.7111111111111104,1.0039062500000007,0.02501547525735475,0.9936040397756694,38.888888888888886,0.9999999999742858,1.0039062500000007,0.0,0.9885110999800797,0
85,60.00555555555555,0.7138888888888886,0.7111111111111157,0.7111111111111104,1.0039062500000007,0.025088775862526596,0.9965155086431391,38.888888888888886,0.9999999999742858,1.0000000000000075,0.0,0.9906750035787848,0
86,60.71666666666667,0.7111111111111157,0.6972222222222229,0.7111111111111104,1.0000000000000075,0.0246542590822276,0.979256686901247,36.111111111111114,0.9285714285475513,0.9804687500000019,0.0,0.9952007327499666,0
87,61.41388888888889,0.6972222222222229,0.7166666666666615,0.7111111111111104,0.9804687500000019,0.02378959026816334,0.9449124092937411,36.111111111111114,0.9285714285475513,1.0078124999999938,0.0,0.996502962255263,0
88,62.13055555555555,0.7166666666666615,0.6777777777777771,0.7111111111111104,1.0078124999999938,0.02524300332539479,1.002641357885405,38.888888888888886,0.9999999999742858,0.9531250000000001,0.0,0.9974114655094144,0
89,62.80833333333333,0.6777777777777771,0.7055555555555557,0.7111111111111104,0.9531250000000001,0.026725762732217946,1.0615359310037673,41.666666666666664,1.0714285714010205,0.9921875000000012,0.0,0.9936839880647528,0
90,63.513888888888886,0.7055555555555557,0.6972222222222229,0.7111111111111104,0.9921875000000012,0.026932091788079805,1.0697312333643398,38.888888888888886,0.9999999999742858,0.9804687500000019,0.0,0.9930041322572984,0
91,64.21111111111111,0.6972222222222229,0.7138888888888886,0.7111111111111104,0.9804687500000019,0.02496323907388325,0.9915292407808157,38.888888888888886,0.9999999999742858,1.0039062500000007,0.0,0.9953781840606708,0
92,64.925,0.7138888888888886,0.6888888888888971,0.7111111111111104,1.0039062500000007,0.023802177342476562,0.9454123625330023,38.888888888888886,0.9999999999742858,0.9687500000000125,0.0,0.9943679032949352,0
93,65.6138888888889,0.6888888888888971,0.6861111111111029,0.7111111111111104,0.9687500000000125,0.021416327063676695,0.8506474040052413,36.111111111111114,0.9285714285475513,0.9648437499999895,0.0,0.9864154230451245,0
94,66.3,0.6861111111111029,0.7138888888888886,0.7111111111111104,0.9648437499999895,0.02358750607865102,0.936885711219508,36.111111111111114,0.9285714285475513,1.0039062500000007,0.0,0.9949121419952742,0
95,67.01388888888889,0.7138888888888886,0.6833333333333371,0.7111111111111104,1.0039062500000007,0.023173650197414235,0.920447531602637,38.888888888888886,0.9999999999742858,0.9609375000000063,0.0,0.991872054242126,0
96,67.69722222222222,0.6833333333333371,0.7111111111111086,0.7111111111111104,0.9609375000000063,0.024507307311001744,0.9734198250371385,36.111111111111114,0.9285714285475513,0.9999999999999974,0.0,0.9934379866322025,0
97,68.40833333333333,0.7111111111111086,0.6805555555555571,0.7111111111111104,0.9999999999999974,0.026058480943932944,1.035031782124414,38.888888888888886,0.9999999999742858,0.9570312500000032,0.0,0.9951978600571161,0
98,69.08888888888889,0.6805555555555571,0.7027777777777828,0.7111111111111104,0.9570312500000032,0.024324995740806044,0.9661784869941591,36.111111111111114,0.9285714285475513,0.9882812500000081,0.0,0.9959445428862881,0
99,69.79166666666667,0.7027777777777828,0.6888888888888829,0.7111111111111104,0.9882812500000081,0.02474075773499456,0.9826923766069277,36.111111111111114,0.9285714285475513,0.9687499999999926,0.0,0.9914391100418248,0
100,70.48055555555555,0.6888888888888829,0.7027777777777828,0.7111111111111104,0.9687499999999926,0.02443262504370638,0.9704534771376532,36.111111111111114,0.9285714285475513,0.9882812500000081,0.0,0.9936099601650255,0
101,71.18333333333334,0.7027777777777828,0.7027777777777686,0.7111111111111104,0.9882812500000081,0.02557441860056141,1.01580503168577,33.333333333333336,0.8571428571208165,0.9882812499999881,0.0,0.9932231582707713,0
102,71.8861111111111,0.7027777777777686,0.6833333333333371,0.7111111111111104,0.9882812499999881,0.025138941495853266,0.9985080662667097,36.111111111111114,0.9285714285475513,0.9609375000000063,0.0,0.9970174891342578,0
103,72.56944444444444,0.6833333333333371,0.6833333333333371,0.7111111111111104,0.9609375000000063,0.02671628447261481,1.0611594585628152,41.666666666666664,1.0714285714010205,0.9609375000000063,0.0,0.9957355722402101,0
104,73.25277777777778,0.6833333333333371,0.6861111111111029,0.7111111111111104,0.9609375000000063,0.02555889365558953,1.0151883874732313,36.111111111111114,0.9285714285475513,0.9648437499999895,0.0,0.9966813369873908,0
105,73.93888888888888,0.6861111111111029,0.6944444444444571,0.7111111111111104,0.9648437499999895,0.024768329571335665,0.9837875182218966,36.111111111111114,0.9285714285475513,0.9765625000000188,0.0,0.9954174576736274,0
106,74.63333333333334,0.6944444444444571,0.6861111111111029,0.7111111111111104,0.9765625000000188,0.025843762931001348,1.0265032739563067,38.888888888888886,0.9999999999742858,0.9648437499999895,0.0,0.9982174548821099,0
107,75.31944444444444,0.6861111111111029,0.6861111111111171,0.7111111111111104,0.9648437499999895,0.026062967886069734,1.035210001558084,38.888888888888886,0.9999999999742858,0.9648437500000094,0.0,0.9966104682247303,0
108,76.00555555555556,0.6861111111111171,0.6888888888888829,0.7111111111111104,0.9648437500000094,0.02343665201680857,0.9308938520314977,33.333333333333336,0.8571428571208165,0.9687499999999926,0.0,0.9906771948251907,0
109,76.69444444444444,0.6888888888888829,0.6888888888888971,0.7111111111111104,0.9687499999999926,0.026030848745874708,1.0339342429677085,36.111111111111114,0.9285714285475513,0.9687500000000125,0.0,0.9972511577043899,0
110,77.38333333333334,0.6888888888888971,0.6916666666666629,0.7111111111111104,0.9687500000000125,0.023284553461257452,0.9248525620825808,33.333333333333336,0.8571428571208165,0.9726562499999957,0.0,0.9916734261935932,0
111,78.075,0.6916666666666629,0.6861111111111029,0.7111111111111104,0.9726562499999957,0.024764358413375598,0.9836297855163967,38.888888888888886,0.9999999999742858,0.9648437499999895,0.0,0.9981197615744339,0
112,78.7611111111111,0.6861111111111029,0.7083333333333428,0.7111111111111104,0.9648437499999895,0.025974564984891497,1.0316986759152598,38.888888888888886,0.9999999999742858,0.9960937500000143,0.0,0.9935720923925864,0
113,79.46944444444445,0.7083333333333428,0.6916666666666629,0.7111111111111104,0.9960937500000143,0.02360500121879922,0.937580610746655,38.888888888888886,0.9999999999742858,0.9726562499999957,0.0,0.9901883454064692,0
114,80.16111111111111,0.6916666666666629,0.6972222222222229,0.7111111111111104,0.9726562499999957,0.025130730837201094,0.9981819423965018,38.888888888888886,0.9999999999742858,0.9804687500000019,0.0,0.991229735701622,0
115,80.85833333333333,0.6972222222222229,0.6972222222222229,0.7111111111111104,0.9804687500000019,0.023870290018047854,0.9481177690428254,36.111111111111114,0.9285714285475513,0.9804687500000019,0.0,0.9916533566306117,0
116,81.55555555555556,0.6972222222222229,0.6944444444444429,0.7111111111111104,0.9804687500000019,0.027064399695088653,1.0749864471688269,38.888888888888886,0.9999999999742858,0.9765624999999988,0.0,0.9933588288228936,0
117,82.25,0.6944444444444429,0.7111111111111086,0.7111111111111104,0.9765624999999988,0.026530927907202417,1.053797174604666,41.666666666666664,1.0714285714010205,0.9999999999999974,0.0,0.9968904721021226,0
118,82.96111111111111,0.7111111111111086,0.6777777777777771,0.7111111111111104,0.9999999999999974,0.026558624026112997,1.0548972526704452,38.888888888888886,0.9999999999742858,0.9531250000000001,0.0,0.9956098066635678,0
119,83.63888888888889,0.6777777777777771,0.6972222222222229,0.7111111111111104,0.9531250000000001,0.025343030429334862,1.0066143919189159,38.888888888888886,0.9999999999742858,0.9804687500000019,0.0,0.986985281944093,0
120,84.33611111111111,0.6972222222222229,0.6861111111111171,0.7111111111111104,0.9804687500000019,0.02337402572258137,0.9284063622556625,36.111111111111114,0.9285714285475513,0.9648437500000094,0.0,0.9822505188158119,0
121,85.02222222222223,0.6861111111111171,0.6916666666666629,0.7111111111111104,0.9648437500000094,0.024371577591848076,0.9680286983093322,38.888888888888886,0.9999999999742858,0.9726562499999957,0.0,0.9785695870206799,0
122,85.71388888888889,0.6916666666666629,0.6888888888888829,0.7111111111111104,0.9726562499999957,0.024695432331770722,0.980892070864808,36.111111111111114,0.9285714285475513,0.9687499999999926,0.0,0.9873895858151149,0
123,86.40277777777777,0.6888888888888829,0.6944444444444571,0.7111111111111104,0.9687499999999926,0.026729900331677707,1.0617002746948585,38.888888888888886,0.9999999999742858,0.9765625000000188,0.0,0.9899714093120278,0
124,87.09722222222223,0.6944444444444571,0.6777777777777771,0.7111111111111104,0.9765625000000188,0.026676142375383554,1.0595650315305996,38.888888888888886,0.9999999999742858,0.9531250000000001,0.0,0.9953807340421855,0
125,87.775,0.6777777777777771,0.6916666666666629,0.7111111111111104,0.9531250000000001,0.02454540840229168,0.9749331841812713,36.111111111111114,0.9285714285475513,0.9726562499999957,0.0,0.9976563940548925,0
126,88.46666666666667,0.6916666666666629,0.6888888888888829,0.7111111111111104,0.9726562499999957,0.02589802115443369,1.0286583875185633,38.888888888888886,0.9999999999742858,0.9687499999999926,0.0,0.9950626418956638,0
127,89.15555555555555,0.6888888888888829,0.6916666666666771,0.7111111111111104,0.9687499999999926,0.026661553212711894,1.0589855561930985,41.666666666666664,1.0714285714010205,0.9726562500000157,0.0,0.9832556573254878,0
128,89.84722222222223,0.6916666666666771,0.6916666666666629,0.7111111111111104,0.9726562500000157,0.025498801838796704,1.0128015660633418,41.666666666666664,1.0714285714010205,0.9726562499999957,0.0,0.9874407640174637,0
129,90.53888888888889,0.6916666666666629,0.6777777777777771,0.7111111111111104,0.9726562499999957,0.024923592990097835,0.9899545151917469,38.888888888888886,0.9999999999742858,0.9531250000000001,0.0,0.9887052538570509,0
130,91.21666666666667,0.6777777777777771,0.6805555555555571,0.7111111111111104,0.9531250000000001,0.024243774502255955,0.9629524139370332,36.111111111111114,0.9285714285475513,0.9570312500000032,0.0,0.9898559857725874,0
131,91.89722222222223,0.6805555555555571,0.6972222222222229,0.7111111111111104,0.9570312500000032,0.025089851691615286,0.9965582401170621,36.111111111111114,0.9285714285475513,0.9804687500000019,0.0,0.993139402300659,0
132,92.59444444444445,0.6972222222222229,0.6861111111111029,0.7111111111111104,0.9804687500000019,0.025384124611698512,1.0082466353677304,38.888888888888886,0.9999999999742858,0.9648437499999895,0.0,0.9967561226283841,0
133,93.28055555555555,0.6861111111111029,0.6944444444444429,0.7111111111111104,0.9648437499999895,0.02587606511481986,1.0277863029615706,38.888888888888886,0.9999999999742858,0.9765624999999988,0.0,0.9956484079586214,0
134,93.975,0.6944444444444429,0.6916666666666771,0.7111111111111104,0.9765624999999988,0.026895929580134544,1.0682948858421775,41.666666666666664,1.0714285714010205,0.9726562500000157,0.0,0.9949779285446625,0
135,94.66666666666667,0.6916666666666771,0.6749999999999972,0.7111111111111104,0.9726562500000157,0.02407563013961205,0.9562737913536239,36.111111111111114,0.9285714285475513,0.949218749999997,0.0,0.9971091490128872,0
136,95.34166666666667,0.6749999999999972,0.6749999999999972,0.7111111111111104,0.949218749999997,0.02564420457909994,1.0185769010779053,38.888888888888886,0.9999999999742858,0.949218749999997,0.0,0.9865542130927734,0
137,96.01666666666667,0.6749999999999972,0.6972222222222229,0.7111111111111104,0.949218749999997,0.026223187049840516,1.0415738386123221,41.666666666666664,1.0714285714010205,0.9804687500000019,0.0,0.9818278727526706,0
138,96.71388888888889,0.6972222222222229,0.6777777777777771,0.7111111111111104,0.9804687500000019,0.024576742062103894,0.976177743824855,38.888888888888886,0.9999999999742858,0.9531250000000001,0.0,0.988758254759955,0
139,97.39166666666667,0.6777777777777771,0.6722222222222172,0.7111111111111104,0.9531250000000001,0.024892288591513517,0.9887111177916923,38.888888888888886,0.9999999999742858,0.9453124999999939,0.0,0.9920028669813229,0
140,98.06388888888888,0.6722222222222172,0.6777777777777771,0.7111111111111104,0.9453124999999939,0.023079985652332494,0.9167272157013988,33.333333333333336,0.8571428571208165,0.9531250000000001,0.0,0.9915052921570774,0
141,98.74166666666666,0.6777777777777771,0.6750000000000114,0.7111111111111104,0.9531250000000001,0.023266206427604023,0.9241238257076608,36.111111111111114,0.9285714285475513,0.949218750000017,0.0,0.9911030298775962,0
142,99.41666666666667,0.6750000000000114,0.6805555555555571,0.7111111111111104,0.949218750000017,0.02387831044117126,0.9484363368387253,38.888888888888886,0.9999999999742858,0.9570312500000032,0.0,0.9931913233828797,0
143,100.09722222222223,0.6805555555555571,0.6888888888888829,0.7111111111111104,0.9570312500000032,0.024932465942929943,0.9903069451051515,36.111111111111114,0.9285714285475513,0.9687499999999926,0.0,0.9985506921628033,0
144,100.78611111111111,0.6888888888888829,0.7000000000000028,0.7111111111111104,0.9687499999999926,0.023847058761961974,0.9471950334298289,36.111111111111114,0.9285714285475513,0.984375000000005,0.0,0.9916826271149669,0
145,101.48611111111111,0.7000000000000028,0.6916666666666629,0.7111111111111104,0.984375000000005,0.025886703552531944,1.0282088571836625,38.888888888888886,0.9999999999742858,0.9726562499999957,0.0,0.9985871681685332,0
146,102.17777777777778,0.6916666666666629,0.6861111111111171,0.7111111111111104,0.9726562499999957,0.025642339510632637,1.0185028213514757,38.888888888888886,0.9999999999742858,0.9648437500000094,0.0,0.9962091772434969,0
147,102.8638888888889,0.6861111111111171,0.6944444444444429,0.7111111111111104,0.9648437500000094,0.027268025216908763,1.0830743663068976,38.888888888888886,0.9999999999742858,0.9765624999999988,0.0,0.9933351998488135,0
148,103.55833333333334,0.6944444444444429,0.7027777777777686,0.7111111111111104,0.9765624999999988,0.027991071993410194,1.111793476805003,41.666666666666664,1.0714285714010205,0.9882812499999881,0.0,0.9926076465598029,0
149,104.2611111111111,0.7027777777777686,0.6972222222222229,0.7111111111111104,0.9882812499999881,0.02212828172340286,0.8789259403417856,36.111111111111114,0.9285714285475513,0.9804687500000019,0.0,0.9871191801571115,0
150,104.95833333333333,0.6972222222222229,0.6833333333333371,0.7111111111111104,0.9804687500000019,0.025225099629993943,1.0019302307173548,38.888888888888886,0.9999999999742858,0.9609375000000063,0.0,0.995773295500986,0
151,105.64166666666667,0.6833333333333371,0.7055555555555628,0.7111111111111104,0.9609375000000063,0.02398714371641815,0.9527591482518538,36.111111111111114,0.9285714285475513,0.9921875000000112,0.0,0.9959579483639525,0
152,106.34722222222223,0.7055555555555628,0.7027777777777686,0.7111111111111104,0.9921875000000112,0.024873709266832356,0.987973154915929,36.111111111111114,0.9285714285475513,0.9882812499999881,0.0,0.9964718266091079,0
153,107.05,0.7027777777777686,0.6888888888888971,0.7111111111111104,0.9882812499999881,0.024936567719022678,0.9904698659073377,36.111111111111114,0.9285714285475513,0.9687500000000125,0.0,0.9957386497670428,0
154,107.7388888888889,0.6888888888888971,0.7111111111111086,0.7111111111111104,0.9687500000000125,0.025492466035963366,1.0125499106690046,36.111111111111114,0.9285714285475513,0.9999999999999974,0.0,0.9973193227695557,0
155,108.45,0.7111111111111086,0.7027777777777686,0.7111111111111104,0.9999999999999974,0.02749710896618231,1.0921734754136985,38.888888888888886,0.9999999999742858,0.9882812499999881,0.0,0.9919675510672024,0
156,109.15277777777777,0.7027777777777686,0.7000000000000028,0.7111111111111104,0.9882812499999881,0.02584570528556988,1.0265804234538123,38.888888888888886,0.9999999999742858,0.984375000000005,0.0,0.9904211539829211,0
157,109.85277777777777,0.7000000000000028,0.6833333333333371,0.7111111111111104,0.984375000000005,0.025762148590104537,1.0232615870411297,38.888888888888886,0.9999999999742858,0.9609375000000063,0.0,0.9962700051877518,0
158,110.53611111111111,0.6833333333333371,0.7166666666666686,0.7111111111111104,0.9609375000000063,0.0243251673483686,0.9661853031735704,36.111111111111114,0.9285714285475513,1.0078125000000038,0.0,0.9980019055916336,0
159,111.25277777777778,0.7166666666666686,0.6972222222222229,0.7111111111111104,1.0078125000000038,0.024853181640772604,0.9871578063378932,38.888888888888886,0.9999999999742858,0.9804687500000019,0.0,0.9982737466162381,0
160,111.95,0.6972222222222229,0.6944444444444429,0.7111111111111104,0.9804687500000019,0.023899806821868944,0.9492901639390318,38.888888888888886,0.9999999999742858,0.9765624999999988,0.0,0.9928729928074942,0
161,112.64444444444445,0.6944444444444429,0.7000000000000028,0.7111111111111104,0.9765624999999988,0.02366418562397885,0.939931390153131,36.111111111111114,0.9285714285475513,0.984375000000005,0.0,0.9980076416522492,0
162,113.34444444444445,0.7000000000000028,0.7055555555555486,0.7111111111111104,0.984375000000005,0.026502048345619877,1.0526500906991973,38.888888888888886,0.9999999999742858,0.9921874999999912,0.0,0.9981049302912437,0
163,114.05,0.7055555555555486,0.7000000000000028,0.7111111111111104,0.9921874999999912,0.024830387559519593,0.9862524351233564,36.111111111111114,0.9285714285475513,0.984375000000005,0.0,0.9940989675803711,0
164,114.75,0.7000000000000028,0.6833333333333371,0.7111111111111104,0.984375000000005,0.025533217731530666,1.0141685506879052,38.888888888888886,0.9999999999742858,0.9609375000000063,0.0,0.9970792357952114,0
165,115.43333333333334,0.6833333333333371,0.7249999999999943,0.7111111111111104,0.9609375000000063,0.026088913444293583,1.0362405480977854,38.888888888888886,0.9999999999742858,1.0195312499999931,0.0,0.9944601434584568,0
166,116.15833333333333,0.7249999999999943,0.6888888888888971,0.7111111111111104,1.0195312499999931,0.026711864122677,1.060983884142971,38.888888888888886,0.9999999999742858,0.9687500000000125,0.0,0.9966320071466781,0
167,116.84722222222223,0.6888888888888971,0.6916666666666629,0.7111111111111104,0.9687500000000125,0.022433461247418907,0.8910475412627997,36.111111111111114,0.9285714285475513,0.9726562499999957,0.0,0.9834623645123359,0
168,117.53888888888889,0.6916666666666629,0.7111111111111086,0.7111111111111104,0.9726562499999957,0.025193501495248113,1.0006751662418716,38.888888888888886,0.9999999999742858,0.9999999999999974,0.0,0.9873507293784831,0
169,118.25,0.7111111111111086,0.7000000000000028,0.7111111111111104,0.9999999999999974,0.026494844518756732,1.0523639577595099,41.666666666666664,1.0714285714010205,0.984375000000005,0.0,0.988230304979661,0
170,118.95,0.7000000000000028,0.7027777777777686,0.7111111111111104,0.984375000000005,0.02582833910839516,1.0258906462811324,36.111111111111114,0.9285714285475513,0.9882812499999881,0.0,0.9960092711048809,0
171,119.65277777777777,0.7027777777777686,0.6777777777777771,0.7111111111111104,0.9882812499999881,0.02472421994981381,0.9820355028119873,36.111111111111114,0.9285714285475513,0.9531250000000001,0.0,0.99609684793167,0
172,120.33055555555555,0.6777777777777771,0.7055555555555628,0.7111111111111104,0.9531250000000001,0.02629250070203232,1.0443269474028152,36.111111111111114,0.9285714285475513,0.9921875000000112,0.0,0.9985900786640538,0
173,121.03611111111111,0.7055555555555628,0.6777777777777771,0.7111111111111104,0.9921875000000112,0.026859868991576673,1.06686257459887,38.888888888888886,0.9999999999742858,0.9531250000000001,0.0,0.9972420385528451,0
174,121.71388888888889,0.6777777777777771,0.7000000000000028,0.7111111111111104,0.9531250000000001,0.02365440733862531,0.9395430008169541,36.111111111111114,0.9285714285475513,0.984375000000005,0.0,0.9929989458926374,0
175,122.41388888888889,0.7000000000000028,0.6888888888888829,0.7111111111111104,0.984375000000005,0.02534276708557372,1.0066039320167062,38.888888888888886,0.9999999999742858,0.9687499999999926,0.0,0.9915393114327222,0
176,123.10277777777777,0.6888888888888829,0.6888888888888971,0.7111111111111104,0.9687499999999926,0.027199383247432516,1.0803479364682438,41.666666666666664,1.0714285714010205,0.9687500000000125,0.0,0.9779121091403373,0
177,123.79166666666667,0.6888888888888971,0.6888888888888829,0.7111111111111104,0.9687500000000125,0.024318198236863757,0.9659084930281057,36.111111111111114,0.9285714285475513,0.9687499999999926,0.0,0.9787095703993367,0
178,124.48055555555555,0.6888888888888829,0.6805555555555571,0.7111111111111104,0.9687499999999926,0.02632716392322126,1.0457037558084377,38.888888888888886,0.9999999999742858,0.9570312500000032,0.0,0.9805639234275318,0
179,125.16111111111111,0.6805555555555571,0.7194444444444485,0.7111111111111104,0.9570312500000032,0.024733222860542105,0.9823930945977657,36.111111111111114,0.9285714285475513,1.0117187500000069,0.0,0.9890926444637498,0
180,125.88055555555556,0.7194444444444485,0.6972222222222229,0.7111111111111104,1.0117187500000069,0.026756767663425256,1.0627674336869513,38.888888888888886,0.9999999999742858,0.9804687500000019,0.0,0.9906713449357476,0
181,126.57777777777778,0.6972222222222229,0.6916666666666629,0.7111111111111104,0.9804687500000019,0.027099648295591482,1.0763865065918736,38.888888888888886,0.9999999999742858,0.9726562499999957,0.0,0.9959467791965932,0
182,127.26944444444445,0.6916666666666629,0.6916666666666629,0.7111111111111104,0.9726562499999957,0.025961669063970086,1.0311864554200536,38.888888888888886,0.9999999999742858,0.9726562499999957,0.0,0.9925488785174831,0
183,127.96111111111111,0.6916666666666629,0.7083333333333428,0.7111111111111104,0.9726562499999957,0.02756482770992213,1.094863235118689,41.666666666666664,1.0714285714010205,0.9960937500000143,0.0,0.9901127054728778,0
184,128.66944444444445,0.7083333333333428,0.6916666666666629,0.7111111111111104,0.9960937500000143,0.02537493677139552,1.0078816982578835,38.888888888888886,0.9999999999742858,0.9726562499999957,0.0,0.9962214630766412,0
185,129.36111111111111,0.6916666666666629,0.7027777777777828,0.7111111111111104,0.9726562499999957,0.026546244737806743,1.054405552603023,38.888888888888886,0.9999999999742858,0.9882812500000081,0.0,0.9916394764964784,0
186,130.0638888888889,0.7027777777777828,0.7277777777777601,0.7111111111111104,0.9882812500000081,0.025154728999841405,0.9991351392117251,36.111111111111114,0.9285714285475513,1.0234374999999762,0.0,0.9954988564049223,0
187,130.79166666666666,0.7277777777777601,0.7027777777777828,0.7111111111111104,1.0234374999999762,0.026216596916160236,1.0413120813048946,36.111111111111114,0.9285714285475513,0.9882812500000081,0.0,0.9985023432927328,0
188,131.49444444444444,0.7027777777777828,0.700000000000017,0.7111111111111104,0.9882812500000081,0.02401903032721531,0.9540256708734258,33.333333333333336,0.8571428571208165,0.984375000000025,0.0,0.9946023773999761,0
189,132.19444444444446,0.700000000000017,0.7194444444444343,0.7111111111111104,0.984375000000025,0.027016927680411033,1.0731008789325767,38.888888888888886,0.9999999999742858,1.011718749999987,0.0,0.9959598377008254,0
190,132.9138888888889,0.7194444444444343,0.7222222222222285,0.7111111111111104,1.011718749999987,0.02538022740824923,1.008091840103951,36.111111111111114,0.9285714285475513,1.01562500000001,0.0,0.9921751166292186,0
191,133.63611111111112,0.7222222222222285,0.7055555555555486,0.7111111111111104,1.01562500000001,0.02545236295792604,1.0109570334625797,38.888888888888886,0.9999999999742858,0.9921874999999912,0.0,0.9960792002925896,0
192,134.34166666666667,0.7055555555555486,0.6888888888888971,0.7111111111111104,0.9921874999999912,0.023148534618207907,0.9194499514765758,36.111111111111114,0.9285714285475513,0.9687500000000125,0.0,0.993353467638763,0
193,135.03055555555557,0.6888888888888971,0.7222222222222001,0.7111111111111104,0.9687500000000125,0.024403305101734128,0.9692889015103703,36.111111111111114,0.9285714285475513,1.01562499999997,0.0,0.9945573152800394,0
194,135.75277777777777,0.7222222222222001,0.6972222222222229,0.7111111111111104,1.01562499999997,0.021523233540337774,0.8548936837978829,33.333333333333336,0.8571428571208165,0.9804687500000019,0.0,0.9881235264689898,0
195,136.45,0.6972222222222229,0.7083333333333428,0.7111111111111104,0.9804687500000019,0.02541568009830485,1.0095000058772483,36.111111111111114,0.9285714285475513,0.9960937500000143,0.0,0.995452276147203,0
196,137.15833333333333,0.7083333333333428,0.7277777777777885,0.7111111111111104,0.9960937500000143,0.02545232380276808,1.0109554782363557,36.111111111111114,0.9285714285475513,1.0234375000000162,0.0,0.9945376346396806,0
197,137.88611111111112,0.7277777777777885,0.7138888888888744,0.7111111111111104,1.0234375000000162,0.027576575084371925,1.0953298358364445,41.666666666666664,1.0714285714010205,1.0039062499999807,0.0,0.9945812522988782,0
198,138.6,0.7138888888888744,0.6944444444444571,0.7111111111111104,1.0039062499999807,0.02478673561083432,0.9845185982838978,36.111111111111114,0.9285714285475513,0.9765625000000188,0.0,0.9889765925961338,0
199,139.29444444444445,0.6944444444444571,0.7055555555555486,0.7111111111111104,0.9765625000000188,0.026027519762657977,1.033802017169939,38.888888888888886,0.9999999999742858,0.9921874999999912,0.0,0.9897279009562782,0
200,140.0,0.7055555555555486,0.7361111111111143,0.7111111111111104,0.9921874999999912,0.02340326689956607,0.9295678093711337,36.111111111111114,0.9285714285475513,1.0351562500000056,0.0,0.9875938688758577,0
201,140.73611111111111,0.7361111111111143,0.7083333333333428,0.7111111111111104,1.0351562500000056,0.025061164113798728,0.99541878172514,36.111111111111114,0.9285714285475513,0.9960937500000143,0.0,0.9979502285525952,0
202,141.44444444444446,0.7083333333333428,0.7166666666666401,0.7111111111111104,0.9960937500000143,0.023839466524676518,0.9468934729933328,36.111111111111114,0.9285714285475513,1.0078124999999638,0.0,0.9964027413207522,0
203,142.1611111111111,0.7166666666666401,0.7194444444444628,0.7111111111111104,1.0078124999999638,0.025428531734305405,1.0100104673942296,36.111111111111114,0.9285714285475513,1.0117187500000269,0.0,0.9927364378989904,0
204,142.88055555555556,0.7194444444444628,0.7138888888888744,0.7111111111111104,1.0117187500000269,0.025410190874212403,1.0092819762305045,36.111111111111114,0.9285714285475513,1.0039062499999807,0.0,0.9959810504253851,0
205,143.59444444444443,0.7138888888888744,0.7083333333333428,0.7111111111111104,1.0039062499999807,0.02648920143821633,1.0521398170000784,38.888888888888886,0.9999999999742858,0.9960937500000143,0.0,0.9935487015560287,0
206,144.30277777777778,0.7083333333333428,0.7166666666666686,0.7111111111111104,0.9960937500000143,0.02551021997384363,1.0132550895320194,38.888888888888886,0.9999999999742858,1.0078125000000038,0.0,0.9897229252369009,0
207,145.01944444444445,0.7166666666666686,0.7249999999999943,0.7111111111111104,1.0078125000000038,0.02596887491772066,1.0314726688668479,41.666666666666664,1.0714285714010205,1.0195312499999931,0.0,0.9880292720746244,0
208,145.74444444444444,0.7249999999999943,0.7083333333333428,0.7111111111111104,1.0195312499999931,0.023596747542513046,0.9372527782343172,36.111111111111114,0.9285714285475513,0.9960937500000143,0.0,0.9913572839515143,0
209,146.45277777777778,0.7083333333333428,0.7083333333333144,0.7111111111111104,0.9960937500000143,0.02524326069545841,1.0026515805148895,38.888888888888886,0.9999999999742858,0.9960937499999744,0.0,0.9950016634950103,0
210,147.1611111111111,0.7083333333333144,0.7194444444444628,0.7111111111111104,0.9960937499999744,0.02418171021396929,0.9604872467981718,36.111111111111114,0.9285714285475513,1.0117187500000269,0.0,0.9940658722658251,0
211,147.88055555555556,0.7194444444444628,0.7166666666666686,0.7111111111111104,1.0117187500000269,0.027111387828593347,1.0768527958506517,38.888888888888886,0.9999999999742858,1.0078125000000038,0.0,0.9916963350414526,0
212,148.59722222222223,0.7166666666666686,0.6999999999999886,0.7111111111111104,1.0078125000000038,0.023419570305950137,0.9302153737399358,33.333333333333336,0.8571428571208165,0.984374999999985,0.0,0.9908439755158336,0
213,149.29722222222222,0.6999999999999886,0.6750000000000114,0.7111111111111104,0.984374999999985,0.025690036818097783,1.0203973381214444,38.888888888888886,0.9999999999742858,0.949218750000017,0.0,0.993849281347798,0
214,149.97222222222223,0.6750000000000114,0.7027777777777828,0.7111111111111104,0.949218750000017,0.025642313033485634,1.018501769690456,36.111111111111114,0.9285714285475513,0.9882812500000081,0.0,0.9955978634114747,0
215,150.675,0.7027777777777828,0.6833333333333087,0.7111111111111104,0.9882812500000081,0.0248901696750363,0.988626955330254,38.888888888888886,0.9999999999742858,0.9609374999999664,0.0,0.994557876930327,0
216,151.35833333333332,0.6833333333333087,0.6888888888888971,0.7111111111111104,0.9609374999999664,0.027309869387706676,1.0847363989774,41.666666666666664,1.0714285714010205,0.9687500000000125,0.0,0.9853422393713861,0
217,152.04722222222222,0.6888888888888971,0.7111111111111086,0.7111111111111104,0.9687500000000125,0.02606186757331077,1.0351662976031892,38.888888888888886,0.9999999999742858,0.9999999999999974,0.0,0.9845595745372653,0
218,152.75833333333333,0.7111111111111086,0.6944444444444571,0.7111111111111104,0.9999999999999974,0.02562481755198806,1.0178068566050569,41.666666666666664,1.0714285714010205,0.9765625000000188,0.0,0.9862717522098423,0
219,153.45277777777778,0.6944444444444571,0.6888888888888971,0.7111111111111104,0.9765625000000188,0.02420000273345502,0.9612138178935322,36.111111111111114,0.9285714285475513,0.9687500000000125,0.0,0.9945771344449114,0
220,154.14166666666668,0.6888888888888971,0.6972222222222229,0.7111111111111104,0.9687500000000125,0.02635725999248639,1.0468991588817576,38.888888888888886,0.9999999999742858,0.9804687500000019,0.0,0.9926492724422902,0
221,154.8388888888889,0.6972222222222229,0.7027777777777544,0.7111111111111104,0.9804687500000019,0.024031223415625157,0.9545099751601415,36.111111111111114,0.9285714285475513,0.9882812499999681,0.0,0.9844456093338816,0
222,155.54166666666666,0.7027777777777544,0.6916666666666629,0.7111111111111104,0.9882812499999681,0.02613060038200928,1.0378963355371231,38.888888888888886,0.9999999999742858,0.9726562499999957,0.0,0.9872464189620969,0
223,156.23333333333332,0.6916666666666629,0.7027777777777828,0.7111111111111104,0.9726562499999957,0.025203396831427034,1.0010682047870587,38.888888888888886,0.9999999999742858,0.9882812500000081,0.0,0.9932351095769603,0
224,156.9361111111111,0.7027777777777828,0.6944444444444571,0.7111111111111104,0.9882812500000081,0.02338024078702272,0.9286532219724124,33.333333333333336,0.8571428571208165,0.9765625000000188,0.0,0.9948940025263564,0
225,157.63055555555556,0.6944444444444571,0.7027777777777828,0.7111111111111104,0.9765625000000188,0.026753858264697172,1.0626518736066488,38.888888888888886,0.9999999999742858,0.9882812500000081,0.0,0.9946812558356839,0
226,158.33333333333334,0.7027777777777828,0.6999999999999886,0.7111111111111104,0.9882812500000081,0.02410505783001388,0.9574426467027114,33.333333333333336,0.8571428571208165,0.984374999999985,0.0,0.9944980296717976,0
227,159.03333333333333,0.6999999999999886,0.6999999999999886,0.7111111111111104,0.984374999999985,0.026222880603235906,1.0415616666834988,38.888888888888886,0.9999999999742858,0.984374999999985,0.0,0.9952514618599853,0
228,159.73333333333332,0.6999999999999886,0.7138888888889028,0.7111111111111104,0.984374999999985,0.02471277525481616,0.9815809243933613,36.111111111111114,0.9285714285475513,1.0039062500000207,0.0,0.9945198536193143,0
229,160.44722222222222,0.7138888888889028,0.6944444444444571,0.7111111111111104,1.0039062500000207,0.026593149122885906,1.0562685748329983,41.666666666666664,1.0714285714010205,0.9765625000000188,0.0,0.9885965314088866,0
230,161.14166666666668,0.6944444444444571,0.6999999999999886,0.7111111111111104,0.9765625000000188,0.023912694207550406,0.9498020454181367,36.111111111111114,0.9285714285475513,0.984374999999985,0.0,0.989190415834577,0
231,161.84166666666667,0.6999999999999886,0.7055555555555486,0.7111111111111104,0.984374999999985,0.025789710443026165,1.0243563321189222,38.888888888888886,0.9999999999742858,0.9921874999999912,0.0,0.9945475849068471,0
232,162.54722222222222,0.7055555555555486,0.700000000000017,0.7111111111111104,0.9921874999999912,0.02678504995138041,1.0638907941379214,38.888888888888886,0.9999999999742858,0.984375000000025,0.0,0.9943878872710833,0
233,163.24722222222223,0.700000000000017,0.7055555555555486,0.7111111111111104,0.984375000000025,0.024125504725230233,0.9582547886859769,36.111111111111114,0.9285714285475513,0.9921874999999912,0.0,0.9962642483277417,0
234,163.95277777777778,0.7055555555555486,0.6916666666666629,0.7111111111111104,0.9921874999999912,0.025855093489360607,1.0269533189161906,38.888888888888886,0.9999999999742858,0.9726562499999957,0.0,0.9968509542626149,0
235,164.64444444444445,0.6916666666666629,0.7111111111111086,0.7111111111111104,0.9726562499999957,0.024701792904556312,0.9811447101111158,36.111111111111114,0.9285714285475513,0.9999999999999974,0.0,0.998355392274276,0
236,165.35555555555555,0.7111111111111086,0.6972222222222229,0.7111111111111104,0.9999999999999974,0.02603041065412178,1.0339168421495741,38.888888888888886,0.9999999999742858,0.9804687500000019,0.0,0.9986067748684512,0
237,166.05277777777778,0.6972222222222229,0.6999999999999886,0.7111111111111104,0.9804687500000019,0.02498365066000551,0.9923399803018786,36.111111111111114,0.9285714285475513,0.984374999999985,0.0,0.9975557974265227,0
238,166.75277777777777,0.6999999999999886,0.7027777777777828,0.7111111111111104,0.984374999999985,0.026440121465780814,1.0501903813654438,38.888888888888886,0.9999999999742858,0.9882812500000081,0.0,0.9971741377830616,0
239,167.45555555555555,0.7027777777777828,0.7027777777777828,0.7111111111111104,0.9882812500000081,0.025678340520913404,1.0199327661709514,36.111111111111114,0.9285714285475513,0.9882812500000081,0.0,0.9938050672740255,0
240,168.15833333333333,0.7027777777777828,0.6916666666666629,0.7111111111111104,0.9882812500000081,0.02662672382512531,1.0576021477288213,41.666666666666664,1.0714285714010205,0.9726562499999957,0.0,0.9912489208792452,0
241,168.85,0.6916666666666629,0.6888888888888971,0.7111111111111104,0.9726562499999957,0.02564160580700416,1.0184736789553488,38.888888888888886,0.9999999999742858,0.9687500000000125,0.0,0.9885091414337677,0
242,169.5388888888889,0.6888888888888971,0.7111111111111086,0.7111111111111104,0.9687500000000125,0.024752883417367918,0.9831740035545373,38.888888888888886,0.9999999999742858,0.9999999999999974,0.0,0.9960526921548897,0
243,170.25,0.7111111111111086,0.6888888888888971,0.7111111111111104,0.9999999999999974,0.025831180450339247,1.0260035031749146,38.888888888888886,0.9999999999742858,0.9687500000000125,0.0,0.9966155770504206,0
244,170.9388888888889,0.6888888888888971,0.6972222222222229,0.7111111111111104,0.9687500000000125,0.023725968974877255,0.9423853985783951,33.333333333333336,0.8571428571208165,0.9804687500000019,0.0,0.9948341199617323,0
245,171.63611111111112,0.6972222222222229,0.6833333333333371,0.7111111111111104,0.9804687500000019,0.02478169350566361,0.9843183280105948,38.888888888888886,0.9999999999742858,0.9609375000000063,0.0,0.9972806108591952,0
246,172.31944444444446,0.6833333333333371,0.6972222222222229,0.7111111111111104,0.9609375000000063,0.024308097061578757,0.9655072786411549,38.888888888888886,0.9999999999742858,0.9804687500000019,0.0,0.9968504325645875,0
247,173.01666666666668,0.6972222222222229,0.7055555555555486,0.7111111111111104,0.9804687500000019,0.025128250710502262,0.9980834328186601,38.888888888888886,0.9999999999742858,0.9921874999999912,0.0,0.9978377136714435,0
248,173.72222222222223,0.7055555555555486,0.6972222222222229,0.7111111111111104,0.9921874999999912,0.02645003113809547,1.0505839893358462,38.888888888888886,0.9999999999742858,0.9804687500000019,0.0,0.9966633153578897,0
249,174.41944444444445,0.6972222222222229,0.7138888888888744,0.7111111111111104,0.9804687500000019,0.02689495719777474,1.0682562632283368,38.888888888888886,0.9999999999742858,1.0039062499999807,0.0,0.9928480749627753,0
250,175.13333333333333,0.7138888888888744,0.6916666666666629,0.7111111111111104,1.0039062499999807,0.02771073249312702,1.1006585110638203,41.666666666666664,1.0714285714010205,0.9726562499999957,0.0,0.9926856839883018,0
251,175.825,0.6916666666666629,0.7083333333333428,0.7111111111111104,0.9726562499999957,0.02442230753937976,0.9700436702531602,36.111111111111114,0.9285714285475513,0.9960937500000143,0.0,0.989010267565325,0
252,176.53333333333333,0.7083333333333428,0.7083333333333428,0.7111111111111104,0.9960937500000143,0.026577478599219603,1.0556461482966222,38.888888888888886,0.9999999999742858,0.9960937500000143,0.0,0.9952264444958117,0
253,177.24166666666667,0.7083333333333428,0.7305555555555543,0.7111111111111104,0.9960937500000143,0.025592719768928192,1.016531946311008,38.888888888888886,0.9999999999742858,1.0273437499999993,0.0,0.9979118398325825,0
254,177.97222222222223,0.7305555555555543,0.7194444444444343,0.7111111111111104,1.0273437499999993,0.025938573118005796,1.030269094267548,38.888888888888886,0.9999999999742858,1.011718749999987,0.0,0.9952898017757885,0
255,178.69166666666666,0.7194444444444343,0.7055555555555486,0.7111111111111104,1.011718749999987,0.026766630146638035,1.0631591673262932,38.888888888888886,0.9999999999742858,0.9921874999999912,0.0,0.9892991293598117,0
256,179.3972222222222,0.7055555555555486,0.7194444444444628,0.7111111111111104,0.9921874999999912,0.026524026441825478,1.053523051334636,41.666666666666664,1.0714285714010205,1.0117187500000269,0.0,0.9894653723611924,0
257,180.11666666666667,0.7194444444444628,0.7166666666666686,0.7111111111111104,1.0117187500000269,0.025372028077990643,1.0077661661927189,38.888888888888886,0.9999999999742858,1.0078125000000038,0.0,0.9933794034478973,0
258,180.83333333333334,0.7166666666666686,0.7083333333333144,0.7111111111111104,1.0078125000000038,0.02662439863935933,1.057509792338946,41.666666666666664,1.0714285714010205,0.9960937499999744,0.0,0.983032789054433,0
259,181.54166666666666,0.7083333333333144,0.7138888888889028,0.7111111111111104,0.9960937499999744,0.025970550083100664,1.0315392057234032,41.666666666666664,1.0714285714010205,1.0039062500000207,0.0,0.9823821240362314,0
260,182.25555555555556,0.7138888888889028,0.7166666666666686,0.7111111111111104,1.0039062500000207,0.026980798355945534,1.071665837528247,41.666666666666664,1.0714285714010205,1.0078125000000038,0.0,0.9811066843053611,0
261,182.97222222222223,0.7166666666666686,0.7111111111111086,0.7111111111111104,1.0078125000000038,0.02654410933161856,1.054320735177277,38.888888888888886,0.9999999999742858,0.9999999999999974,0.0,0.9927194038901892,0
262,183.68333333333334,0.7111111111111086,0.7055555555555486,0.7111111111111104,0.9999999999999974,0.026264906080854928,1.0432309007838376,38.888888888888886,0.9999999999742858,0.9921874999999912,0.0,0.9932166070452666,0
263,184.38888888888889,0.7055555555555486,0.7361111111111143,0.7111111111111104,0.9921874999999912,0.026873422888815397,1.0674009296336056,38.888888888888886,0.9999999999742858,1.0351562500000056,0.0,0.9916078322446082,0
264,185.125,0.7361111111111143,0.7138888888889028,0.7111111111111104,1.0351562500000056,0.02541288581811591,1.0093890182563685,38.888888888888886,0.9999999999742858,1.0039062500000207,0.0,0.9861989232914627,0
265,185.8388888888889,0.7138888888889028,0.7194444444444343,0.7111111111111104,1.0039062500000207,0.0258917544783005,1.028409477807361,41.666666666666664,1.0714285714010205,1.011718749999987,0.0,0.9825123047895361,0
266,186.55833333333334,0.7194444444444343,0.7222222222222285,0.7111111111111104,1.011718749999987,0.02454508499568427,0.9749203386083486,36.111111111111114,0.9285714285475513,1.01562500000001,0.0,0.9882080535547715,0
267,187.28055555555557,0.7222222222222285,0.7166666666666686,0.7111111111111104,1.01562500000001,0.02742225835884752,1.0892004411194314,41.666666666666664,1.0714285714010205,1.0078125000000038,0.0,0.992560772569911,0
268,187.99722222222223,0.7166666666666686,0.7305555555555543,0.7111111111111104,1.0078125000000038,0.024369166064382733,0.9679329134638739,36.111111111111114,0.9285714285475513,1.0273437499999993,0.0,0.9952974575721003,0
269,188.7277777777778,0.7305555555555543,0.7194444444444343,0.7111111111111104,1.0273437499999993,0.02563295848035285,1.0181302108179016,38.888888888888886,0.9999999999742858,1.011718749999987,0.0,0.9894332090729219,0
270,189.44722222222222,0.7194444444444343,0.7333333333333201,0.7111111111111104,1.011718749999987,0.02512027977088426,0.9977668304865527,41.666666666666664,1.0714285714010205,1.0312499999999825,0.0,0.9789946066474468,0
271,190.18055555555554,0.7333333333333201,0.7166666666666686,0.7111111111111104,1.0312499999999825,0.026363511969070896,1.0471474847331372,41.666666666666664,1.0714285714010205,1.0078125000000038,0.0,0.9779284719173325,0
272,190.8972222222222,0.7166666666666686,0.7166666666666686,0.7111111111111104,1.0078125000000038,0.026121817176323336,1.0375474703422007,38.888888888888886,0.9999999999742858,1.0078125000000038,0.0,0.9842359174511524,0
273,191.61388888888888,0.7166666666666686,0.74444444444444,0.7111111111111104,1.0078125000000038,0.02577918314069358,1.0239381921468456,38.888888888888886,0.9999999999742858,1.046874999999995,0.0,0.9899130621227576,0
274,192.35833333333332,0.74444444444444,0.7277777777777885,0.7111111111111104,1.046874999999995,0.0262043432490198,1.04082537085676,38.888888888888886,0.9999999999742858,1.0234375000000162,0.0,0.9956114679710826,0
275,193.0861111111111,0.7277777777777885,0.7222222222222285,0.7111111111111104,1.0234375000000162,0.023189216300513026,0.9210658105984749,36.111111111111114,0.9285714285475513,1.01562500000001,0.0,0.9920658384024773,0
276,193.80833333333334,0.7222222222222285,0.7111111111111086,0.7111111111111104,1.01562500000001,0.024730256209576227,0.9822752604829238,36.111111111111114,0.9285714285475513,0.9999999999999974,0.0,0.9978952124144105,0
277,194.51944444444445,0.7111111111111086,0.7138888888888744,0.7111111111111104,0.9999999999999974,0.024399583316786766,0.9691410737948929,36.111111111111114,0.9285714285475513,1.0039062499999807,0.0,0.9940940565167801,0
278,195.23333333333332,0.7138888888888744,0.705555555555577,0.7111111111111104,1.0039062499999807,0.026670563863991092,1.0593434554302672,38.888888888888886,0.9999999999742858,0.9921875000000312,0.0,0.9970465862325908,0
279,195.9388888888889,0.705555555555577,0.7138888888888744,0.7111111111111104,0.9921875000000312,0.02515264114949297,0.9990522106837115,36.111111111111114,0.9285714285475513,1.0039062499999807,0.0,0.9984263063451493,0
280,196.65277777777777,0.7138888888888744,0.7222222222222285,0.7111111111111104,1.0039062499999807,0.024964208101627534,0.9915677301507545,38.888888888888886,0.9999999999742858,1.01562500000001,0.0,0.9970941360960341,0
281,197.375,0.7222222222222285,0.7055555555555486,0.7111111111111104,1.01562500000001,0.023430921314864205,0.9306662309871604,33.333333333333336,0.8571428571208165,0.9921874999999912,0.0,0.9917266225074878,0
282,198.08055555555555,0.7055555555555486,0.6833333333333371,0.7111111111111104,0.9921874999999912,0.02748124726622313,1.0915434554362642,38.888888888888886,0.9999999999742858,0.9609375000000063,0.0,0.9896462854210535,0
283,198.76388888888889,0.6833333333333371,0.7333333333333485,0.7111111111111104,0.9609375000000063,0.024906514916165273,0.9892761813573341,36.111111111111114,0.9285714285475513,1.0312500000000224,0.0,0.9930359463649445,0
284,199.49722222222223,0.7333333333333485,0.6944444444444287,0.7111111111111104,1.0312500000000224,0.026118895301528198,1.0374314147178203,41.666666666666664,1.0714285714010205,0.9765624999999788,0.0,0.9877928554177704,0
285,200.19166666666666,0.6944444444444287,0.7138888888889028,0.7111111111111104,0.9765624999999788,0.02570378981134256,1.0209436011648778,38.888888888888886,0.9999999999742858,1.0039062500000207,0.0,0.9900276331533848,0
286,200.90555555555557,0.7138888888889028,0.6944444444444287,0.7111111111111104,1.0039062500000207,0.02557183079093029,1.0157022449876483,38.888888888888886,0.9999999999742858,0.9765624999999788,0.0,0.9942208960484411,0
287,201.6,0.6944444444444287,0.7194444444444628,0.7111111111111104,0.9765624999999788,0.025368661375560573,1.007632442203835,36.111111111111114,0.9285714285475513,1.0117187500000269,0.0,0.9967878475722378,0
288,202.31944444444446,0.7194444444444628,0.7083333333333144,0.7111111111111104,1.0117187500000269,0.02813591665223823,1.1175466450606872,41.666666666666664,1.0714285714010205,0.9960937499999744,0.0,0.9934343823254601,0
289,203.02777777777777,0.7083333333333144,0.700000000000017,0.7111111111111104,0.9960937499999744,0.024397045527083577,0.9690402738670383,36.111111111111114,0.9285714285475513,0.984375000000025,0.0,0.9942315623394153,0
290,203.7277777777778,0.700000000000017,0.7277777777777601,0.7111111111111104,0.984375000000025,0.026914473737282486,1.0690314518784758,38.888888888888886,0.9999999999742858,1.0234374999999762,0.0,0.9934283593284794,0
291,204.45555555555555,0.7277777777777601,0.6944444444444571,0.7111111111111104,1.0234374999999762,0.026777493093115452,1.0635906389410752,41.666666666666664,1.0714285714010205,0.9765625000000188,0.0,0.9879644613299483,0
292,205.15,0.6944444444444571,0.6972222222222229,0.7111111111111104,0.9765625000000188,0.025391493510898366,1.0085393249104375,41.666666666666664,1.0714285714010205,0.9804687500000019,0.0,0.9868162128805862,0
293,205.84722222222223,0.6972222222222229,0.6916666666666629,0.7111111111111104,0.9804687500000019,0.02594301858658816,1.0304456663892725,38.888888888888886,0.9999999999742858,0.9726562499999957,0.0,0.9871548889870352,0
294,206.5388888888889,0.6916666666666629,0.7083333333333428,0.7111111111111104,0.9726562499999957,0.026423519856372254,1.0495309724993152,41.666666666666664,1.0714285714010205,0.9960937500000143,0.0,0.9896405025167776,0
295,207.24722222222223,0.7083333333333428,0.6916666666666629,0.7111111111111104,0.9960937500000143,0.026629978901419365,1.05773143797505,38.888888888888886,0.9999999999742858,0.9726562499999957,0.0,0.9929045194676871,0
296,207.9388888888889,0.6916666666666629,0.6666666666666572,0.7111111111111104,0.9726562499999957,0.024958702601434287,0.9913490540242081,36.111111111111114,0.9285714285475513,0.9374999999999877,0.0,0.9918642203601624,0
297,208.60555555555555,0.6666666666666572,0.7055555555555486,0.7111111111111104,0.9374999999999877,0.025646313932250617,1.0186606836880803,36.111111111111114,0.9285714285475513,0.9921874999999912,0.0,0.9942102102037811,0
298,209.3111111111111,0.7055555555555486,0.6888888888888971,0.7111111111111104,0.9921874999999912,0.027642470654235543,1.0979471798503488,41.666666666666664,1.0714285714010205,0.9687500000000125,0.0,0.9847351636573831,0
299,210.0,0.6888888888888971,0.6916666666666629,0.7111111111111104,0.9687500000000125,0.026227306564482186,1.0417374639821289,38.888888888888886,0.9999999999742858,0.9726562499999957,0.0,0.9861578566278937,0
300,210.69166666666666,0.6916666666666629,0.7027777777777828,0.7111111111111104,0.9726562499999957,0.025525796807138283,1.013873794726674,38.888888888888886,0.9999999999742858,0.9882812500000081,0.0,0.9944373609144278,0
301,211.39444444444445,0.7027777777777828,0.7138888888888744,0.7111111111111104,0.9882812500000081,0.024759235680768057,0.9834263127555884,36.111111111111114,0.9285714285475513,1.0039062499999807,0.0,0.9958210395791525,0
302,212.10833333333332,0.7138888888888744,0.7138888888889028,0.7111111111111104,1.0039062499999807,0.02695523895527761,1.0706506290024596,38.888888888888886,0.9999999999742858,1.0039062500000207,0.0,0.9933888331626111,0
303,212.82222222222222,0.7138888888889028,0.7027777777777828,0.7111111111111104,1.0039062500000207,0.023798872357079635,0.9452810899184306,36.111111111111114,0.9285714285475513,0.9882812500000081,0.0,0.9972632692025107,0
304,213.525,0.7027777777777828,0.73888888888888,0.7111111111111104,0.9882812500000081,0.0274169894682815,1.0889911630266638,38.888888888888886,0.9999999999742858,1.0390624999999887,0.0,0.992263580713779,0
305,214.26388888888889,0.73888888888888,0.7138888888889028,0.7111111111111104,1.0390624999999887,0.026125820610086392,1.0377064850288706,38.888888888888886,0.9999999999742858,1.0039062500000207,0.0,0.9929606650960098,0
306,214.9777777777778,0.7138888888889028,0.7083333333333144,0.7111111111111104,1.0039062500000207,0.027564287205230124,1.094841766502164,38.888888888888886,0.9999999999742858,0.9960937499999744,0.0,0.9883703196428404,0
307,215.6861111111111,0.7083333333333144,0.6972222222222229,0.7111111111111104,0.9960937499999744,0.024569272410838505,0.9758810524529482,38.888888888888886,0.9999999999742858,0.9804687500000019,0.0,0.9861490011099564,0
308,216.38333333333333,0.6972222222222229,0.7111111111111086,0.7111111111111104,0.9804687500000019,0.02717507802661323,1.0793825434327233,41.666666666666664,1.0714285714010205,0.9999999999999974,0.0,0.9847389542782655,0
309,217.09444444444443,0.7111111111111086,0.7111111111111086,0.7111111111111104,0.9999999999999974,0.02472146542217858,0.9819260941456365,36.111111111111114,0.9285714285475513,0.9999999999999974,0.0,0.9946676918164233,0
310,217.80555555555554,0.7111111111111086,0.700000000000017,0.7111111111111104,0.9999999999999974,0.02562317154327854,1.0177414778390548,38.888888888888886,0.9999999999742858,0.984375000000025,0.0,0.9968316747880391,0
311,218.50555555555556,0.700000000000017,0.7305555555555543,0.7111111111111104,0.984375000000025,0.024452356327440895,0.971237195337163,36.111111111111114,0.9285714285475513,1.0273437499999993,0.0,0.9971983260821058,0
312,219.23611111111111,0.7305555555555543,0.6916666666666629,0.7111111111111104,1.0273437499999993,0.02698261533715041,1.0717380072490614,38.888888888888886,0.9999999999742858,0.9726562499999957,0.0,0.9955063405825205,0
313,219.92777777777778,0.6916666666666629,0.6861111111111029,0.7111111111111104,0.9726562499999957,0.024469023476802163,0.9718992074223435,33.333333333333336,0.8571428571208165,0.9648437499999895,0.0,0.9950715137710221,0
314,220.61388888888888,0.6861111111111029,0.7250000000000227,0.7111111111111104,0.9648437499999895,0.027053784566109094,1.0745648187596795,38.888888888888886,0.9999999999742858,1.019531250000033,0.0,0.9956507754344079,0
315,221.3388888888889,0.7250000000000227,0.7027777777777544,0.7111111111111104,1.019531250000033,0.02498692409848519,0.992469999886312,38.888888888888886,0.9999999999742858,0.9882812499999681,0.0,0.9855914044646172,0
316,222.04166666666666,0.7027777777777544,0.7027777777777828,0.7111111111111104,0.9882812499999681,0.026641415246566248,1.0581856847411542,41.666666666666664,1.0714285714010205,0.9882812500000081,0.0,0.9805834428888935,0
317,222.74444444444444,0.7027777777777828,0.6861111111111029,0.7111111111111104,0.9882812500000081,0.027415938885744937,1.0889494343350554,41.666666666666664,1.0714285714010205,0.9648437499999895,0.0,0.9827583897702419,0
318,223.43055555555554,0.6861111111111029,0.7194444444444628,0.7111111111111104,0.9648437499999895,0.026831131329318577,1.0657211268742277,41.666666666666664,1.0714285714010205,1.0117187500000269,0.0,0.9947499067203097,0
319,224.15,0.7194444444444628,0.7027777777777828,0.7111111111111104,1.0117187500000269,0.026043502886892923,1.034436860067973,38.888888888888886,0.9999999999742858,0.9882812500000081,0.0,0.9968485265885778,0
320,224.8527777777778,0.7027777777777828,0.7194444444444343,0.7111111111111104,0.9882812500000081,0.025574189769573246,1.015795942616227,38.888888888888886,0.9999999999742858,1.011718749999987,0.0,0.9971835479875275,0
321,225.57222222222222,0.7194444444444343,0.7249999999999943,0.7111111111111104,1.011718749999987,0.02645440333993047,1.0507576513335206,38.888888888888886,0.9999999999742858,1.0195312499999931,0.0,0.9965994401654404,0
322,226.29722222222222,0.7249999999999943,0.7222222222222285,0.7111111111111104,1.0195312499999931,0.029223581299196336,1.1607482223251853,41.666666666666664,1.0714285714010205,1.01562500000001,0.0,0.9898651989457884,0
323,227.01944444444445,0.7222222222222285,0.6916666666666629,0.7111111111111104,1.01562500000001,0.026612438377935744,1.0570347358411185,38.888888888888886,0.9999999999742858,0.9726562499999957,0.0,0.9958694844703204,0
324,227.7111111111111,0.6916666666666629,0.7138888888889028,0.7111111111111104,0.9726562499999957,0.026181128431449482,1.0399032881746115,38.888888888888886,0.9999999999742858,1.0039062500000207,0.0,0.992162386683882,0
325,228.425,0.7138888888889028,0.7249999999999943,0.7111111111111104,1.0039062500000207,0.02798147449195042,1.1114122681282108,41.666666666666664,1.0714285714010205,1.0195312499999931,0.0,0.9884267384495329,0
326,229.15,0.7249999999999943,0.7083333333333144,0.7111111111111104,1.0195312499999931,0.02766925191462066,1.0990109201245262,41.666666666666664,1.0714285714010205,0.9960937499999744,0.0,0.9915817263316395,0
327,229.85833333333332,0.7083333333333144,0.6944444444444571,0.7111111111111104,0.9960937499999744,0.026706660751522553,1.0607772084533702,38.888888888888886,0.9999999999742858,0.9765625000000188,0.0,0.9926460999425479,0
328,230.55277777777778,0.6944444444444571,0.7166666666666686,0.7111111111111104,0.9765625000000188,0.0244037728173218,0.9693074789746238,33.333333333333336,0.8571428571208165,1.0078125000000038,0.0,0.996152523816644,0
329,231.26944444444445,0.7166666666666686,0.6999999999999886,0.7111111111111104,1.0078125000000038,0.026930526449221857,1.0696690587705384,38.888888888888886,0.9999999999742858,0.984374999999985,0.0,0.9974554423807931,0
330,231.96944444444443,0.6999999999999886,0.7083333333333428,0.7111111111111104,0.984374999999985,0.02624694768962974,1.0425176011209032,38.888888888888886,0.9999999999742858,0.9960937500000143,0.0,0.9987276597182309,0
331,232.67777777777778,0.7083333333333428,0.7083333333333428,0.7111111111111104,0.9960937500000143,0.027111041460225617,1.0768390382463733,38.888888888888886,0.9999999999742858,0.9960937500000143,0.0,0.9936542650756764,0
332,233.38611111111112,0.7083333333333428,0.7305555555555543,0.7111111111111104,0.9960937500000143,0.02613615909312335,1.0381171251788175,38.888888888888886,0.9999999999742858,1.0273437499999993,0.0,0.9952664424233131,0
333,234.11666666666667,0.7305555555555543,0.6944444444444287,0.7111111111111104,1.0273437499999993,0.025798051556827937,1.0246876376121983,38.888888888888886,0.9999999999742858,0.9765624999999788,0.0,0.9977418302223666,0
334,234.8111111111111,0.6944444444444287,0.7111111111111086,0.7111111111111104,0.9765624999999788,0.025130046959909603,0.9981547790812921,38.888888888888886,0.9999999999742858,0.9999999999999974,0.0,0.9974582765152935,0
335,235.5222222222222,0.7111111111111086,0.7416666666666742,0.7111111111111104,0.9999999999999974,0.026921455914073765,1.069308780971562,38.888888888888886,0.9999999999742858,1.0429687500000118,0.0,0.9938390911224902,0
336,236.26388888888889,0.7416666666666742,0.7277777777777885,0.7111111111111104,1.0429687500000118,0.027899496954130135,1.1081561551856776,41.666666666666664,1.0714285714010205,1.0234375000000162,0.0,0.9962177373983685,0
337,236.99166666666667,0.7277777777777885,0.7305555555555543,0.7111111111111104,1.0234375000000162,0.026156760172618074,1.0389353912960555,38.888888888888886,0.9999999999742858,1.0273437499999993,0.0,0.99440428468981,0
338,237.72222222222223,0.7305555555555543,0.7138888888888744,0.7111111111111104,1.0273437499999993,0.028097875015323952,1.1160356474190736,38.888888888888886,0.9999999999742858,1.0039062499999807,0.0,0.9911665528955347,0
339,238.4361111111111,0.7138888888888744,0.7277777777777885,0.7111111111111104,1.0039062499999807,0.025226394769744146,1.0019816731174946,36.111111111111114,0.9285714285475513,1.0234375000000162,0.0,0.9940463399607127,0
340,239.1638888888889,0.7277777777777885,0.7027777777777828,0.7111111111111104,1.0234375000000162,0.026930580598297053,1.0696712095487793,41.666666666666664,1.0714285714010205,0.9882812500000081,0.0,0.9904291593258303,0
341,239.86666666666667,0.7027777777777828,0.7305555555555543,0.7111111111111104,0.9882812500000081,0.025093348347252145,0.996697125792059,38.888888888888886,0.9999999999742858,1.0273437499999993,0.0,0.9928056727062324,0
342,240.59722222222223,0.7305555555555543,0.74444444444444,0.7111111111111104,1.0273437499999993,0.02712285268379968,1.0773081750241937,41.666666666666664,1.0714285714010205,1.046874999999995,0.0,0.9904855049875123,0
343,241.34166666666667,0.74444444444444,0.7305555555555543,0.7111111111111104,1.046874999999995,0.026337712254666624,1.0461227310479315,41.666666666666664,1.0714285714010205,1.0273437499999993,0.0,0.9968099790077305,0
344,242.07222222222222,0.7305555555555543,0.7166666666666686,0.7111111111111104,1.0273437499999993,0.02516074545157607,0.9993741101162223,38.888888888888886,0.9999999999742858,1.0078125000000038,0.0,0.9943309056326822,0
345,242.7888888888889,0.7166666666666686,0.7416666666666742,0.7111111111111104,1.0078125000000038,0.025989251206556877,1.0322820063947187,38.888888888888886,0.9999999999742858,1.0429687500000118,0.0,0.9964565870793602,0
346,243.53055555555557,0.7416666666666742,0.7222222222222001,0.7111111111111104,1.0429687500000118,0.02513552105563608,0.9983722078357727,38.888888888888886,0.9999999999742858,1.01562499999997,0.0,0.9952019375116885,0
347,244.25277777777777,0.7222222222222001,0.7222222222222285,0.7111111111111104,1.01562499999997,0.025629660946115802,1.017999234160232,38.888888888888886,0.9999999999742858,1.01562500000001,0.0,0.9863706835547216,0
348,244.975,0.7222222222222285,0.7083333333333428,0.7111111111111104,1.01562500000001,0.02465062134450277,0.9791121975057088,38.888888888888886,0.9999999999742858,0.9960937500000143,0.0,0.9848025328081597,0
349,245.68333333333334,0.7083333333333428,0.7194444444444343,0.7111111111111104,0.9960937500000143,0.027665317100197526,1.0988546309688587,41.666666666666664,1.0714285714010205,1.011718749999987,0.0,0.9852807666086569,0
350,246.40277777777777,0.7194444444444343,0.7138888888889028,0.7111111111111104,1.011718749999987,0.0265074224254924,1.052863546866489,41.666666666666664,1.0714285714010205,1.0039062500000207,0.0,0.9891418060270485,0
351,247.11666666666667,0.7138888888889028,0.7083333333333144,0.7111111111111104,1.0039062500000207,0.02693733006773309,1.0699392956046705,41.666666666666664,1.0714285714010205,0.9960937499999744,0.0,0.9933133287229392,0
352,247.825,0.7083333333333144,0.7361111111111143,0.7111111111111104,0.9960937499999744,0.026442588183636387,1.0502883583497333,41.666666666666664,1.0714285714010205,1.0351562500000056,0.0,0.9896710713620023,0
353,248.5611111111111,0.7361111111111143,0.7027777777777828,0.7111111111111104,1.0351562500000056,0.026758222706717457,1.0628252273877825,41.666666666666664,1.0714285714010205,0.9882812500000081,0.0,0.983993701664201,0
354,249.26388888888889,0.7027777777777828,0.7166666666666686,0.7111111111111104,0.9882812500000081,0.025475055491021564,1.011858371227483,38.888888888888886,0.9999999999742858,1.0078125000000038,0.0,0.9916462391420056,0
355,249.98055555555555,0.7166666666666686,0.7083333333333428,0.7111111111111104,1.0078125000000038,0.026394227266421086,1.0483674832826786,38.888888888888886,0.9999999999742858,0.9960937500000143,0.0,0.9895739371141705,0
356,250.6888888888889,0.7083333333333428,0.7249999999999943,0.7111111111111104,0.9960937500000143,0.026399876014117172,1.048591849139124,38.888888888888886,0.9999999999742858,1.0195312499999931,0.0,0.9954828400559621,0
357,251.4138888888889,0.7249999999999943,0.6999999999999886,0.7111111111111104,1.0195312499999931,0.02543032284563601,1.0100816095746388,38.888888888888886,0.9999999999742858,0.984374999999985,0.0,0.9944712538607506,0
358,252.11388888888888,0.6999999999999886,0.7027777777777828,0.7111111111111104,0.984374999999985,0.026403525369778292,1.0487367999941513,38.888888888888886,0.9999999999742858,0.9882812500000081,0.0,0.9974383610066978,0
359,252.81666666666666,0.7027777777777828,0.700000000000017,0.7111111111111104,0.9882812500000081,0.025317545318145448,1.0056021341396242,38.888888888888886,0.9999999999742858,0.984375000000025,0.0,0.9962122368621673,0
360,253.51666666666668,0.700000000000017,0.6944444444444287,0.7111111111111104,0.984375000000025,0.025929489691706283,1.029908304437519,38.888888888888886,0.9999999999742858,0.9765624999999788,0.0,0.9986424851364333,0
361,254.2111111111111,0.6944444444444287,0.6944444444444571,0.7111111111111104,0.9765624999999788,0.02612499637503622,1.0376737467631711,38.888888888888886,0.9999999999742858,0.9765625000000188,0.0,0.9979402878025453,0
362,254.90555555555557,0.6944444444444571,0.6944444444444287,0.7111111111111104,0.9765625000000188,0.023783638457721842,0.9446760059139208,36.111111111111114,0.9285714285475513,0.9765624999999788,0.0,0.9907608735941653,0
363,255.6,0.6944444444444287,0.6916666666666913,0.7111111111111104,0.9765624999999788,0.028452195008101314,1.130109086863058,44.44444444444444,1.1428571428277552,0.9726562500000356,0.0,0.9878964529036156,0
364,256.2916666666667,0.6916666666666913,0.6833333333333371,0.7111111111111104,0.9726562500000356,0.02733827576198247,1.0858646880842604,41.666666666666664,1.0714285714010205,0.9609375000000063,0.0,0.9965519833511891,0
365,256.975,0.6833333333333371,0.6861111111110745,0.7111111111111104,0.9609375000000063,0.02614443357480826,1.0384457840727461,38.888888888888886,0.9999999999742858,0.9648437499999495,0.0,0.9938647498066157,0
366,257.6611111111111,0.6861111111110745,0.7027777777777828,0.7111111111111104,0.9648437499999495,0.0258002136411614,1.0247735146825303,38.888888888888886,0.9999999999742858,0.9882812500000081,0.0,0.9965711973081659,0
367,258.3638888888889,0.7027777777777828,0.6833333333333371,0.7111111111111104,0.9882812500000081,0.0230318812872512,0.9148165307760119,36.111111111111114,0.9285714285475513,0.9609375000000063,0.0,0.9942847254558212,0
368,259.0472222222222,0.6833333333333371,0.6999999999999886,0.7111111111111104,0.9609375000000063,0.026926503532805998,1.069509270241184,38.888888888888886,0.9999999999742858,0.984374999999985,0.0,0.9928754284886173,0
369,259.7472222222222,0.6999999999999886,0.6722222222222172,0.7111111111111104,0.984374999999985,0.025602544139496322,1.0169221661323116,38.888888888888886,0.9999999999742858,0.9453124999999939,0.0,0.9937477028250368,0
370,260.4194444444444,0.6722222222222172,0.6944444444444571,0.7111111111111104,0.9453124999999939,0.025745655859368298,1.0226065027895666,38.888888888888886,0.9999999999742858,0.9765625000000188,0.0,0.9977624850677284,0
371,261.1138888888889,0.6944444444444571,0.6666666666666856,0.7111111111111104,0.9765625000000188,0.027103598929723607,1.0765434240996552,41.666666666666664,1.0714285714010205,0.9375000000000276,0.0,0.9940873909643165,0
372,261.78055555555557,0.6666666666666856,0.6888888888888687,0.7111111111111104,0.9375000000000276,0.025201428232171915,1.000990012861762,36.111111111111114,0.9285714285475513,0.9687499999999726,0.0,0.9914079525407737,0
373,262.46944444444443,0.6888888888888687,0.6750000000000114,0.7111111111111104,0.9687499999999726,0.02594493853735268,1.0305219260172096,36.111111111111114,0.9285714285475513,0.949218750000017,0.0,0.9935570083452269,0
374,263.14444444444445,0.6750000000000114,0.6833333333333371,0.7111111111111104,0.949218750000017,0.028492840784717085,1.1317235198262445,38.888888888888886,0.9999999999742858,0.9609375000000063,0.0,0.9919452236257174,0
375,263.8277777777778,0.6833333333333371,0.6750000000000114,0.7111111111111104,0.9609375000000063,0.022257257456148455,0.884048801601492,36.111111111111114,0.9285714285475513,0.949218750000017,0.0,0.9857581785280447,0
376,264.5027777777778,0.6750000000000114,0.669444444444423,0.7111111111111104,0.949218750000017,0.026762139206696168,1.0629807891015055,38.888888888888886,0.9999999999742858,0.9414062499999708,0.0,0.9930725857736085,0
377,265.1722222222222,0.669444444444423,0.6944444444444571,0.7111111111111104,0.9414062499999708,0.025015169217307415,0.9935918839951281,38.888888888888886,0.9999999999742858,0.9765625000000188,0.0,0.9942520031956849,0
378,265.8666666666667,0.6944444444444571,0.6722222222222172,0.7111111111111104,0.9765625000000188,0.024291592632770895,0.9648517297471615,38.888888888888886,0.9999999999742858,0.9453124999999939,0.0,0.9940853386160649,0
379,266.5388888888889,0.6722222222222172,0.6916666666666629,0.7111111111111104,0.9453124999999939,0.02431939473325796,0.9659560173560916,36.111111111111114,0.9285714285475513,0.9726562499999957,0.0,0.9909166063827702,0
380,267.23055555555555,0.6916666666666629,0.6638888888888914,0.7111111111111104,0.9726562499999957,0.023769454465659492,0.9441126237807288,38.888888888888886,0.9999999999742858,0.9335937500000046,0.0,0.994002345397548,0
381,267.89444444444445,0.6638888888888914,0.6833333333333371,0.7111111111111104,0.9335937500000046,0.0230454449455296,0.9153552735150927,36.111111111111114,0.9285714285475513,0.9609375000000063,0.0,0.9870504703360987,0
382,268.5777777777778,0.6833333333333371,0.6777777777777487,0.7111111111111104,0.9609375000000063,0.025611553354037857,1.0172800083028712,38.888888888888886,0.9999999999742858,0.9531249999999601,0.0,0.9921642949704443,0
383,269.25555555555553,0.6777777777777487,0.6861111111111313,0.7111111111111104,0.9531249999999601,0.02675540830800446,1.0627134406676821,38.888888888888886,0.9999999999742858,0.9648437500000294,0.0,0.9918757419472106,0
384,269.94166666666666,0.6861111111111313,0.6750000000000114,0.7111111111111104,0.9648437500000294,0.027907329960350752,1.1084672788618948,36.111111111111114,0.9285714285475513,0.949218750000017,0.0,0.9935235159621407,0
385,270.6166666666667,0.6750000000000114,0.6888888888888687,0.7111111111111104,0.949218750000017,0.02813418029547935,1.1174776777085835,38.888888888888886,0.9999999999742858,0.9687499999999726,0.0,0.9953124553441532,0
386,271.30555555555554,0.6888888888888687,0.6666666666666856,0.7111111111111104,0.9687499999999726,0.026790759317784792,1.0641175677436832,38.888888888888886,0.9999999999742858,0.9375000000000276,0.0,0.9949574030129715,0
387,271.97222222222223,0.6666666666666856,0.6805555555555429,0.7111111111111104,0.9375000000000276,0.024714260490923172,0.981639917339958,36.111111111111114,0.9285714285475513,0.9570312499999832,0.0,0.9960011459967932,0
388,272.65277777777777,0.6805555555555429,0.6916666666666629,0.7111111111111104,0.9570312499999832,0.0269359851709061,1.0698858768745991,41.666666666666664,1.0714285714010205,0.9726562499999957,0.0,0.9968881578743155,0
389,273.34444444444443,0.6916666666666629,0.6805555555555429,0.7111111111111104,0.9726562499999957,0.02580053398508739,1.0247862386070492,36.111111111111114,0.9285714285475513,0.9570312499999832,0.0,0.9965475487287241,0
390,274.025,0.6805555555555429,0.6888888888889255,0.7111111111111104,0.9570312499999832,0.023338354612166375,0.9269895209185706,33.333333333333336,0.8571428571208165,0.9687500000000525,0.0,0.9940134358213248,0
391,274.7138888888889,0.6888888888889255,0.6750000000000114,0.7111111111111104,0.9687500000000525,0.025034920241094327,0.9943763862611248,36.111111111111114,0.9285714285475513,0.949218750000017,0.0,0.9980755129115517,0
392,275.3888888888889,0.6750000000000114,0.6861111111110745,0.7111111111111104,0.949218750000017,0.024960008454622797,0.9914009219575617,38.888888888888886,0.9999999999742858,0.9648437499999495,0.0,0.9978269301995636,0
393,276.075,0.6861111111110745,0.7083333333333712,0.7111111111111104,0.9648437499999495,0.02425257482721638,0.9633019591022585,36.111111111111114,0.9285714285475513,0.9960937500000543,0.0,0.9975677374506864,0
394,276.78333333333336,0.7083333333333712,0.702777777777726,0.7111111111111104,0.9960937500000543,0.026478631473048537,1.051719982478329,38.888888888888886,0.9999999999742858,0.9882812499999282,0.0,0.9966434625841871,0
395,277.4861111111111,0.702777777777726,0.7083333333333712,0.7111111111111104,0.9882812499999282,0.025246282456942187,1.0027716035960674,38.888888888888886,0.9999999999742858,0.9960937500000543,0.0,0.9967239040190323,0
396,278.19444444444446,0.7083333333333712,0.6888888888888687,0.7111111111111104,0.9960937500000543,0.02745650536060054,1.09056071746605,38.888888888888886,0.9999999999742858,0.9687499999999726,0.0,0.9961010248883984,0
397,278.8833333333333,0.6888888888888687,0.6999999999999886,0.7111111111111104,0.9687499999999726,0.024236936914096893,0.9626808278429346,33.333333333333336,0.8571428571208165,0.984374999999985,0.0,0.9924028386561535,0
398,279.5833333333333,0.6999999999999886,0.6916666666666629,0.7111111111111104,0.984374999999985,0.025670285365272504,1.0196128188142262,38.888888888888886,0.9999999999742858,0.9726562499999957,0.0,0.995978291911569,0
399,280.275,0.6916666666666629,0.7083333333333712,0.7111111111111104,0.9726562499999957,0.02504431064746114,0.9947493692088887,38.888888888888886,0.9999999999742858,0.9960937500000543,0.0,0.99204227928173,0
400,280.98333333333335,0.7083333333333712,0.7138888888888459,0.7111111111111104,0.9960937500000543,0.025656535342109606,1.0190666737411818,41.666666666666664,1.0714285714010205,1.0039062499999407,0.0,0.982009623055649,0
401,281.6972222222222,0.7138888888888459,0.6916666666667197,0.7111111111111104,1.0039062499999407,0.027849173975494895,1.106157347873359,44.44444444444444,1.1428571428277552,0.9726562500000756,0.0,0.9838457227701063,0
402,282.3888888888889,0.6916666666667197,0.7138888888888459,0.7111111111111104,0.9726562500000756,0.024385736234067763,0.9685910735575533,36.111111111111114,0.9285714285475513,1.0039062499999407,0.0,0.992250402834262,0
403,283.10277777777776,0.7138888888888459,0.6916666666666629,0.7111111111111104,1.0039062499999407,0.026775154993418957,1.0634977706153714,38.888888888888886,0.9999999999742858,0.9726562499999957,0.0,0.9923062061875232,0
404,283.7944444444444,0.6916666666666629,0.716666666666697,0.7111111111111104,0.9726562499999957,0.026300013453555662,1.04462535069864,38.888888888888886,0.9999999999742858,1.0078125000000437,0.0,0.9931018888104423,0
405,284.5111111111111,0.716666666666697,0.6916666666666629,0.7111111111111104,1.0078125000000437,0.02572809337944443,1.0219089285551652,38.888888888888886,0.9999999999742858,0.9726562499999957,0.0,0.9906325022046814,0
406,285.2027777777778,0.6916666666666629,0.7250000000000227,0.7111111111111104,0.9726562499999957,0.02437093935928479,0.9680033479833172,38.888888888888886,0.9999999999742858,1.019531250000033,0.0,0.9894276178072767,0
407,285.9277777777778,0.7250000000000227,0.6972222222221944,0.7111111111111104,1.019531250000033,0.026388973981823834,1.0481588250523541,41.666666666666664,1.0714285714010205,0.9804687499999619,0.0,0.9878418337843748,0
408,286.625,0.6972222222221944,0.6916666666666629,0.7111111111111104,0.9804687499999619,0.024533553738863213,0.974462321990906,36.111111111111114,0.9285714285475513,0.9726562499999957,0.0,0.9939516616746276,0
409,287.31666666666666,0.6916666666666629,0.716666666666697,0.7111111111111104,0.9726562499999957,0.025275279055278935,1.003923336151645,36.111111111111114,0.9285714285475513,1.0078125000000437,0.0,0.9975492002085147,0
410,288.03333333333336,0.716666666666697,0.6999999999999886,0.7111111111111104,1.0078125000000437,0.025183220620919062,1.0002668142853055,36.111111111111114,0.9285714285475513,0.984374999999985,0.0,0.9943660489567316,0
411,288.73333333333335,0.6999999999999886,0.6999999999999886,0.7111111111111104,0.984374999999985,0.02648732620184598,1.0520653334088637,38.888888888888886,0.9999999999742858,0.984374999999985,0.0,0.9960700593422184,0
412,289.43333333333334,0.6999999999999886,0.669444444444423,0.7111111111111104,0.984374999999985,0.02659512682675933,1.0563471283898627,41.666666666666664,1.0714285714010205,0.9414062499999708,0.0,0.9924482392050691,0
413,290.10277777777776,0.669444444444423,0.6944444444444571,0.7111111111111104,0.9414062499999708,0.028121047886915496,1.1169560640247822,41.666666666666664,1.0714285714010205,0.9765625000000188,0.0,0.9946952073542378,0
414,290.7972222222222,0.6944444444444571,0.6750000000000114,0.7111111111111104,0.9765625000000188,0.02738668510988716,1.0877874867977033,38.888888888888886,0.9999999999742858,0.949218750000017,0.0,0.991088967818938,0
415,291.47222222222223,0.6750000000000114,0.6833333333333371,0.7111111111111104,0.949218750000017,0.024725505461300125,0.9820865627815797,36.111111111111114,0.9285714285475513,0.9609375000000063,0.0,0.9929677917771814,0
416,292.15555555555557,0.6833333333333371,0.6972222222221944,0.7111111111111104,0.9609375000000063,0.025902399682506013,1.0288323007916944,38.888888888888886,0.9999999999742858,0.9804687499999619,0.0,0.9891732646198041,0
417,292.85277777777776,0.6972222222221944,0.6777777777778056,0.7111111111111104,0.9804687499999619,0.025908209787558673,1.029063075693728,38.888888888888886,0.9999999999742858,0.9531250000000401,0.0,0.9913300598221194,0
418,293.53055555555557,0.6777777777778056,0.6833333333333371,0.7111111111111104,0.9531250000000401,0.023159535129042185,0.9198868870891151,33.333333333333336,0.8571428571208165,0.9609375000000063,0.0,0.9946421450125232,0
419,294.2138888888889,0.6833333333333371,0.6722222222222172,0.7111111111111104,0.9609375000000063,0.025560770019201907,1.01526291583802,41.666666666666664,1.0714285714010205,0.9453124999999939,0.0,0.9971280311936993,0
420,294.8861111111111,0.6722222222222172,0.6972222222221944,0.7111111111111104,0.9453124999999939,0.026101622635345878,1.0367453517619944,38.888888888888886,0.9999999999742858,0.9804687499999619,0.0,0.9964474325215364,0
421,295.5833333333333,0.6972222222221944,0.6833333333333371,0.7111111111111104,0.9804687499999619,0.02277449430639327,0.9045932293461936,33.333333333333336,0.8571428571208165,0.9609375000000063,0.0,0.9875958093332589,0
422,296.26666666666665,0.6833333333333371,0.6722222222222172,0.7111111111111104,0.9609375000000063,0.02626176202024572,1.0431060200334035,38.888888888888886,0.9999999999742858,0.9453124999999939,0.0,0.9942956321820652,0
423,296.93888888888887,0.6722222222222172,0.6777777777778056,0.7111111111111104,0.9453124999999939,0.023347639897728537,0.9273583285126746,38.888888888888886,0.9999999999742858,0.9531250000000401,0.0,0.9957782680590825,0
424,297.6166666666667,0.6777777777778056,0.6805555555555429,0.7111111111111104,0.9531250000000401,0.026156649420090508,1.0389309922527565,38.888888888888886,0.9999999999742858,0.9570312499999832,0.0,0.9959024450982339,0
425,298.2972222222222,0.6805555555555429,0.6805555555555429,0.7111111111111104,0.9570312499999832,0.02572760121052828,1.0218893798151032,38.888888888888886,0.9999999999742858,0.9570312499999832,0.0,0.9984815023194579,0
426,298.97777777777776,0.6805555555555429,0.6666666666666856,0.7111111111111104,0.9570312499999832,0.026762458516205193,1.0629934719394225,38.888888888888886,0.9999999999742858,0.9375000000000276,0.0,0.9942738740103471,0
427,299.64444444444445,0.6666666666666856,0.705555555555577,0.7111111111111104,0.9375000000000276,0.025949988889585194,1.0307225238603004,38.888888888888886,0.9999999999742858,0.9921875000000312,0.0,0.9962249964166769,0
428,300.35,0.705555555555577,0.6722222222222172,0.7111111111111104,0.9921875000000312,0.02592680717914303,1.0298017561792039,38.888888888888886,0.9999999999742858,0.9453124999999939,0.0,0.9971986045199421,0
429,301.02222222222224,0.6722222222222172,0.669444444444423,0.7111111111111104,0.9453124999999939,0.025199437029473873,1.000910923137324,38.888888888888886,0.9999999999742858,0.9414062499999708,0.0,0.9881701137992839,0
430,301.69166666666666,0.669444444444423,0.6861111111111313,0.7111111111111104,0.9414062499999708,0.024665517304549526,0.9797038587044877,38.888888888888886,0.9999999999742858,0.9648437500000294,0.0,0.9888173749516457,0
431,302.3777777777778,0.6861111111111313,0.6999999999999886,0.7111111111111104,0.9648437500000294,0.026331919025839316,1.0458926264623924,38.888888888888886,0.9999999999742858,0.984374999999985,0.0,0.9897207482355379,0
432,303.0777777777778,0.6999999999999886,0.6777777777777487,0.7111111111111104,0.984374999999985,0.024873309431677426,0.9879572736335989,38.888888888888886,0.9999999999742858,0.9531249999999601,0.0,0.9960085972606199,0
433,303.75555555555553,0.6777777777777487,0.6638888888888914,0.7111111111111104,0.9531249999999601,0.028175586758629412,1.1191223248174418,38.888888888888886,0.9999999999742858,0.9335937500000046,0.0,0.9933953958109094,0
434,304.4194444444444,0.6638888888888914,0.6972222222222513,0.7111111111111104,0.9335937500000046,0.02667306560968212,1.059442823705286,38.888888888888886,0.9999999999742858,0.9804687500000419,0.0,0.9976684682621956,0
435,305.1166666666667,0.6972222222222513,0.6750000000000114,0.7111111111111104,0.9804687500000419,0.023257568300067696,0.9237807229551489,33.333333333333336,0.8571428571208165,0.949218750000017,0.0,0.9955338430794933,0
436,305.7916666666667,0.6750000000000114,0.6777777777777487,0.7111111111111104,0.949218750000017,0.025939723701807686,1.0303147949668912,38.888888888888886,0.9999999999742858,0.9531249999999601,0.0,0.9923024013251,0
437,306.46944444444443,0.6777777777777487,0.6861111111111313,0.7111111111111104,0.9531249999999601,0.02639467189362832,1.048385143686279,41.666666666666664,1.0714285714010205,0.9648437500000294,0.0,0.9963701402557223,0
438,307.15555555555557,0.6861111111111313,0.7055555555555202,0.7111111111111104,0.9648437500000294,0.02457134259017306,0.9759632790958047,36.111111111111114,0.9285714285475513,0.9921874999999513,0.0,0.9975665092380288,0
439,307.8611111111111,0.7055555555555202,0.6916666666667197,0.7111111111111104,0.9921874999999513,0.02545600009578732,1.0111014990317926,38.888888888888886,0.9999999999742858,0.9726562500000756,0.0,0.9966308668611865,0
440,308.5527777777778,0.6916666666667197,0.6749999999999545,0.7111111111111104,0.9726562500000756,0.02329851336114367,0.9254070433698285,38.888888888888886,0.9999999999742858,0.949218749999937,0.0,0.9827024561427319,0
441,309.22777777777776,0.6749999999999545,0.7277777777778169,0.7111111111111104,0.949218749999937,0.02520375832771319,1.001082563265824,36.111111111111114,0.9285714285475513,1.0234375000000562,0.0,0.9848947664879559,0
442,309.9555555555556,0.7277777777778169,0.6972222222221944,0.7111111111111104,1.0234375000000562,0.025922830819731933,1.0296438168742807,41.666666666666664,1.0714285714010205,0.9804687499999619,0.0,0.9896862816800331,0
443,310.65277777777777,0.6972222222221944,0.7111111111111086,0.7111111111111104,0.9804687499999619,0.024749136545422126,0.9830251793941501,38.888888888888886,0.9999999999742858,0.9999999999999974,0.0,0.9948100354272127,0
444,311.3638888888889,0.7111111111111086,0.6833333333333371,0.7111111111111104,0.9999999999999974,0.025275200548684866,1.0039202179031124,36.111111111111114,0.9285714285475513,0.9609375000000063,0.0,0.9981850017304212,0
445,312.0472222222222,0.6833333333333371,0.7194444444444343,0.7111111111111104,0.9609375000000063,0.025023774942441786,0.9939336997380129,36.111111111111114,0.9285714285475513,1.011718749999987,0.0,0.9954246685384858,0
446,312.76666666666665,0.7194444444444343,0.7027777777777828,0.7111111111111104,1.011718749999987,0.025854875937197593,1.0269446778367863,38.888888888888886,0.9999999999742858,0.9882812500000081,0.0,0.9969205911015845,0
447,313.46944444444443,0.7027777777777828,0.7138888888889028,0.7111111111111104,0.9882812500000081,0.024440693294150394,0.97077394461439,36.111111111111114,0.9285714285475513,1.0039062500000207,0.0,0.9952330824073566,0
448,314.18333333333334,0.7138888888889028,0.7194444444444343,0.7111111111111104,1.0039062500000207,0.025578472922402052,1.0159660676252422,38.888888888888886,0.9999999999742858,1.011718749999987,0.0,0.9990803041713485,0
449,314.90277777777777,0.7194444444444343,0.7083333333333144,0.7111111111111104,1.011718749999987,0.024145288547504813,0.9590405936939568,36.111111111111114,0.9285714285475513,0.9960937499999744,0.0,0.997189705705098,0
450,315.6111111111111,0.7083333333333144,0.7000000000000455,0.7111111111111104,0.9960937499999744,0.026432935932092512,1.0499049750228824,36.111111111111114,0.9285714285475513,0.984375000000065,0.0,0.9979186479492004,0
451,316.31111111111113,0.7000000000000455,0.7166666666666401,0.7111111111111104,0.984375000000065,0.02457200225453518,0.975989480683756,33.333333333333336,0.8571428571208165,1.0078124999999638,0.0,0.9977852348068459,0
452,317.02777777777777,0.7166666666666401,0.7222222222222285,0.7111111111111104,1.0078124999999638,0.02664858989193504,1.058470658604295,38.888888888888886,0.9999999999742858,1.01562500000001,0.0,0.9956877383655719,0
453,317.75,0.7222222222222285,0.7166666666666401,0.7111111111111104,1.01562500000001,0.024430613136918397,0.970373565055567,36.111111111111114,0.9285714285475513,1.0078124999999638,0.0,0.996243794581587,0
454,318.46666666666664,0.7166666666666401,0.6888888888889255,0.7111111111111104,1.0078124999999638,0.024750443455827217,0.9830770893196968,36.111111111111114,0.9285714285475513,0.9687500000000525,0.0,0.9987903012556022,0
455,319.15555555555557,0.6888888888889255,0.7194444444444343,0.7111111111111104,0.9687500000000525,0.025727589108485386,1.0218888991271056,36.111111111111114,0.9285714285475513,1.011718749999987,0.0,0.9980008887353415,0
456,319.875,0.7194444444444343,0.6944444444444571,0.7111111111111104,1.011718749999987,0.02702758216793489,1.0735240706463671,38.888888888888886,0.9999999999742858,0.9765625000000188,0.0,0.9962568855187351,0
457,320.56944444444446,0.6944444444444571,0.7055555555555202,0.7111111111111104,0.9765625000000188,0.02428206627746615,0.9644733469653931,36.111111111111114,0.9285714285475513,0.9921874999999513,0.0,0.9968879232775876,0
458,321.275,0.7055555555555202,0.7277777777778169,0.7111111111111104,0.9921874999999513,0.02585987726389891,1.0271433284066254,38.888888888888886,0.9999999999742858,1.0234375000000562,0.0,0.98826348304471,0
459,322.0027777777778,0.7277777777778169,0.7055555555555202,0.7111111111111104,1.0234375000000562,0.024302317058843483,0.9652776993903672,36.111111111111114,0.9285714285475513,0.9921874999999513,0.0,0.9893895876019878,0
460,322.7083333333333,0.7055555555555202,0.7027777777777828,0.7111111111111104,0.9921874999999513,0.026169997786928533,1.0394611837073748,38.888888888888886,0.9999999999742858,0.9882812500000081,0.0,0.9887215799818161,0
461,323.4111111111111,0.7027777777777828,0.6999999999999886,0.7111111111111104,0.9882812500000081,0.024626558586146555,0.9781564349761181,36.111111111111114,0.9285714285475513,0.984374999999985,0.0,0.995705951535035,0
462,324.1111111111111,0.6999999999999886,0.7361111111111427,0.7111111111111104,0.984374999999985,0.027021733855759646,1.0732917781736713,41.666666666666664,1.0714285714010205,1.0351562500000455,0.0,0.9978203219549358,0
463,324.84722222222223,0.7361111111111427,0.7083333333333144,0.7111111111111104,1.0351562500000455,0.023462485823131502,0.9319199598332154,33.333333333333336,0.8571428571208165,0.9960937499999744,0.0,0.9925758700128149,0
464,325.55555555555554,0.7083333333333144,0.7027777777777828,0.7111111111111104,0.9960937499999744,0.02649179087626129,1.0522426683781054,41.666666666666664,1.0714285714010205,0.9882812500000081,0.0,0.994587746889819,0
465,326.2583333333333,0.7027777777777828,0.7111111111111086,0.7111111111111104,0.9882812500000081,0.022530529603626774,0.8949030550945494,36.111111111111114,0.9285714285475513,0.9999999999999974,0.0,0.9831060994679794,0
466,326.96944444444443,0.7111111111111086,0.7027777777777828,0.7111111111111104,0.9999999999999974,0.02822825038841209,1.1212141017980104,41.666666666666664,1.0714285714010205,0.9882812500000081,0.0,0.989068423755652,0
467,327.6722222222222,0.7027777777777828,0.705555555555577,0.7111111111111104,0.9882812500000081,0.025169329459675895,0.9997150632677299,38.888888888888886,0.9999999999742858,0.9921875000000312,0.0,0.9928515523932064,0
468,328.3777777777778,0.705555555555577,0.7333333333332916,0.7111111111111104,0.9921875000000312,0.02688271526061553,1.0677700186900685,38.888888888888886,0.9999999999742858,1.0312499999999425,0.0,0.9973746589232062,0
469,329.1111111111111,0.7333333333332916,0.7361111111111427,0.7111111111111104,1.0312499999999425,0.025246757880983562,1.002790487236824,36.111111111111114,0.9285714285475513,1.0351562500000455,0.0,0.9951829038476849,0
470,329.84722222222223,0.7361111111111427,0.7083333333333144,0.7111111111111104,1.0351562500000455,0.025838423893631845,1.0262912096623336,36.111111111111114,0.9285714285475513,0.9960937499999744,0.0,0.9982784860598921,0
471,330.55555555555554,0.7083333333333144,0.716666666666697,0.7111111111111104,0.9960937499999744,0.02459736352250405,0.9769968194629901,36.111111111111114,0.9285714285475513,1.0078125000000437,0.0,0.9961798417019343,0
472,331.27222222222224,0.716666666666697,0.7416666666666742,0.7111111111111104,1.0078125000000437,0.025786762591922203,1.0242392447266013,38.888888888888886,0.9999999999742858,1.0429687500000118,0.0,0.995477454663141,0
473,332.0138888888889,0.7416666666666742,0.7305555555555543,0.7111111111111104,1.0429687500000118,0.026233015595875403,1.0419642242813896,38.888888888888886,0.9999999999742858,1.0273437499999993,0.0,0.995318980294176,0
474,332.74444444444447,0.7305555555555543,0.7055555555555202,0.7111111111111104,1.0273437499999993,0.027251437951986385,1.08241552719766,38.888888888888886,0.9999999999742858,0.9921874999999513,0.0,0.9945370192057468,0
475,333.45,0.7055555555555202,0.7277777777778169,0.7111111111111104,0.9921874999999513,0.025033766087614047,0.9943305437756741,36.111111111111114,0.9285714285475513,1.0234375000000562,0.0,0.9952941669998455,0
476,334.1777777777778,0.7277777777778169,0.6944444444444002,0.7111111111111104,1.0234375000000562,0.02415456481092593,0.9594090429324551,36.111111111111114,0.9285714285475513,0.9765624999999388,0.0,0.9943751104026808,0
477,334.8722222222222,0.6944444444444002,0.7138888888889028,0.7111111111111104,0.9765624999999388,0.02546030464697458,1.0112724739745065,38.888888888888886,0.9999999999742858,1.0039062500000207,0.0,0.9980303203163372,0
478,335.5861111111111,0.7138888888889028,0.7111111111111086,0.7111111111111104,1.0039062500000207,0.02251499754127872,0.8942861281828556,36.111111111111114,0.9285714285475513,0.9999999999999974,0.0,0.9939704256364623,0
479,336.2972222222222,0.7111111111111086,0.7305555555555543,0.7111111111111104,0.9999999999999974,0.02406375934107215,0.9558022882834937,38.888888888888886,0.9999999999742858,1.0273437499999993,0.0,0.9941426005469511,0
480,337.02777777777777,0.7305555555555543,0.705555555555577,0.7111111111111104,1.0273437499999993,0.023365122432713333,0.9280527273680913,36.111111111111114,0.9285714285475513,0.9921875000000312,0.0,0.9932148421753884,0
481,337.73333333333335,0.705555555555577,0.7111111111111086,0.7111111111111104,0.9921875000000312,0.026558382794385837,1.0548876710488226,38.888888888888886,0.9999999999742858,0.9999999999999974,0.0,0.9970076989312259,0
482,338.44444444444446,0.7111111111111086,0.7111111111111086,0.7111111111111104,0.9999999999999974,0.022718443059456753,0.9023668976528065,33.333333333333336,0.8571428571208165,0.9999999999999974,0.0,0.9886931764034697,0
483,339.15555555555557,0.7111111111111086,0.7111111111111086,0.7111111111111104,0.9999999999999974,0.025573932468519394,1.0157857227277813,38.888888888888886,0.9999999999742858,0.9999999999999974,0.0,0.9961869777230151,0
484,339.8666666666667,0.7111111111111086,0.6972222222221944,0.7111111111111104,0.9999999999999974,0.025468625356607967,1.0116029690228907,36.111111111111114,0.9285714285475513,0.9804687499999619,0.0,0.997586930538146,0
485,340.56388888888887,0.6972222222221944,0.6694444444444798,0.7111111111111104,0.9804687499999619,0.02606382302674728,1.035243967382161,38.888888888888886,0.9999999999742858,0.9414062500000507,0.0,0.9958479937108091,0
486,341.23333333333335,0.6694444444444798,0.7194444444444343,0.7111111111111104,0.9414062500000507,0.027119028055662273,1.0771562624209403,38.888888888888886,0.9999999999742858,1.011718749999987,0.0,0.9949019023929471,0
487,341.9527777777778,0.7194444444444343,0.6777777777777487,0.7111111111111104,1.011718749999987,0.024261701684520215,0.9636644739933109,36.111111111111114,0.9285714285475513,0.9531249999999601,0.0,0.9927627746162605,0
488,342.63055555555553,0.6777777777777487,0.6916666666666629,0.7111111111111104,0.9531249999999601,0.024706964071672968,0.9813501066700301,36.111111111111114,0.9285714285475513,0.9726562499999957,0.0,0.9948888124553055,0
489,343.3222222222222,0.6916666666666629,0.6972222222222513,0.7111111111111104,0.9726562499999957,0.02417894849839122,0.960377552629788,36.111111111111114,0.9285714285475513,0.9804687500000419,0.0,0.9921285800773094,0
490,344.01944444444445,0.6972222222222513,0.7083333333333144,0.7111111111111104,0.9804687500000419,0.025937374676585755,1.030221492683963,38.888888888888886,0.9999999999742858,0.9960937499999744,0.0,0.9965267768101584,0
491,344.72777777777776,0.7083333333333144,0.6861111111111313,0.7111111111111104,0.9960937499999744,0.026225133273848088,1.0416511418023011,38.888888888888886,0.9999999999742858,0.9648437500000294,0.0,0.995187153449616,0
492,345.4138888888889,0.6861111111111313,0.7027777777777828,0.7111111111111104,0.9648437500000294,0.02480758370139442,0.9853466755756147,33.333333333333336,0.8571428571208165,0.9882812500000081,0.0,0.9981296167895986,0
493,346.1166666666667,0.7027777777777828,0.7138888888889028,0.7111111111111104,0.9882812500000081,0.02598712037277263,1.0321973705829128,41.666666666666664,1.0714285714010205,1.0039062500000207,0.0,0.9981264179942768,0
494,346.8305555555556,0.7138888888889028,0.6944444444444002,0.7111111111111104,1.0039062500000207,0.024519749633868323,0.9739140288104925,33.333333333333336,0.8571428571208165,0.9765624999999388,0.0,0.9966714416166711,0
495,347.525,0.6944444444444002,0.7027777777777828,0.7111111111111104,0.9765624999999388,0.024436935251598114,0.9706246767622633,36.111111111111114,0.9285714285475513,0.9882812500000081,0.0,0.9979339920547434,0
496,348.22777777777776,0.7027777777777828,0.6833333333333371,0.7111111111111104,0.9882812500000081,0.02456150896046232,0.9755726915052941,36.111111111111114,0.9285714285475513,0.9609375000000063,0.0,0.9904036833793025,0
497,348.9111111111111,0.6833333333333371,0.6833333333333371,0.7111111111111104,0.9609375000000063,0.026308065622402402,1.0449451794211715,38.888888888888886,0.9999999999742858,0.9609375000000063,0.0,0.997841296900716,0
498,349.59444444444443,0.6833333333333371,0.6944444444444571,0.7111111111111104,0.9609375000000063,0.02700297718304081,1.072546771109266,41.666666666666664,1.0714285714010205,0.9765625000000188,0.0,0.9969464515651869,0
499,350.2888888888889,0.6944444444444571,0.6805555555555429,0.7111111111111104,0.9765625000000188,0.02466249486895619,0.9795838088479647,38.888888888888886,0.9999999999742858,0.9570312499999832,0.0,0.9936113331712415,0
500,350.96944444444443,0.6805555555555429,0.7111111111111086,0.7111111111111104,0.9570312499999832,0.02686967541469701,1.067252081555179,38.888888888888886,0.9999999999742858,0.9999999999999974,0.0,0.9938794703931928,0
501,351.68055555555554,0.7111111111111086,0.6694444444444798,0.7111111111111104,0.9999999999999974,0.023982172095181047,0.9525616775704216,36.111111111111114,0.9285714285475513,0.9414062500000507,0.0,0.9927602005129421,0
502,352.35,0.6694444444444798,0.6861111111110745,0.7111111111111104,0.9414062500000507,0.024319349810432503,0.9659542330405673,38.888888888888886,0.9999999999742858,0.9648437499999495,0.0,0.9897982506695232,0
503,353.0361111111111,0.6861111111110745,0.6861111111111313,0.7111111111111104,0.9648437499999495,0.02414957890276418,0.9592110047804513,41.666666666666664,1.0714285714010205,0.9648437500000294,0.0,0.991046363557604,0
504,353.72222222222223,0.6861111111111313,0.705555555555577,0.7111111111111104,0.9648437500000294,0.024232989001840368,0.9625240184468945,38.888888888888886,0.9999999999742858,0.9921875000000312,0.0,0.994124492400232,0
505,354.4277777777778,0.705555555555577,0.6944444444444002,0.7111111111111104,0.9921875000000312,0.025660125418901693,1.0192092700647386,41.666666666666664,1.0714285714010205,0.9765624999999388,0.0,0.9947047263991382,0
506,355.1222222222222,0.6944444444444002,0.6944444444444571,0.7111111111111104,0.9765624999999388,0.025526571539140973,1.0139045667523778,41.666666666666664,1.0714285714010205,0.9765625000000188,0.0,0.9966335932285282,0
507,355.81666666666666,0.6944444444444571,0.7083333333333144,0.7111111111111104,0.9765625000000188,0.025592223684632483,1.0165122420537347,38.888888888888886,0.9999999999742858,0.9960937499999744,0.0,0.9935793436144129,0
508,356.525,0.7083333333333144,0.6722222222222172,0.7111111111111104,0.9960937499999744,0.025795848532344276,1.0246001344165094,38.888888888888886,0.9999999999742858,0.9453124999999939,0.0,0.9977106808808172,0
509,357.1972222222222,0.6722222222222172,0.7111111111111654,0.7111111111111104,0.9453124999999939,0.025756218451844046,1.0230260444711232,38.888888888888886,0.9999999999742858,1.0000000000000775,0.0,0.9969350096427356,0
510,357.90833333333336,0.7111111111111654,0.6916666666666629,0.7111111111111104,1.0000000000000775,0.026583159866235932,1.0558718058066392,38.888888888888886,0.9999999999742858,0.9726562499999957,0.0,0.9985986982357917,0
511,358.6,0.6916666666666629,0.7138888888888459,0.7111111111111104,0.9726562499999957,0.025468781482708428,1.0116091702852108,33.333333333333336,0.8571428571208165,1.0039062499999407,0.0,0.9878506778470183,0
512,359.31388888888887,0.7138888888888459,0.6833333333333371,0.7111111111111104,1.0039062499999407,0.025100552201336078,0.9969832598129446,38.888888888888886,0.9999999999742858,0.9609375000000063,0.0,0.9981249960861222,0
513,359.9972222222222,0.6833333333333371,0.6916666666666629,0.7111111111111104,0.9609375000000063,0.022406366495174204,0.8899713492252672,36.111111111111114,0.9285714285475513,0.9726562499999957,0.0,0.9942635860104657,0
514,360.68888888888887,0.6916666666666629,0.7083333333333712,0.7111111111111104,0.9726562499999957,0.025152106391402407,0.9990309703197521,36.111111111111114,0.9285714285475513,0.9960937500000543,0.0,0.9919774102797785,0
515,361.39722222222224,0.7083333333333712,0.6972222222221944,0.7111111111111104,0.9960937500000543,0.025492048413868058,1.0125333228969662,41.666666666666664,1.0714285714010205,0.9804687499999619,0.0,0.9939511492393942,0
516,362.09444444444443,0.6972222222221944,0.6999999999999886,0.7111111111111104,0.9804687499999619,0.022825110989162973,0.9066037024618395,36.111111111111114,0.9285714285475513,0.984374999999985,0.0,0.9936085813649121,0
517,362.7944444444444,0.6999999999999886,0.6833333333333371,0.7111111111111104,0.984374999999985,0.02517531694757051,0.9999528837408168,38.888888888888886,0.9999999999742858,0.9609375000000063,0.0,0.9947819719731681,0
518,363.47777777777776,0.6833333333333371,0.7027777777777828,0.7111111111111104,0.9609375000000063,0.022458560892016984,0.8920444884729972,36.111111111111114,0.9285714285475513,0.9882812500000081,0.0,0.9895125265476226,0
519,364.18055555555554,0.7027777777777828,0.6944444444444571,0.7111111111111104,0.9882812500000081,0.022975813168783187,0.9125895289525683,36.111111111111114,0.9285714285475513,0.9765625000000188,0.0,0.9917067152489558,0
520,364.875,0.6944444444444571,0.6972222222221944,0.7111111111111104,0.9765625000000188,0.02177039833268221,0.864710964246774,36.111111111111114,0.9285714285475513,0.9804687499999619,0.0,0.9866055047148077,0
521,365.5722222222222,0.6972222222221944,0.7138888888889028,0.7111111111111104,0.9804687499999619,0.023832756697685406,0.9466269615184967,36.111111111111114,0.9285714285475513,1.0039062500000207,0.0,0.9961201339320921,0
522,366.2861111111111,0.7138888888889028,0.6972222222222513,0.7111111111111104,1.0039062500000207,0.024397420489989368,0.969055167234209,36.111111111111114,0.9285714285475513,0.9804687500000419,0.0,0.9935726406695063,0
523,366.98333333333335,0.6972222222222513,0.7111111111111086,0.7111111111111104,0.9804687500000419,0.02507264008965003,0.9958746026059714,38.888888888888886,0.9999999999742858,0.9999999999999974,0.0,0.9955934797650887,0
524,367.69444444444446,0.7111111111111086,0.6916666666666629,0.7111111111111104,0.9999999999999974,0.026777873460557815,1.0636057469741405,41.666666666666664,1.0714285714010205,0.9726562499999957,0.0,0.9977674271499376,0
525,368.3861111111111,0.6916666666666629,0.7138888888889028,0.7111111111111104,0.9726562499999957,0.026699501526816556,1.0604928470923982,38.888888888888886,0.9999999999742858,1.0039062500000207,0.0,0.9956966647464476,0
526,369.1,0.7138888888889028,0.6972222222221944,0.7111111111111104,1.0039062500000207,0.026701206514954712,1.0605605684962258,38.888888888888886,0.9999999999742858,0.9804687499999619,0.0,0.9970170524606858,0
527,369.7972222222222,0.6972222222221944,0.6916666666666629,0.7111111111111104,0.9804687499999619,0.025526738319533053,1.0139111911986305,36.111111111111114,0.9285714285475513,0.9726562499999957,0.0,0.9971379055298926,0
528,370.4888888888889,0.6916666666666629,0.6999999999999886,0.7111111111111104,0.9726562499999957,0.02508637748593764,0.9964202461448985,36.111111111111114,0.9285714285475513,0.984374999999985,0.0,0.9989989576669582,0
529,371.18888888888887,0.6999999999999886,0.6750000000000114,0.7111111111111104,0.984374999999985,0.02467792414167202,0.9801966529991765,36.111111111111114,0.9285714285475513,0.949218750000017,0.0,0.9985316676635867,0
530,371.8638888888889,0.6750000000000114,0.6972222222222513,0.7111111111111104,0.949218750000017,0.025454981253246706,1.0110610310393267,38.888888888888886,0.9999999999742858,0.9804687500000419,0.0,0.9883060190401658,0
531,372.56111111111113,0.6972222222222513,0.6833333333333371,0.7111111111111104,0.9804687500000419,0.026374483726168896,1.0475832782594987,41.666666666666664,1.0714285714010205,0.9609375000000063,0.0,0.9904601609509567,0
532,373.24444444444447,0.6833333333333371,0.6999999999999886,0.7111111111111104,0.9609375000000063,0.026644350413443048,1.058302268321366,36.111111111111114,0.9285714285475513,0.984374999999985,0.0,0.9912807537800936,0
533,373.94444444444446,0.6999999999999886,0.6888888888888687,0.7111111111111104,0.984374999999985,0.025630271183571418,1.0180234725324748,36.111111111111114,0.9285714285475513,0.9687499999999726,0.0,0.999007273130718,0
534,374.6333333333333,0.6888888888888687,0.6777777777778056,0.7111111111111104,0.9687499999999726,0.023286523648307966,0.9249308170744355,36.111111111111114,0.9285714285475513,0.9531250000000401,0.0,0.9930438949448982,0
535,375.31111111111113,0.6777777777778056,0.6944444444444002,0.7111111111111104,0.9531250000000401,0.02510877238533582,0.9973097620259074,36.111111111111114,0.9285714285475513,0.9765624999999388,0.0,0.9966147262966099,0
536,376.00555555555553,0.6944444444444002,0.6972222222222513,0.7111111111111104,0.9765624999999388,0.026605597744293025,1.0567630287817043,41.666666666666664,1.0714285714010205,0.9804687500000419,0.0,0.9917762295145335,0
537,376.7027777777778,0.6972222222222513,0.6944444444444571,0.7111111111111104,0.9804687500000419,0.02201749368911757,0.874525486730883,33.333333333333336,0.8571428571208165,0.9765625000000188,0.0,0.9838262641423956,0
538,377.39722222222224,0.6944444444444571,0.6833333333333371,0.7111111111111104,0.9765625000000188,0.0268464173740926,1.0663282820724962,41.666666666666664,1.0714285714010205,0.9609375000000063,0.0,0.9890475930573959,0
539,378.0805555555556,0.6833333333333371,0.6888888888888687,0.7111111111111104,0.9609375000000063,0.024355105301057084,0.9673744259237026,36.111111111111114,0.9285714285475513,0.9687499999999726,0.0,0.9856432632676824,0
540,378.76944444444445,0.6888888888888687,0.6944444444444571,0.7111111111111104,0.9687499999999726,0.02685310621169408,1.0665939598577017,41.666666666666664,1.0714285714010205,0.9765625000000188,0.0,0.9946557783130214,0
541,379.4638888888889,0.6944444444444571,0.6916666666666629,0.7111111111111104,0.9765625000000188,0.026876755694516693,1.0675333072588367,38.888888888888886,0.9999999999742858,0.9726562499999957,0.0,0.9963382097622786,0
542,380.15555555555557,0.6916666666666629,0.7055555555555202,0.7111111111111104,0.9726562499999957,0.025005515445972074,0.9932084403028062,36.111111111111114,0.9285714285475513,0.9921874999999513,0.0,0.9948982131503685,0
543,380.8611111111111,0.7055555555555202,0.6972222222222513,0.7111111111111104,0.9921874999999513,0.027432771309878427,1.089618011063908,41.666666666666664,1.0714285714010205,0.9804687500000419,0.0,0.9957888379889122,0
544,381.55833333333334,0.6972222222222513,0.7027777777777828,0.7111111111111104,0.9804687500000419,0.02441021724572703,0.9695634489304853,36.111111111111114,0.9285714285475513,0.9882812500000081,0.0,0.9966273251581252,0
545,382.2611111111111,0.7027777777777828,0.6916666666666629,0.7111111111111104,0.9882812500000081,0.02646345110210295,1.0511170245995898,38.888888888888886,0.9999999999742858,0.9726562499999957,0.0,0.9967900758400673,0
546,382.9527777777778,0.6916666666666629,0.7027777777777828,0.7111111111111104,0.9726562499999957,0.024534061625647648,0.9744824950380127,38.888888888888886,0.9999999999742858,0.9882812500000081,0.0,0.9886770086352527,0
547,383.65555555555557,0.7027777777777828,0.6944444444444571,0.7111111111111104,0.9882812500000081,0.026218525342024342,1.0413886775601833,41.666666666666664,1.0714285714010205,0.9765625000000188,0.0,0.9862175627737587,0
548,384.35,0.6944444444444571,0.6999999999999886,0.7111111111111104,0.9765625000000188,0.02610739691557288,1.036974703717187,38.888888888888886,0.9999999999742858,0.984374999999985,0.0,0.9940464026295862,0
549,385.05,0.6999999999999886,0.6750000000000114,0.7111111111111104,0.984374999999985,0.023343637488610257,0.9271993545244596,36.111111111111114,0.9285714285475513,0.949218750000017,0.0,0.9908249402280754,0
