beat_index,peak_time_s,rr_prev_s,rr_next_s,rr_baseline_s,prematurity_index,aa_ratio,morph_index,qrs_width_ms,width_index,pause_index,pvc_score,morphology_score,is_pvc_candidate
0,0.4722222222222222,,1.1472222222222221,1.0138888888889142,,0.02519500103972674,1.0318334241278662,38.888888888888886,1.0769230768932543,1.1315068493150402,0.0,0.9981090435939032,0
1,1.6194444444444445,1.1472222222222221,1.0666666666666664,1.0138888888889142,1.1315068493150402,0.026452457560034944,1.083331166279005,38.888888888888886,1.0769230768932543,1.0520547945205214,0.0,0.9988610381429435,0
2,2.686111111111111,1.0666666666666664,0.9972222222222222,1.0138888888889142,1.0520547945205214,0.01833308707697849,0.7508113210095034,33.333333333333336,0.923076923051361,0.983561643835592,0.0,0.9898119895380522,0
3,3.683333333333333,0.9972222222222222,1.0500000000000003,1.0138888888889142,0.983561643835592,0.025802360518762144,1.056707160387748,36.111111111111114,0.9999999999723078,1.0356164383561388,0.0,0.9981590378967644,0
4,4.733333333333333,1.0500000000000003,1.083333333333333,1.0138888888889142,1.0356164383561388,0.023826003326691332,0.9757676356947863,36.111111111111114,0.9999999999723078,1.0684931506849047,0.0,0.9979563233486625,0
5,5.816666666666666,1.083333333333333,1.1583333333333332,1.0138888888889142,1.0684931506849047,0.025251556310401428,1.034149582738089,38.888888888888886,1.0769230768932543,1.142465753424629,0.0,0.9990914169834156,0
6,6.975,1.1583333333333332,1.0055555555555555,1.0138888888889142,1.142465753424629,0.024800602270697872,1.0156812583995456,38.888888888888886,1.0769230768932543,0.9917808219177835,0.0,0.9993638885905377,0
7,7.980555555555555,1.0055555555555555,1.0499999999999998,1.0138888888889142,0.9917808219177835,0.01869505360695504,0.7656352602288938,33.333333333333336,0.923076923051361,1.0356164383561384,0.0,0.9918583098757175,0
8,9.030555555555555,1.0499999999999998,1.1000000000000014,1.0138888888889142,1.0356164383561384,0.02359557812565263,0.9663308262333292,36.111111111111114,0.9999999999723078,1.0849315068492895,0.0,0.9974434596810569,0
9,10.130555555555556,1.1000000000000014,1.0249999999999986,1.0138888888889142,1.0849315068492895,0.02044602414647494,0.8373443236455242,36.111111111111114,0.9999999999723078,1.0109589041095624,0.0,0.9937320864300411,0
10,11.155555555555555,1.0249999999999986,0.9333333333333336,1.0138888888889142,1.0109589041095624,0.02466976063724915,1.0103227838971234,36.111111111111114,0.9999999999723078,0.9205479452054568,0.0,0.9990283325118956,0
11,12.088888888888889,0.9333333333333336,0.9666666666666668,1.0138888888889142,0.9205479452054568,0.02136880926241487,0.8751359682822198,36.111111111111114,0.9999999999723078,0.9534246575342229,0.0,0.9933064922804523,0
12,13.055555555555555,0.9666666666666668,1.0694444444444446,1.0138888888889142,0.9534246575342229,0.020005765343138044,0.8193140108928769,33.333333333333336,0.923076923051361,1.0547945205479192,0.0,0.9937765268971708,0
13,14.125,1.0694444444444446,1.0222222222222221,1.0138888888889142,1.0547945205479192,0.025176064580162354,1.0310579023534328,38.888888888888886,1.0769230768932543,1.0082191780821665,0.0,0.9972477834099105,0
14,15.147222222222222,1.0222222222222221,0.8888888888888893,1.0138888888889142,1.0082191780821665,0.025816560667094833,1.057288711769871,38.888888888888886,1.0769230768932543,0.8767123287671018,0.0,0.9993520717883838,0
15,16.03611111111111,0.8888888888888893,1.0555555555555536,1.0138888888889142,0.8767123287671018,0.024087680541691362,0.9864843368508603,36.111111111111114,0.9999999999723078,1.041095890410931,0.0,0.997254171086287,0
16,17.091666666666665,1.0555555555555536,1.2000000000000028,1.0138888888889142,1.041095890410931,0.024971463977427704,1.0226787107762845,38.888888888888886,1.0769230768932543,1.1835616438355898,0.0,0.9977069960092664,0
17,18.291666666666668,1.2000000000000028,1.091666666666665,1.0138888888889142,1.1835616438355898,0.0254741128432766,1.0432641395907174,38.888888888888886,1.0769230768932543,1.0767123287670948,0.0,0.9989372809697581,0
18,19.383333333333333,1.091666666666665,0.9750000000000014,1.0138888888889142,1.0767123287670948,0.02607542970702699,1.0678904072194058,38.888888888888886,1.0769230768932543,0.9616438356164158,0.0,0.9993391026176879,0
19,20.358333333333334,0.9750000000000014,1.1138888888888872,1.0138888888889142,0.9616438356164158,0.023915363572718083,0.9794272858171779,38.888888888888886,1.0769230768932543,1.0986301369862723,0.0,0.9993705721807467,0
20,21.47222222222222,1.1138888888888872,1.0749999999999993,1.0138888888889142,1.0986301369862723,0.024665732420867482,1.0101578127468673,38.888888888888886,1.0769230768932543,1.0602739726027126,0.0,0.9993749560912228,0
21,22.54722222222222,1.0749999999999993,0.9277777777777807,1.0138888888889142,1.0602739726027126,0.024509635549594094,1.0037650378893588,36.111111111111114,0.9999999999723078,0.915068493150665,0.0,0.9934382939929225,0
22,23.475,0.9277777777777807,0.5388888888888879,1.0138888888889142,0.915068493150665,0.02443161311593048,1.0005697153426767,36.111111111111114,0.9999999999723078,0.5315068493150542,0.0,0.996940676696191,0
23,24.01388888888889,0.5388888888888879,1.1194444444444436,1.0138888888889142,0.5315068493150542,0.022613067275066047,0.9260931801381762,36.111111111111114,0.9999999999723078,1.1041095890410675,0.0,0.9832723608610564,0
24,25.133333333333333,1.1194444444444436,1.1222222222222236,1.0138888888889142,1.1041095890410675,0.020016569508060966,0.819756483527416,36.111111111111114,0.9999999999723078,1.1068493150684668,0.0,0.9929807367679302,0
25,26.255555555555556,1.1222222222222236,1.0472222222222207,1.0138888888889142,1.1068493150684668,0.02416166878712912,0.9895144436770072,36.111111111111114,0.9999999999723078,1.03287671232874,0.0,0.9981326600313528,0
26,27.302777777777777,1.0472222222222207,1.0222222222222221,1.0138888888889142,1.03287671232874,0.023952088786843462,0.9809313263759804,36.111111111111114,0.9999999999723078,1.0082191780821665,0.0,0.9961296905289065,0
27,28.325,1.0222222222222221,1.0583333333333336,1.0138888888889142,1.0082191780821665,0.024737759539751446,1.0131076038022804,38.888888888888886,1.0769230768932543,1.0438356164383304,0.0,0.9997465201224174,0
28,29.383333333333333,1.0583333333333336,1.1416666666666657,1.0138888888889142,1.0438356164383304,0.020727630911421067,0.8488772174951323,36.111111111111114,0.9999999999723078,1.126027397260245,0.0,0.9936719708544736,0
29,30.525,1.1416666666666657,1.097222222222225,1.0138888888889142,1.126027397260245,0.023545509744225764,0.9642803310034713,36.111111111111114,0.9999999999723078,1.0821917808218935,0.0,0.9979817130395405,0
30,31.622222222222224,1.097222222222225,0.9944444444444436,1.0138888888889142,1.0821917808218935,0.024459112366465887,1.0016959167584323,38.888888888888886,1.0769230768932543,0.9808219178081938,0.0,0.9998630367682788,0
31,32.61666666666667,0.9944444444444436,1.0472222222222243,1.0138888888889142,0.9808219178081938,0.02669711022977408,1.093350645998054,38.888888888888886,1.0769230768932543,1.0328767123287435,0.0,0.9976963720848395,0
32,33.66388888888889,1.0472222222222243,1.0444444444444443,1.0138888888889142,1.0328767123287435,0.023965157376291547,0.9814665360144906,36.111111111111114,0.9999999999723078,1.030136986301344,0.0,0.9981631881457949,0
33,34.708333333333336,1.0444444444444443,1.0499999999999972,1.0138888888889142,1.030136986301344,0.025948391077905943,1.062687680556454,38.888888888888886,1.0769230768932543,1.0356164383561357,0.0,0.9987205857108137,0
34,35.75833333333333,1.0499999999999972,1.0166666666666657,1.0138888888889142,1.0356164383561357,0.02417774026493393,0.9901726332896206,36.111111111111114,0.9999999999723078,1.0027397260273714,0.0,0.9967941514211314,0
35,36.775,1.0166666666666657,1.0277777777777786,1.0138888888889142,1.0027397260273714,0.026014681269565555,1.0654025220973764,36.111111111111114,0.9999999999723078,1.013698630136962,0.0,0.9991053418270863,0
36,37.80277777777778,1.0277777777777786,1.0333333333333314,1.0138888888889142,1.013698630136962,0.024196968530853912,0.9909601056708669,38.888888888888886,1.0769230768932543,1.0191780821917535,0.0,0.9995238409284197,0
37,38.83611111111111,1.0333333333333314,1.06944444444445,1.0138888888889142,1.0191780821917535,0.026410453222767902,1.0816109250659909,38.888888888888886,1.0769230768932543,1.0547945205479243,0.0,0.9978695525270622,0
38,39.90555555555556,1.06944444444445,0.9277777777777771,1.0138888888889142,1.0547945205479243,0.018767721304738933,0.7686112854852379,33.333333333333336,0.923076923051361,0.9150684931506615,0.0,0.9923138209926189,0
39,40.833333333333336,0.9277777777777771,0.9749999999999943,1.0138888888889142,0.9150684931506615,0.01787795663662901,0.7321719567979225,33.333333333333336,0.923076923051361,0.9616438356164088,0.0,0.9871800164763447,0
40,41.80833333333333,0.9749999999999943,1.1388888888888928,1.0138888888889142,0.9616438356164088,0.024962596802744298,1.0223155654364018,38.888888888888886,1.0769230768932543,1.1232876712328526,0.0,0.9986113991015695,0
41,42.94722222222222,1.1388888888888928,1.0388888888888914,1.0138888888889142,1.1232876712328526,0.023910828890318404,0.9792415729108591,38.888888888888886,1.0769230768932543,1.0246575342465523,0.0,0.9961580979227027,0
42,43.986111111111114,1.0388888888888914,0.9138888888888843,1.0138888888889142,1.0246575342465523,0.02326065585821623,0.952614454899164,36.111111111111114,0.9999999999723078,0.9013698630136716,0.0,0.9940727609345448,0
43,44.9,0.9138888888888843,0.9944444444444471,1.0138888888889142,0.9013698630136716,0.024416966500555134,0.9999698793962206,36.111111111111114,0.9999999999723078,0.9808219178081974,0.0,0.9982034806294481,0
44,45.894444444444446,0.9944444444444471,1.0527777777777771,1.0138888888889142,0.9808219178081974,0.024170215254940095,0.9898644548213487,38.888888888888886,1.0769230768932543,1.038356164383535,0.0,0.9980071333933602,0
45,46.94722222222222,1.0527777777777771,1.0833333333333357,1.0138888888889142,1.038356164383535,0.02328119171980733,0.9534554784160733,36.111111111111114,0.9999999999723078,1.0684931506849071,0.0,0.9972200188665363,0
46,48.03055555555556,1.0833333333333357,0.9888888888888872,1.0138888888889142,1.0684931506849071,0.020507874919065673,0.8398773536845634,36.111111111111114,0.9999999999723078,0.9753424657533987,0.0,0.9940812027951342,0
47,49.019444444444446,0.9888888888888872,1.0194444444444457,1.0138888888889142,0.9753424657533987,0.02447103614591309,1.0021842419685068,36.111111111111114,0.9999999999723078,1.0054794520547707,0.0,0.9993122449554431,0
48,50.03888888888889,1.0194444444444457,1.05833333333333,1.0138888888889142,1.0054794520547707,0.0236080914403346,0.9668432952074375,36.111111111111114,0.9999999999723078,1.043835616438327,0.0,0.9953724512439013,0
49,51.09722222222222,1.05833333333333,1.0500000000000043,1.0138888888889142,1.043835616438327,0.01902066712546061,0.7789704020378646,36.111111111111114,0.9999999999723078,1.0356164383561428,0.0,0.9914260869159328,0
50,52.147222222222226,1.0500000000000043,0.9472222222222157,1.0138888888889142,1.0356164383561428,0.02443968864161572,1.0009004395727055,38.888888888888886,1.0769230768932543,0.934246575342436,0.0,0.9997159980357578,0
51,53.09444444444444,0.9472222222222157,1.1083333333333343,1.0138888888889142,0.934246575342436,0.018646926023751943,0.763664248245479,36.111111111111114,0.9999999999723078,1.0931506849314805,0.0,0.9905808446988617,0
52,54.202777777777776,1.1083333333333343,1.1361111111111128,1.0138888888889142,1.0931506849314805,0.01963173797148645,0.8039961332313408,36.111111111111114,0.9999999999723078,1.1205479452054532,0.0,0.9925075658548042,0
53,55.33888888888889,1.1361111111111128,1.0888888888888886,1.0138888888889142,1.1205479452054532,0.02445367554915405,1.0014732579137517,38.888888888888886,1.0769230768932543,1.073972602739699,0.0,0.9985679439354699,0
54,56.42777777777778,1.0888888888888886,0.9777777777777814,1.0138888888889142,1.073972602739699,0.01961045360791128,0.8031244556428573,36.111111111111114,0.9999999999723078,0.9643835616438152,0.0,0.9928836903009062,0
55,57.40555555555556,0.9777777777777814,1.0027777777777729,1.0138888888889142,0.9643835616438152,0.025945447428168247,1.0625671266345276,38.888888888888886,1.0769230768932543,0.9890410958903815,0.0,0.9985922165272485,0
56,58.40833333333333,1.0027777777777729,1.00277777777778,1.0138888888889142,0.9890410958903815,0.026013568659483597,1.0653569563810354,38.888888888888886,1.0769230768932543,0.9890410958903885,0.0,0.9986690863411571,0
57,59.41111111111111,1.00277777777778,1.0666666666666629,1.0138888888889142,0.9890410958903885,0.02409363393250274,0.9867281513923398,36.111111111111114,0.9999999999723078,1.052054794520518,0.0,0.9965653240743002,0
58,60.477777777777774,1.0666666666666629,1.0222222222222257,1.0138888888889142,1.052054794520518,0.02650471898110075,1.0854714750237076,38.888888888888886,1.0769230768932543,1.00821917808217,0.0,0.9986723089313123,0
59,61.5,1.0222222222222257,0.99722222222222,1.0138888888889142,1.00821917808217,0.026184847413680174,1.0723714884758881,38.888888888888886,1.0769230768932543,0.9835616438355897,0.0,0.9982019126239404,0
60,62.49722222222222,0.99722222222222,1.1222222222222271,1.0138888888889142,0.9835616438355897,0.0191276915944904,0.7833534708922913,36.111111111111114,0.9999999999723078,1.1068493150684704,0.0,0.9916867347507174,0
61,63.61944444444445,1.1222222222222271,0.9861111111111072,1.0138888888889142,1.1068493150684704,0.019600884834018024,0.8027325770826851,36.111111111111114,0.9999999999723078,0.9726027397259993,0.0,0.9914831101079729,0
62,64.60555555555555,0.9861111111111072,1.0194444444444457,1.0138888888889142,0.9726027397259993,0.025483728433572866,1.043657935464937,38.888888888888886,1.0769230768932543,1.0054794520547707,0.0,0.9986168128073413,0
63,65.625,1.0194444444444457,1.1361111111111057,1.0138888888889142,1.0054794520547707,0.024730996789376465,1.0128306428343115,38.888888888888886,1.0769230768932543,1.1205479452054463,0.0,0.9985775076341127,0
64,66.7611111111111,1.1361111111111057,1.13055555555556,1.0138888888889142,1.1205479452054463,0.024616688765200224,1.0081492840280513,38.888888888888886,1.0769230768932543,1.1150684931506616,0.0,0.9995513171104031,0
65,67.89166666666667,1.13055555555556,0.9749999999999943,1.0138888888889142,1.1150684931506616,0.0239978485731626,0.982805367854708,36.111111111111114,0.9999999999723078,0.9616438356164088,0.0,0.9977275992233076,0
66,68.86666666666666,0.9749999999999943,0.9472222222222229,1.0138888888889142,0.9616438356164088,0.024181222486652523,0.990315243831839,36.111111111111114,0.9999999999723078,0.934246575342443,0.0,0.9987848484246568,0
67,69.81388888888888,0.9472222222222229,1.063888888888897,1.0138888888889142,0.934246575342443,0.02471618042712116,1.0122238550919769,38.888888888888886,1.0769230768932543,1.0493150684931327,0.0,0.9998326641681465,0
68,70.87777777777778,1.063888888888897,1.0583333333333371,1.0138888888889142,1.0493150684931327,0.022349089642548472,0.9152822679249044,38.888888888888886,1.0769230768932543,1.043835616438334,0.0,0.9888298157879347,0
69,71.93611111111112,1.0583333333333371,0.99444444444444,1.0138888888889142,1.043835616438334,0.02393236029235048,0.9801233676863386,36.111111111111114,0.9999999999723078,0.9808219178081904,0.0,0.9973278885329071,0
70,72.93055555555556,0.99444444444444,1.0638888888888829,1.0138888888889142,0.9808219178081904,0.025025502180735255,1.0248917856741433,38.888888888888886,1.0769230768932543,1.0493150684931187,0.0,0.9997829275583786,0
71,73.99444444444444,1.0638888888888829,1.0861111111111086,1.0138888888889142,1.0493150684931187,0.026236853806513236,1.0745013528211549,38.888888888888886,1.0769230768932543,1.0712328767122996,0.0,0.9987954166934832,0
72,75.08055555555555,1.0861111111111086,1.01666666666668,1.0138888888889142,1.0712328767122996,0.019376160316048673,0.7935292327964046,33.333333333333336,0.923076923051361,1.0027397260273854,0.0,0.9899435797946943,0
73,76.09722222222223,1.01666666666668,0.9027777777777715,1.0138888888889142,1.0027397260273854,0.025462921977088146,1.042805830033199,36.111111111111114,0.9999999999723078,0.8904109589040812,0.0,0.9956252962312523,0
74,77.0,0.9027777777777715,1.11666666666666,1.0138888888889142,0.8904109589040812,0.024494735353540784,1.0031548168264732,36.111111111111114,0.9999999999723078,1.1013698630136646,0.0,0.9978723734610098,0
75,78.11666666666666,1.11666666666666,1.125,1.0138888888889142,1.1013698630136646,0.020682700901440202,0.8470371585893376,36.111111111111114,0.9999999999723078,1.1095890410958629,0.0,0.9941934285385023,0
76,79.24166666666666,1.125,1.0750000000000028,1.0138888888889142,1.1095890410958629,0.024502467474508814,1.0034714772958113,38.888888888888886,1.0769230768932543,1.0602739726027162,0.0,0.9995850920054192,0
77,80.31666666666666,1.0750000000000028,1.063888888888897,1.0138888888889142,1.0602739726027162,0.02481220796387167,1.0161565567378157,36.111111111111114,0.9999999999723078,1.0493150684931327,0.0,0.9975238540386657,0
78,81.38055555555556,1.063888888888897,1.0694444444444429,1.0138888888889142,1.0493150684931327,0.023717589173032787,0.9713276538421547,36.111111111111114,0.9999999999723078,1.0547945205479174,0.0,0.9973561055212214,0
79,82.45,1.0694444444444429,1.0249999999999915,1.0138888888889142,1.0547945205479174,0.018904169270650435,0.7741993611380132,33.333333333333336,0.923076923051361,1.0109589041095555,0.0,0.9922886693619248,0
80,83.475,1.0249999999999915,1.0138888888889,1.0138888888889142,1.0109589041095555,0.018697456131681986,0.7657336529740121,36.111111111111114,0.9999999999723078,0.999999999999986,0.0,0.9918892234454647,0
81,84.4888888888889,1.0138888888889,1.0083333333333258,1.0138888888889142,0.999999999999986,0.02109124534837927,0.8637686449238243,36.111111111111114,0.9999999999723078,0.9945205479451732,0.0,0.993721932080657,0
82,85.49722222222222,1.0083333333333258,0.99444444444444,1.0138888888889142,0.9945205479451732,0.02500256834962764,1.023952555965725,38.888888888888886,1.0769230768932543,0.9808219178081904,0.0,0.9992804491935834,0
83,86.49166666666666,0.99444444444444,1.0250000000000057,1.0138888888889142,0.9808219178081904,0.020088587998101728,0.8227059211980915,36.111111111111114,0.9999999999723078,1.0109589041095695,0.0,0.9938031510615657,0
84,87.51666666666667,1.0250000000000057,0.9833333333333343,1.0138888888889142,1.0109589041095695,0.02570408350126642,1.0526823337439313,38.888888888888886,1.0769230768932543,0.969863013698607,0.0,0.998542703467695,0
85,88.5,0.9833333333333343,1.0138888888888857,1.0138888888889142,0.969863013698607,0.025349717837879676,1.0381696796158704,38.888888888888886,1.0769230768932543,0.999999999999972,0.0,0.9980109603895191,0
86,89.51388888888889,1.0138888888888857,1.0861111111111086,1.0138888888889142,0.999999999999972,0.025557739860292493,1.0466889916548647,38.888888888888886,1.0769230768932543,1.0712328767122996,0.0,0.9980823401687773,0
87,90.6,1.0861111111111086,1.0750000000000028,1.0138888888889142,1.0712328767122996,0.024609316223042455,1.0078473497115104,38.888888888888886,1.0769230768932543,1.0602739726027162,0.0,0.999851464567947,0
88,91.675,1.0750000000000028,0.9444444444444429,1.0138888888889142,1.0602739726027162,0.020880322915668506,0.8551305497863736,36.111111111111114,0.9999999999723078,0.9315068493150437,0.0,0.9936892702148878,0
89,92.61944444444444,0.9444444444444429,1.0138888888889,1.0138888888889142,0.9315068493150437,0.025878210440871425,1.0598135101246045,36.111111111111114,0.9999999999723078,0.999999999999986,0.0,0.9989912443947644,0
90,93.63333333333334,1.0138888888889,1.0666666666666629,1.0138888888889142,0.999999999999986,0.0255091487551238,1.0446989966415956,38.888888888888886,1.0769230768932543,1.052054794520518,0.0,0.998549519002164,0
91,94.7,1.0666666666666629,1.0805555555555486,1.0138888888889142,1.052054794520518,0.019179309516607724,0.7854674258487013,36.111111111111114,0.9999999999723078,1.065753424657501,0.0,0.9907436630399055,0
92,95.78055555555555,1.0805555555555486,1.0555555555555571,1.0138888888889142,1.065753424657501,0.02516244092015639,1.0304999604136431,38.888888888888886,1.0769230768932543,1.0410958904109344,0.0,0.9994929075431236,0
93,96.83611111111111,1.0555555555555571,1.0277777777777857,1.0138888888889142,1.0410958904109344,0.02418732852220549,0.9905653097700199,36.111111111111114,0.9999999999723078,1.0136986301369688,0.0,0.9963254106755699,0
94,97.8638888888889,1.0277777777777857,1.0999999999999943,1.0138888888889142,1.0136986301369688,0.023135063275466917,0.9474709494673146,36.111111111111114,0.9999999999723078,1.0849315068492824,0.0,0.9953378811274715,0
95,98.96388888888889,1.0999999999999943,1.0611111111111171,1.0138888888889142,1.0849315068492824,0.024544053587215325,1.0051745905841367,38.888888888888886,1.0769230768932543,1.0465753424657334,0.0,0.9990468857971705,0
96,100.025,1.0611111111111171,0.9222222222222172,1.0138888888889142,1.0465753424657334,0.019072296978682464,0.7810848456194753,33.333333333333336,0.923076923051361,0.9095890410958628,0.0,0.9926757603786865,0
97,100.94722222222222,0.9222222222222172,1.0166666666666657,1.0138888888889142,0.9095890410958628,0.01837179674119576,0.7523966325287674,33.333333333333336,0.923076923051361,1.0027397260273714,0.0,0.9896467634697934,0
98,101.96388888888889,1.0166666666666657,1.12777777777778,1.0138888888889142,1.0027397260273714,0.02554264323794278,1.0460707261700843,38.888888888888886,1.0769230768932543,1.1123287671232622,0.0,0.9990718080390499,0
99,103.09166666666667,1.12777777777778,1.0888888888888886,1.0138888888889142,1.1123287671232622,0.02615011038609184,1.0709488718995293,38.888888888888886,1.0769230768932543,1.073972602739699,0.0,0.99765990368484,0
100,104.18055555555556,1.0888888888888886,0.9749999999999943,1.0138888888889142,1.073972602739699,0.01931704709234956,0.7911083160469067,36.111111111111114,0.9999999999723078,0.9616438356164088,0.0,0.9914391563458098,0
101,105.15555555555555,0.9749999999999943,0.9916666666666742,1.0138888888889142,0.9616438356164088,0.025646958093879794,1.0503428258147391,38.888888888888886,1.0769230768932543,0.978082191780805,0.0,0.9979523012624166,0
102,106.14722222222223,0.9916666666666742,0.99444444444444,1.0138888888889142,0.978082191780805,0.024945753071748053,1.021625749047764,38.888888888888886,1.0769230768932543,0.9808219178081904,0.0,0.9990120680836573,0
103,107.14166666666667,0.99444444444444,1.0888888888888886,1.0138888888889142,0.9808219178081904,0.024933660277360634,1.0211305020175945,38.888888888888886,1.0769230768932543,1.073972602739699,0.0,0.9991213880252732,0
104,108.23055555555555,1.0888888888888886,1.0111111111111057,1.0138888888889142,1.073972602739699,0.024487341949837177,1.002852028148377,38.888888888888886,1.0769230768932543,0.9972602739725726,0.0,0.9997102180608095,0
105,109.24166666666666,1.0111111111111057,1.0,1.0138888888889142,0.9972602739725726,0.02511490709590197,1.0285532651717975,36.111111111111114,0.9999999999723078,0.9863013698629891,0.0,0.9976520950872458,0
106,110.24166666666666,1.0,1.1055555555555685,1.0138888888889142,0.9863013698629891,0.023614351825622663,0.9670996823684445,36.111111111111114,0.9999999999723078,1.0904109589040951,0.0,0.9969523841743388,0
107,111.34722222222223,1.1055555555555685,1.0416666666666572,1.0138888888889142,1.0904109589040951,0.02421032992559555,0.9915073068265903,38.888888888888886,1.0769230768932543,1.0273972602739376,0.0,0.9998146048937673,0
108,112.38888888888889,1.0416666666666572,0.9361111111111171,1.0138888888889142,1.0273972602739376,0.025311475690475118,1.0366035147310098,36.111111111111114,0.9999999999723078,0.9232876712328596,0.0,0.9966407301839211,0
109,113.325,0.9361111111111171,1.0944444444444485,1.0138888888889142,0.9232876712328596,0.024824184813402598,1.0166470553745206,38.888888888888886,1.0769230768932543,1.0794520547944977,0.0,0.9995052827703861,0
110,114.41944444444445,1.0944444444444485,1.1027777777777743,1.0138888888889142,1.0794520547944977,0.02448247343022453,1.0026526433079308,38.888888888888886,1.0769230768932543,1.0876712328766818,0.0,0.999652871187118,0
111,115.52222222222223,1.1027777777777743,0.99166666666666,1.0138888888889142,1.0876712328766818,0.026067892709169285,1.0675817378014167,36.111111111111114,0.9999999999723078,0.978082191780791,0.0,0.9979907532277736,0
112,116.51388888888889,0.99166666666666,0.9500000000000028,1.0138888888889142,0.978082191780791,0.01834945993276481,0.7514818532242912,33.333333333333336,0.923076923051361,0.9369863013698425,0.0,0.9877176514687829,0
113,117.46388888888889,0.9500000000000028,1.0750000000000028,1.0138888888889142,0.9369863013698425,0.02365050874761311,0.9685804491508907,36.111111111111114,0.9999999999723078,1.0602739726027162,0.0,0.9966168141609248,0
114,118.53888888888889,1.0750000000000028,0.9638888888888886,1.0138888888889142,1.0602739726027162,0.019506868967012612,0.798882261148124,36.111111111111114,0.9999999999723078,0.9506849315068253,0.0,0.990473658363564,0
115,119.50277777777778,0.9638888888888886,1.0305555555555515,1.0138888888889142,0.9506849315068253,0.023766135872257815,0.973315830259075,36.111111111111114,0.9999999999723078,1.0164383561643542,0.0,0.995558767342791,0
116,120.53333333333333,1.0305555555555515,1.0138888888888857,1.0138888888889142,1.0164383561643542,0.024271522594340813,0.9940133849499206,36.111111111111114,0.9999999999723078,0.999999999999972,0.0,0.999165208667243,0
117,121.54722222222222,1.0138888888888857,0.9888888888888943,1.0138888888889142,0.999999999999972,0.024286669679632795,0.9946337170887342,36.111111111111114,0.9999999999723078,0.9753424657534057,0.0,0.9998138375811478,0
118,122.53611111111111,0.9888888888888943,0.99444444444444,1.0138888888889142,0.9753424657534057,0.024022634593563512,0.9838204519287452,36.111111111111114,0.9999999999723078,0.9808219178081904,0.0,0.9982317732101122,0
119,123.53055555555555,0.99444444444444,0.9111111111111114,1.0138888888889142,0.9808219178081904,0.02325485330123316,0.9523768175904337,36.111111111111114,0.9999999999723078,0.8986301369862792,0.0,0.9959061512113422,0
120,124.44166666666666,0.9111111111111114,0.9777777777777885,1.0138888888889142,0.8986301369862792,0.025188901784712052,1.0315836358791373,33.333333333333336,0.923076923051361,0.9643835616438222,0.0,0.997625972578932,0
121,125.41944444444445,0.9777777777777885,1.11388888888888,1.0138888888889142,0.9643835616438222,0.025396676260169945,1.0400928099061613,38.888888888888886,1.0769230768932543,1.0986301369862652,0.0,0.9979549417221703,0
122,126.53333333333333,1.11388888888888,1.1611111111111114,1.0138888888889142,1.0986301369862652,0.01907049486912293,0.7810110422140086,36.111111111111114,0.9999999999723078,1.1452054794520266,0.0,0.9926699662816586,0
123,127.69444444444444,1.1611111111111114,1.00833333333334,1.0138888888889142,1.1452054794520266,0.025835027479949934,1.058044999682341,38.888888888888886,1.0769230768932543,0.9945205479451873,0.0,0.9991225422190425,0
124,128.70277777777778,1.00833333333334,1.0250000000000057,1.0138888888889142,0.9945205479451873,0.02579455338512915,1.0563874278576142,36.111111111111114,0.9999999999723078,1.0109589041095695,0.0,0.9977791554746924,0
125,129.7277777777778,1.0250000000000057,1.055555555555543,1.0138888888889142,1.0109589041095695,0.02366059381566933,0.9689934719679411,36.111111111111114,0.9999999999723078,1.0410958904109204,0.0,0.9965489217975417,0
126,130.78333333333333,1.055555555555543,1.0805555555555486,1.0138888888889142,1.0410958904109204,0.018562449436152793,0.76020460295697,33.333333333333336,0.923076923051361,1.065753424657501,0.0,0.9867891791948937,0
127,131.86388888888888,1.0805555555555486,1.0305555555555657,1.0138888888889142,1.065753424657501,0.0249091940197817,1.0201285134765556,38.888888888888886,1.0769230768932543,1.0164383561643682,0.0,0.9994573407768952,0
128,132.89444444444445,1.0305555555555657,1.0305555555555657,1.0138888888889142,1.0164383561643682,0.01952892956206679,0.7997857284390028,36.111111111111114,0.9999999999723078,1.0164383561643682,0.0,0.9921780272344695,0
129,133.925,1.0305555555555657,1.10277777777776,1.0138888888889142,1.0164383561643682,0.025472034718613774,1.0431790322917245,38.888888888888886,1.0769230768932543,1.0876712328766678,0.0,0.9976131223505689,0
130,135.02777777777777,1.10277777777776,1.0555555555555713,1.0138888888889142,1.0876712328766678,0.019689217918455806,0.8063501609373355,36.111111111111114,0.9999999999723078,1.0410958904109486,0.0,0.9922370884079532,0
131,136.08333333333334,1.0555555555555713,0.9138888888888914,1.0138888888889142,1.0410958904109486,0.024910372511113457,1.0201767772866757,36.111111111111114,0.9999999999723078,0.9013698630136786,0.0,0.9975056377304077,0
132,136.99722222222223,0.9138888888888914,1.044444444444423,1.0138888888889142,0.9013698630136786,0.024058066164935485,0.98527151277821,36.111111111111114,0.9999999999723078,1.030136986301323,0.0,0.9971900630545237,0
133,138.04166666666666,1.044444444444423,1.14166666666668,1.0138888888889142,1.030136986301323,0.024688175002948187,1.0110769238942767,38.888888888888886,1.0769230768932543,1.126027397260259,0.0,0.9984692648356472,0
134,139.18333333333334,1.14166666666668,1.0722222222222229,1.0138888888889142,1.126027397260259,0.024662892393785794,1.0100415025763025,38.888888888888886,1.0769230768932543,1.0575342465753168,0.0,0.999331269242623,0
135,140.25555555555556,1.0722222222222229,0.9749999999999943,1.0138888888889142,1.0575342465753168,0.02590765068950703,1.0610192029725212,36.111111111111114,0.9999999999723078,0.9616438356164088,0.0,0.9978832863999638,0
136,141.23055555555555,0.9749999999999943,0.9749999999999943,1.0138888888889142,0.9616438356164088,0.024854124381636332,1.0178731973047714,36.111111111111114,0.9999999999723078,0.9616438356164088,0.0,0.9968869882092798,0
137,142.20555555555555,0.9749999999999943,0.9722222222222285,1.0138888888889142,0.9616438356164088,0.025241407620737934,1.0337339543684223,33.333333333333336,0.923076923051361,0.9589041095890234,0.0,0.9974262805160284,0
138,143.17777777777778,0.9722222222222285,1.0944444444444343,1.0138888888889142,0.9589041095890234,0.023535623354515933,0.9638754448385344,36.111111111111114,0.9999999999723078,1.0794520547944837,0.0,0.9965091743401078,0
139,144.2722222222222,1.0944444444444343,1.0083333333333542,1.0138888888889142,1.0794520547944837,0.025706141354168075,1.0527666108353477,36.111111111111114,0.9999999999723078,0.9945205479452013,0.0,0.9979187539648967,0
140,145.28055555555557,1.0083333333333542,1.0472222222222172,1.0138888888889142,0.9945205479452013,0.025025293184944432,1.0248832264824952,38.888888888888886,1.0769230768932543,1.0328767123287363,0.0,0.9992384878760691,0
141,146.32777777777778,1.0472222222222172,1.1222222222222058,1.0138888888889142,1.0328767123287363,0.024495928249351692,1.0032036705561183,38.888888888888886,1.0769230768932543,1.1068493150684493,0.0,0.9996643296052454,0
142,147.45,1.1222222222222058,1.080555555555577,1.0138888888889142,1.1068493150684493,0.023501897768886715,0.9624942507498482,36.111111111111114,0.9999999999723078,1.0657534246575289,0.0,0.9966590975908582,0
143,148.53055555555557,1.080555555555577,1.055555555555543,1.0138888888889142,1.0657534246575289,0.023844659311486396,0.9765316709349999,36.111111111111114,0.9999999999723078,1.0410958904109204,0.0,0.997376164638237,0
144,149.5861111111111,1.055555555555543,1.1333333333333258,1.0138888888889142,1.0410958904109204,0.02437253509405943,0.998150240245145,38.888888888888886,1.0769230768932543,1.117808219178047,0.0,0.9998123155517775,0
145,150.71944444444443,1.1333333333333258,1.1194444444444684,1.0138888888889142,1.117808219178047,0.020997172068461245,0.8599159777068751,36.111111111111114,0.9999999999723078,1.1041095890410921,0.0,0.9941481552903846,0
146,151.8388888888889,1.1194444444444684,0.9916666666666458,1.0138888888889142,1.1041095890410921,0.02342120032916573,0.9591893762862843,36.111111111111114,0.9999999999723078,0.978082191780777,0.0,0.994941855872356,0
147,152.83055555555555,0.9916666666666458,1.0527777777777771,1.0138888888889142,0.978082191780777,0.02529026421658728,1.0357348222591192,36.111111111111114,0.9999999999723078,1.038356164383535,0.0,0.9979321225624158,0
148,153.88333333333333,1.0527777777777771,1.0277777777777715,1.0138888888889142,1.038356164383535,0.018771615177225615,0.7687707547297405,36.111111111111114,0.9999999999723078,1.0136986301369548,0.0,0.9911195004289344,0
149,154.9111111111111,1.0277777777777715,1.1611111111111256,1.0138888888889142,1.0136986301369548,0.022851829682536337,0.9358714306754405,36.111111111111114,0.9999999999723078,1.1452054794520405,0.0,0.9965648059726515,0
150,156.07222222222222,1.1611111111111256,1.0527777777777771,1.0138888888889142,1.1452054794520405,0.019170554601740938,0.7851088779855478,36.111111111111114,0.9999999999723078,1.038356164383535,0.0,0.9922543815522701,0
151,157.125,1.0527777777777771,1.0333333333333314,1.0138888888889142,1.038356164383535,0.024807824921654044,1.0159770540875726,38.888888888888886,1.0769230768932543,1.0191780821917535,0.0,0.9999021237883177,0
152,158.15833333333333,1.0333333333333314,1.0472222222222172,1.0138888888889142,1.0191780821917535,0.02421105197178203,0.9915368774302111,38.888888888888886,1.0769230768932543,1.0328767123287363,0.0,0.998952713525241,0
153,159.20555555555555,1.0472222222222172,1.0388888888888914,1.0138888888889142,1.0328767123287363,0.02476351056957877,1.0141622087709266,36.111111111111114,0.9999999999723078,1.0246575342465523,0.0,0.996762495095747,0
154,160.24444444444444,1.0388888888888914,0.88055555555556,1.0138888888889142,1.0246575342465523,0.019525377729820666,0.7996402670745573,36.111111111111114,0.9999999999723078,0.8684931506849142,0.0,0.9907850969912453,0
155,161.125,0.88055555555556,1.0444444444444514,1.0138888888889142,0.8684931506849142,0.023707648864343168,0.9709205594849873,36.111111111111114,0.9999999999723078,1.030136986301351,0.0,0.9956786913346349,0
156,162.16944444444445,1.0444444444444514,1.1388888888888857,1.0138888888889142,1.030136986301351,0.020603121698234944,0.8437780802664919,36.111111111111114,0.9999999999723078,1.1232876712328457,0.0,0.9940617163639779,0
157,163.30833333333334,1.1388888888888857,1.0527777777777771,1.0138888888889142,1.1232876712328457,0.024287238717514443,0.994657021406323,38.888888888888886,1.0769230768932543,1.038356164383535,0.0,0.9996561648997417,0
158,164.36111111111111,1.0527777777777771,0.9583333333333428,1.0138888888889142,1.038356164383535,0.024014907152669386,0.9835039831266618,36.111111111111114,0.9999999999723078,0.9452054794520406,0.0,0.9966179415184397,0
159,165.31944444444446,0.9583333333333428,0.99444444444444,1.0138888888889142,0.9452054794520406,0.025305606445213534,1.0363631462775313,38.888888888888886,1.0769230768932543,0.9808219178081904,0.0,0.9983073725046728,0
160,166.3138888888889,0.99444444444444,1.0111111111110915,1.0138888888889142,0.9808219178081904,0.025157549395262626,1.030299633417332,38.888888888888886,1.0769230768932543,0.9972602739725586,0.0,0.9991825108070297,0
161,167.325,1.0111111111110915,1.0083333333333542,1.0138888888889142,0.9972602739725586,0.01946703349171391,0.7972508432801744,36.111111111111114,0.9999999999723078,0.9945205479452013,0.0,0.9919283976339366,0
162,168.33333333333334,1.0083333333333542,0.9166666666666572,1.0138888888889142,0.9945205479452013,0.018971413349623153,0.7769532680796856,33.333333333333336,0.923076923051361,0.904109589041064,0.0,0.9915462415247128,0
163,169.25,0.9166666666666572,1.0388888888888914,1.0138888888889142,0.904109589041064,0.024656669302199327,1.0097866427376305,38.888888888888886,1.0769230768932543,1.0246575342465523,0.0,0.9994996848465361,0
164,170.2888888888889,1.0388888888888914,1.0388888888888914,1.0138888888889142,1.0246575342465523,0.01921835422170257,0.7870664585968465,36.111111111111114,0.9999999999723078,1.0246575342465523,0.0,0.9917998617943649,0
165,171.32777777777778,1.0388888888888914,1.0083333333333258,1.0138888888889142,1.0246575342465523,0.025400292863400443,1.0402409238946924,36.111111111111114,0.9999999999723078,0.9945205479451732,0.0,0.9956247552788102,0
166,172.3361111111111,1.0083333333333258,0.88611111111112,1.0138888888889142,0.9945205479451732,0.023763086693596266,0.9731909545166941,36.111111111111114,0.9999999999723078,0.873972602739713,0.0,0.9940865708038112,0
167,173.22222222222223,0.88611111111112,1.1472222222222115,1.0138888888889142,0.873972602739713,0.024252488481800977,0.9932338639057958,36.111111111111114,0.9999999999723078,1.1315068493150298,0.0,0.996695374961976,0
168,174.36944444444444,1.1472222222222115,1.1333333333333258,1.0138888888889142,1.1315068493150298,0.01998821690837516,0.8185953341402576,36.111111111111114,0.9999999999723078,1.117808219178047,0.0,0.9919364018143331,0
169,175.50277777777777,1.1333333333333258,1.0305555555555657,1.0138888888889142,1.117808219178047,0.02426453518585959,0.9937272233574844,36.111111111111114,0.9999999999723078,1.0164383561643682,0.0,0.9995335086422863,0
170,176.53333333333333,1.0305555555555657,0.9666666666666686,1.0138888888889142,1.0164383561643682,0.02575278049788028,1.0546766654243147,36.111111111111114,0.9999999999723078,0.9534246575342247,0.0,0.9981285763805727,0
171,177.5,0.9666666666666686,0.9916666666666742,1.0138888888889142,0.9534246575342247,0.02506474696287952,1.0264990123567388,33.333333333333336,0.923076923051361,0.978082191780805,0.0,0.997341406060791,0
172,178.49166666666667,0.9916666666666742,1.061111111111103,1.0138888888889142,0.978082191780805,0.02500115183568982,1.023894544202817,36.111111111111114,0.9999999999723078,1.0465753424657191,0.0,0.997558155400353,0
173,179.55277777777778,1.061111111111103,1.1222222222222342,1.0138888888889142,1.0465753424657191,0.02535363585456877,1.0383301376595007,38.888888888888886,1.0769230768932543,1.1068493150684775,0.0,0.9985097813837791,0
174,180.675,1.1222222222222342,1.0388888888888914,1.0138888888889142,1.1068493150684775,0.01976047076425303,0.8092682424941442,36.111111111111114,0.9999999999723078,1.0246575342465523,0.0,0.9912729871125282,0
175,181.7138888888889,1.0388888888888914,1.038888888888863,1.0138888888889142,1.0246575342465523,0.02404370468329376,0.9846833541687079,36.111111111111114,0.9999999999723078,1.0246575342465243,0.0,0.9977178917422936,0
176,182.75277777777777,1.038888888888863,1.0722222222222229,1.0138888888889142,1.0246575342465243,0.023515640625181695,0.9630570742419285,36.111111111111114,0.9999999999723078,1.0575342465753168,0.0,0.9948506671951569,0
177,183.825,1.0722222222222229,1.0333333333333314,1.0138888888889142,1.0575342465753168,0.02092275785505467,0.8568684258333102,36.111111111111114,0.9999999999723078,1.0191780821917535,0.0,0.9931432425637123,0
178,184.85833333333332,1.0333333333333314,0.9277777777777771,1.0138888888889142,1.0191780821917535,0.022343087129129784,0.9150364416213289,38.888888888888886,1.0769230768932543,0.9150684931506615,0.0,0.9909780896077491,0
179,185.7861111111111,0.9277777777777771,0.9305555555555713,1.0138888888889142,0.9150684931506615,0.025372597886981964,1.039106706741696,38.888888888888886,1.0769230768932543,0.9178082191780749,0.0,0.9992438093734425,0
180,186.71666666666667,0.9305555555555713,1.0333333333333314,1.0138888888889142,0.9178082191780749,0.025204730532328933,1.0322318847451495,38.888888888888886,1.0769230768932543,1.0191780821917535,0.0,0.9994265253581172,0
181,187.75,1.0333333333333314,1.1333333333333258,1.0138888888889142,1.0191780821917535,0.024504767543004253,1.0035656740591945,38.888888888888886,1.0769230768932543,1.117808219178047,0.0,0.999703019811182,0
182,188.88333333333333,1.1333333333333258,0.8722222222222342,1.0138888888889142,1.117808219178047,0.023266378465057167,0.9528488179381777,36.111111111111114,0.9999999999723078,0.8602739726027301,0.0,0.9955269658092409,0
183,189.75555555555556,0.8722222222222342,0.7833333333333314,1.0138888888889142,0.8602739726027301,0.02499069363617296,1.0234662401991506,38.888888888888886,1.0769230768932543,0.7726027397260062,0.0,0.9936719825314445,0
184,190.5388888888889,0.7833333333333314,0.7972222222222172,1.0138888888889142,0.7726027397260062,0.025325066938888516,1.0371601292898445,36.111111111111114,0.9999999999723078,0.7863013698629892,0.0,0.9978933737383819,0
185,191.3361111111111,0.7972222222222172,0.9361111111111029,1.0138888888889142,0.7863013698629892,0.024768968616604915,1.0143857370550953,38.888888888888886,1.0769230768932543,0.9232876712328456,0.0,0.9996901103864066,0
186,192.2722222222222,0.9361111111111029,0.8833333333333542,1.0138888888889142,0.9232876712328456,0.024767181300638718,1.014312539504895,38.888888888888886,1.0769230768932543,0.8712328767123276,0.0,0.9996120912568806,0
187,193.15555555555557,0.8833333333333542,0.919444444444423,1.0138888888889142,0.8712328767123276,0.019176354579541286,0.7853464096667001,36.111111111111114,0.9999999999723078,0.9068493150684493,0.0,0.9914791414131553,0
188,194.075,0.919444444444423,1.2583333333333542,1.0138888888889142,0.9068493150684493,0.018031530806497918,0.7384614172072937,33.333333333333336,0.923076923051361,1.2410958904109486,0.0,0.9876116604582741,0
189,195.33333333333334,1.2583333333333542,1.25,1.0138888888889142,1.2410958904109486,0.019428349800401534,0.7956665954525272,36.111111111111114,0.9999999999723078,1.2328767123287363,0.0,0.9918637774142146,0
190,196.58333333333334,1.25,1.0999999999999943,1.0138888888889142,1.2328767123287363,0.023303177321271875,0.9543558744273654,36.111111111111114,0.9999999999723078,1.0849315068492824,0.0,0.9956628443506867,0
191,197.68333333333334,1.0999999999999943,1.2694444444444457,1.0138888888889142,1.0849315068492824,0.024241645624181987,0.9927898066546493,38.888888888888886,1.0769230768932543,1.252054794520518,0.0,0.9988691620597988,0
192,198.95277777777778,1.2694444444444457,1.174999999999983,1.0138888888889142,1.252054794520518,0.01918063971784367,0.7855219027702899,36.111111111111114,0.9999999999723078,1.1589041095889954,0.0,0.9914966203579634,0
193,200.12777777777777,1.174999999999983,1.188888888888897,1.0138888888889142,1.1589041095889954,0.02576324835407642,1.0551053649066093,38.888888888888886,1.0769230768932543,1.1726027397260064,0.0,0.9990536128296992,0
194,201.31666666666666,1.188888888888897,1.0916666666666686,1.0138888888889142,1.1726027397260064,0.023492101571654964,0.9620930583181777,36.111111111111114,0.9999999999723078,1.0767123287670983,0.0,0.9962699521526774,0
195,202.40833333333333,1.0916666666666686,1.0722222222222229,1.0138888888889142,1.0767123287670983,0.025605127280528387,1.0486296910819255,36.111111111111114,0.9999999999723078,1.0575342465753168,0.0,0.9983864345375932,0
196,203.48055555555555,1.0722222222222229,1.1666666666666572,1.0138888888889142,1.0575342465753168,0.026131508777283596,1.070187063567764,38.888888888888886,1.0769230768932543,1.1506849315068113,0.0,0.9990983899698582,0
197,204.6472222222222,1.1666666666666572,1.200000000000017,1.0138888888889142,1.1506849315068113,0.024408975979073082,0.999642636419394,36.111111111111114,0.9999999999723078,1.1835616438356038,0.0,0.9977166875339907,0
198,205.84722222222223,1.200000000000017,1.0805555555555486,1.0138888888889142,1.1835616438356038,0.02528970411119195,1.0357118837616361,36.111111111111114,0.9999999999723078,1.065753424657501,0.0,0.9977120244208888,0
199,206.92777777777778,1.0805555555555486,0.9749999999999943,1.0138888888889142,1.065753424657501,0.023650939917873665,0.9685981072524177,36.111111111111114,0.9999999999723078,0.9616438356164088,0.0,0.9965191126552901,0
200,207.90277777777777,0.9749999999999943,1.0305555555555657,1.0138888888889142,0.9616438356164088,0.023949384581350177,0.9808205786284695,36.111111111111114,0.9999999999723078,1.0164383561643682,0.0,0.9969231772249896,0
201,208.93333333333334,1.0305555555555657,1.1611111111110972,1.0138888888889142,1.0164383561643682,0.026234332838297583,1.0743981093538508,38.888888888888886,1.0769230768932543,1.1452054794520126,0.0,0.9983095481948614,0
202,210.09444444444443,1.1611111111110972,1.13055555555556,1.0138888888889142,1.1452054794520126,0.026310355458241043,1.0775115317396544,38.888888888888886,1.0769230768932543,1.1150684931506616,0.0,0.9956697441448215,0
203,211.225,1.13055555555556,0.9888888888889085,1.0138888888889142,1.1150684931506616,0.019344719194978585,0.7922415964291343,36.111111111111114,0.9999999999723078,0.9753424657534197,0.0,0.991401424941711,0
204,212.2138888888889,0.9888888888889085,1.0777777777777544,1.0138888888889142,0.9753424657534197,0.019482290704917502,0.7978756855859035,36.111111111111114,0.9999999999723078,1.0630136986300875,0.0,0.9918044068929218,0
205,213.29166666666666,1.0777777777777544,1.0555555555555713,1.0138888888889142,1.0630136986300875,0.025010195282821893,1.0242649085860331,38.888888888888886,1.0769230768932543,1.0410958904109486,0.0,0.997646060046555,0
206,214.34722222222223,1.0555555555555713,0.99444444444444,1.0138888888889142,1.0410958904109486,0.025110319459253544,1.028365383582742,36.111111111111114,0.9999999999723078,0.9808219178081904,0.0,0.9973778664301585,0
207,215.34166666666667,0.99444444444444,0.9694444444444343,1.0138888888889142,0.9808219178081904,0.024238302654082323,0.9926528990085948,38.888888888888886,1.0769230768932543,0.95616438356161,0.0,0.999447758745847,0
208,216.3111111111111,0.9694444444444343,0.9861111111111143,1.0138888888889142,0.95616438356161,0.025416596025368145,1.0409086018761586,38.888888888888886,1.0769230768932543,0.9726027397260063,0.0,0.9991637776895043,0
209,217.29722222222222,0.9861111111111143,1.0277777777777715,1.0138888888889142,0.9726027397260063,0.025258835251395436,1.0344476837224086,38.888888888888886,1.0769230768932543,1.0136986301369548,0.0,0.9993576531567576,0
210,218.325,1.0277777777777715,1.0444444444444514,1.0138888888889142,1.0136986301369548,0.024283680836278923,0.9945113123122016,38.888888888888886,1.0769230768932543,1.030136986301351,0.0,0.9997619623830639,0
211,219.36944444444444,1.0444444444444514,1.0250000000000057,1.0138888888889142,1.030136986301351,0.0192417518716927,0.7880246834950235,36.111111111111114,0.9999999999723078,1.0109589041095695,0.0,0.991601536472596,0
212,220.39444444444445,1.0250000000000057,0.9388888888888971,1.0138888888889142,1.0109589041095695,0.02300918591601125,0.9423157813201685,36.111111111111114,0.9999999999723078,0.926027397260259,0.0,0.9943498585500805,0
213,221.33333333333334,0.9388888888888971,1.0861111111111086,1.0138888888889142,0.926027397260259,0.025730258533797925,1.0537543032747543,36.111111111111114,0.9999999999723078,1.0712328767122996,0.0,0.9988976911086416,0
214,222.41944444444445,1.0861111111111086,1.1416666666666515,1.0138888888889142,1.0712328767122996,0.0196241783662662,0.8036865379538028,36.111111111111114,0.9999999999723078,1.126027397260231,0.0,0.9919397959799063,0
215,223.5611111111111,1.1416666666666515,1.063888888888897,1.0138888888889142,1.126027397260231,0.024384191452370144,0.9986276135181066,38.888888888888886,1.0769230768932543,1.0493150684931327,0.0,0.9981989881359423,0
216,224.625,1.063888888888897,0.86944444444444,1.0138888888889142,1.0493150684931327,0.01955380897711943,0.8008046373877893,36.111111111111114,0.9999999999723078,0.8575342465753167,0.0,0.9906510091128912,0
217,225.49444444444444,0.86944444444444,0.875,1.0138888888889142,0.8575342465753167,0.02308157261559297,0.9452802986056787,33.333333333333336,0.923076923051361,0.8630136986301155,0.0,0.9931388534785719,0
218,226.36944444444444,0.875,0.98888888888888,1.0138888888889142,0.8630136986301155,0.023203346466306556,0.9502674120871553,38.888888888888886,1.0769230768932543,0.9753424657533917,0.0,0.9938531739489829,0
219,227.35833333333332,0.98888888888888,1.1611111111111256,1.0138888888889142,0.9753424657533917,0.024157767753385018,0.9893546811511209,38.888888888888886,1.0769230768932543,1.1452054794520405,0.0,0.9995969899000721,0
220,228.51944444444445,1.1611111111111256,1.0833333333333428,1.0138888888889142,1.1452054794520405,0.023755259979219623,0.9728704200788432,36.111111111111114,0.9999999999723078,1.0684931506849142,0.0,0.9973520069996149,0
221,229.6027777777778,1.0833333333333428,1.049999999999983,1.0138888888889142,1.0684931506849142,0.024081556788460932,0.9862335453047792,36.111111111111114,0.9999999999723078,1.0356164383561217,0.0,0.9977416554562484,0
222,230.65277777777777,1.049999999999983,1.1055555555555543,1.0138888888889142,1.0356164383561217,0.0262039230903468,1.0731527117328923,38.888888888888886,1.0769230768932543,1.0904109589040811,0.0,0.997419705107965,0
223,231.75833333333333,1.1055555555555543,1.0333333333333314,1.0138888888889142,1.0904109589040811,0.01866305547916612,0.7643248122670119,36.111111111111114,0.9999999999723078,1.0191780821917535,0.0,0.9910688774540624,0
224,232.79166666666666,1.0333333333333314,0.9750000000000227,1.0138888888889142,1.0191780821917535,0.023942484031697853,0.9805379742433816,36.111111111111114,0.9999999999723078,0.9616438356164368,0.0,0.9940015460189197,0
225,233.76666666666668,0.9750000000000227,1.0527777777777771,1.0138888888889142,0.9616438356164368,0.024920348525721992,1.0205853339402928,38.888888888888886,1.0769230768932543,1.038356164383535,0.0,0.9994492354078616,0
226,234.81944444444446,1.0527777777777771,1.044444444444423,1.0138888888889142,1.038356164383535,0.025842291060701156,1.0583424716048917,38.888888888888886,1.0769230768932543,1.030136986301323,0.0,0.9993791819440336,0
227,235.86388888888888,1.044444444444423,1.0500000000000114,1.0138888888889142,1.030136986301323,0.025747735037985994,1.0544700341901738,38.888888888888886,1.0769230768932543,1.0356164383561497,0.0,0.9992880928980324,0
228,236.9138888888889,1.0500000000000114,0.9472222222222229,1.0138888888889142,1.0356164383561497,0.018858099086620353,0.7723126076640601,36.111111111111114,0.9999999999723078,0.934246575342443,0.0,0.9909908525719426,0
229,237.86111111111111,0.9472222222222229,0.9861111111111143,1.0138888888889142,0.934246575342443,0.025020764696042433,1.0246977672240294,36.111111111111114,0.9999999999723078,0.9726027397260063,0.0,0.9974842879483536,0
230,238.84722222222223,0.9861111111111143,1.0833333333333144,1.0138888888889142,0.9726027397260063,0.01718631402642944,0.703846498044034,30.555555555555557,0.8461538461304142,1.0684931506848863,0.0,0.9813350263538845,0
231,239.93055555555554,1.0833333333333144,1.1750000000000114,1.0138888888889142,1.0684931506848863,0.025915877154658325,1.0613561087615762,38.888888888888886,1.0769230768932543,1.1589041095890233,0.0,0.9992588777801643,0
232,241.10555555555555,1.1750000000000114,0.9972222222222342,1.0138888888889142,1.1589041095890233,0.020982201072290763,0.8593028571034333,36.111111111111114,0.9999999999723078,0.9835616438356037,0.0,0.993945787335227,0
233,242.1027777777778,0.9972222222222342,0.9611111111111086,1.0138888888889142,0.9835616438356037,0.022738391564342514,0.9312256979073412,33.333333333333336,0.923076923051361,0.947945205479426,0.0,0.9963085589339065,0
234,243.0638888888889,0.9611111111111086,0.9805555555555543,1.0138888888889142,0.947945205479426,0.02580731073178031,1.0569098908913366,38.888888888888886,1.0769230768932543,0.9671232876712076,0.0,0.9992259369074536,0
235,244.04444444444445,0.9805555555555543,0.9000000000000057,1.0138888888889142,0.9671232876712076,0.023241797588522312,0.9518421353044666,36.111111111111114,0.9999999999723078,0.8876712328766958,0.0,0.9974490883174233,0
236,244.94444444444446,0.9000000000000057,1.055555555555543,1.0138888888889142,0.8876712328766958,0.0236642810618542,0.9691444790605995,33.333333333333336,0.923076923051361,1.0410958904109204,0.0,0.9946158947159862,0
237,246.0,1.055555555555543,1.1666666666666572,1.0138888888889142,1.0410958904109204,0.02475575602517847,1.0138446299747006,38.888888888888886,1.0769230768932543,1.1506849315068113,0.0,0.9997534400123138,0
238,247.16666666666666,1.1666666666666572,1.1583333333333314,1.0138888888889142,1.1506849315068113,0.02390143188024512,0.9788567287481146,36.111111111111114,0.9999999999723078,1.1424657534246272,0.0,0.9972130751381973,0
239,248.325,1.1583333333333314,1.0027777777777942,1.0138888888889142,1.1424657534246272,0.02068338793480792,0.8470652952816594,36.111111111111114,0.9999999999723078,0.9890410958904026,0.0,0.9928394599553332,0
240,249.32777777777778,1.0027777777777942,1.055555555555543,1.0138888888889142,0.9890410958904026,0.01863175545901162,0.7630429545318062,33.333333333333336,0.923076923051361,1.0410958904109204,0.0,0.9911899721691269,0
241,250.38333333333333,1.055555555555543,1.069444444444457,1.0138888888889142,1.0410958904109204,0.024982909439339784,1.0231474470203055,36.111111111111114,0.9999999999723078,1.0547945205479314,0.0,0.9973256092369853,0
242,251.45277777777778,1.069444444444457,1.1111111111111143,1.0138888888889142,1.0547945205479314,0.025409742479320277,1.0406279224717467,38.888888888888886,1.0769230768932543,1.0958904109588798,0.0,0.9988907310104753,0
243,252.5638888888889,1.1111111111111143,0.9777777777777601,1.0138888888889142,1.0958904109588798,0.02577245472861064,1.0554824018015263,38.888888888888886,1.0769230768932543,0.9643835616437941,0.0,0.9977760693252311,0
244,253.54166666666666,0.9777777777777601,0.99444444444444,1.0138888888889142,0.9643835616437941,0.024380920992877853,0.9984936754638442,38.888888888888886,1.0769230768932543,0.9808219178081904,0.0,0.9998802805016155,0
245,254.5361111111111,0.99444444444444,1.1083333333333485,1.0138888888889142,0.9808219178081904,0.0239588613218266,0.9812086880617632,36.111111111111114,0.9999999999723078,1.0931506849314945,0.0,0.9972112047778412,0
246,255.64444444444445,1.1083333333333485,1.055555555555543,1.0138888888889142,1.0931506849314945,0.023875495739860288,0.9777945427811545,36.111111111111114,0.9999999999723078,1.0410958904109204,0.0,0.9965557615647209,0
247,256.7,1.055555555555543,0.9611111111111086,1.0138888888889142,1.0410958904109204,0.02477518960388422,1.014640510714193,36.111111111111114,0.9999999999723078,0.947945205479426,0.0,0.9978713617716288,0
248,257.6611111111111,0.9611111111111086,1.0833333333333712,1.0138888888889142,0.947945205479426,0.026317525783417207,1.0778051844831873,38.888888888888886,1.0769230768932543,1.0684931506849422,0.0,0.9977293702406366,0
249,258.74444444444447,1.0833333333333712,1.1638888888888914,1.0138888888889142,1.0684931506849422,0.02489687301386549,1.0196239202954251,38.888888888888886,1.0769230768932543,1.147945205479426,0.0,0.9996380478281829,0
250,259.90833333333336,1.1638888888888914,1.0749999999999886,1.0138888888889142,1.147945205479426,0.01880119265982138,0.7699820678428358,33.333333333333336,0.923076923051361,1.0602739726027022,0.0,0.9916284838984295,0
251,260.98333333333335,1.0749999999999886,1.0083333333333258,1.0138888888889142,1.0602739726027022,0.018846667783066727,0.7718444512599628,33.333333333333336,0.923076923051361,0.9945205479451732,0.0,0.9909194250191643,0
252,261.9916666666667,1.0083333333333258,1.0277777777777715,1.0138888888889142,0.9945205479451732,0.024229985221515305,0.9923122677495586,36.111111111111114,0.9999999999723078,1.0136986301369548,0.0,0.9977877093528267,0
253,263.01944444444445,1.0277777777777715,1.10277777777776,1.0138888888889142,1.0136986301369548,0.024895160313987766,1.0195537785646689,38.888888888888886,1.0769230768932543,1.0876712328766678,0.0,0.9998606166996216,0
254,264.1222222222222,1.10277777777776,1.1055555555555543,1.0138888888889142,1.0876712328766678,0.024214173766913705,0.9916647270998763,38.888888888888886,1.0769230768932543,1.0904109589040811,0.0,0.999740524758143,0
255,265.22777777777776,1.1055555555555543,0.9916666666666742,1.0138888888889142,1.0904109589040811,0.019926066503140622,0.816050032977421,36.111111111111114,0.9999999999723078,0.978082191780805,0.0,0.991604116502244,0
256,266.21944444444443,0.9916666666666742,1.055555555555543,1.0138888888889142,0.978082191780805,0.026976568324059834,1.1047955434153014,38.888888888888886,1.0769230768932543,1.0410958904109204,0.0,0.9981588403315902,0
257,267.275,1.055555555555543,1.0638888888889255,1.0138888888889142,1.0410958904109204,0.02452253893236066,1.0042934816708005,38.888888888888886,1.0769230768932543,1.0493150684931607,0.0,0.9986787313893827,0
258,268.3388888888889,1.0638888888889255,1.0611111111110745,1.0138888888889142,1.0493150684931607,0.024211500931671365,0.9915552640863251,38.888888888888886,1.0769230768932543,1.0465753424656912,0.0,0.9990051195709544,0
259,269.4,1.0611111111110745,1.0472222222222172,1.0138888888889142,1.0465753424656912,0.02654015469431382,1.0869227054976975,38.888888888888886,1.0769230768932543,1.0328767123287363,0.0,0.9978234010685604,0
260,270.4472222222222,1.0472222222222172,1.0055555555555884,1.0138888888889142,1.0328767123287363,0.02423447037939824,0.9924959524340246,36.111111111111114,0.9999999999723078,0.9917808219178159,0.0,0.9973437543881487,0
261,271.4527777777778,1.0055555555555884,1.01111111111112,1.0138888888889142,0.9917808219178159,0.024203790331668536,0.9912394849843336,38.888888888888886,1.0769230768932543,0.9972602739725867,0.0,0.9989443885491991,0
262,272.4638888888889,1.01111111111112,1.033333333333303,1.0138888888889142,0.9972602739725867,0.024230465918206004,0.9923319541512995,36.111111111111114,0.9999999999723078,1.0191780821917256,0.0,0.9979314467809426,0
263,273.4972222222222,1.033333333333303,0.9416666666666629,1.0138888888889142,1.0191780821917256,0.025588467170649134,1.0479473946932112,36.111111111111114,0.9999999999723078,0.9287671232876443,0.0,0.9988806140193487,0
264,274.43888888888887,0.9416666666666629,0.9694444444444912,1.0138888888889142,0.9287671232876443,0.025622863070788773,1.049356040771895,36.111111111111114,0.9999999999723078,0.9561643835616661,0.0,0.9953780504051339,0
265,275.40833333333336,0.9694444444444912,1.2055555555555202,1.0138888888889142,0.9561643835616661,0.02614813574693662,1.0708680027351367,36.111111111111114,0.9999999999723078,1.1890410958903463,0.0,0.9990416110505995,0
266,276.6138888888889,1.2055555555555202,1.1222222222222058,1.0138888888889142,1.1890410958903463,0.019896924729170415,0.8148565638295758,33.333333333333336,0.923076923051361,1.1068493150684493,0.0,0.993617070180628,0
267,277.7361111111111,1.1222222222222058,1.025000000000034,1.0138888888889142,1.1068493150684493,0.02325240167418336,0.9522764139139468,36.111111111111114,0.9999999999723078,1.0109589041095974,0.0,0.9940758667763132,0
268,278.7611111111111,1.025000000000034,1.0722222222221944,1.0138888888889142,1.0109589041095974,0.02588149079036934,1.0599478532131177,38.888888888888886,1.0769230768932543,1.0575342465752886,0.0,0.9995571203142763,0
269,279.8333333333333,1.0722222222221944,1.0833333333333712,1.0138888888889142,1.0575342465752886,0.026115301787275218,1.0695233242026103,38.888888888888886,1.0769230768932543,1.0684931506849422,0.0,0.9976106432396431,0
270,280.9166666666667,1.0833333333333712,1.055555555555543,1.0138888888889142,1.0684931506849422,0.023971706298560706,0.9817347398886909,33.333333333333336,0.923076923051361,1.0410958904109204,0.0,0.9921695110496238,0
271,281.97222222222223,1.055555555555543,0.9499999999999886,1.0138888888889142,1.0410958904109204,0.024099593599487743,0.9869722229675741,36.111111111111114,0.9999999999723078,0.9369863013698284,0.0,0.9974184778144628,0
272,282.9222222222222,0.9499999999999886,0.966666666666697,1.0138888888889142,0.9369863013698284,0.024604593438696743,1.0076539332978665,36.111111111111114,0.9999999999723078,0.9534246575342528,0.0,0.9995743178637729,0
273,283.8888888888889,0.966666666666697,1.0055555555555316,1.0138888888889142,0.9534246575342528,0.025580612559129134,1.0476257177586836,36.111111111111114,0.9999999999723078,0.9917808219177598,0.0,0.9977226219371264,0
274,284.89444444444445,1.0055555555555316,1.0194444444444457,1.0138888888889142,0.9917808219177598,0.023347243910158695,0.9561605728764357,36.111111111111114,0.9999999999723078,1.0054794520547707,0.0,0.9965455997806305,0
275,285.9138888888889,1.0194444444444457,0.8972222222222399,1.0138888888889142,1.0054794520547707,0.019621886374836098,0.8035926719777043,36.111111111111114,0.9999999999723078,0.8849315068493104,0.0,0.9912353972085137,0
276,286.81111111111113,0.8972222222222399,0.9499999999999886,1.0138888888889142,0.8849315068493104,0.017692810677691677,0.7245895086578125,27.77777777777778,0.7692307692094675,0.9369863013698284,0.0,0.9817073049439035,0
277,287.7611111111111,0.9499999999999886,1.1638888888888914,1.0138888888889142,0.9369863013698284,0.026846538305221327,1.0994703076923105,38.888888888888886,1.0769230768932543,1.147945205479426,0.0,0.9976971119102352,0
278,288.925,1.1638888888888914,1.1194444444444116,1.0138888888889142,1.147945205479426,0.02447240147907935,1.0022401576794764,38.888888888888886,1.0769230768932543,1.104109589041036,0.0,0.9997927059780007,0
279,290.0444444444444,1.1194444444444116,1.0555555555555998,1.0138888888889142,1.104109589041036,0.0246862530664767,1.0109982131100541,36.111111111111114,0.9999999999723078,1.0410958904109766,0.0,0.9929348745539176,0
280,291.1,1.0555555555555998,1.0416666666666288,1.0138888888889142,1.0410958904109766,0.023651862554168825,0.9686358928022637,36.111111111111114,0.9999999999723078,1.0273972602739097,0.0,0.9964606694471779,0
281,292.14166666666665,1.0416666666666288,1.0527777777778056,1.0138888888889142,1.0273972602739097,0.024544014890293984,1.0051730057944879,36.111111111111114,0.9999999999723078,1.0383561643835633,0.0,0.995872753290679,0
282,293.19444444444446,1.0527777777778056,1.1111111111110858,1.0138888888889142,1.0383561643835633,0.024348889989496716,0.9971818811184143,36.111111111111114,0.9999999999723078,1.0958904109588519,0.0,0.99769018940302,0
283,294.30555555555554,1.1111111111110858,1.0083333333333258,1.0138888888889142,1.0958904109588519,0.024075277004320925,0.9859763636852289,36.111111111111114,0.9999999999723078,0.9945205479451732,0.0,0.997345145693211,0
284,295.31388888888887,1.0083333333333258,0.9944444444444684,1.0138888888889142,0.9945205479451732,0.023792482738791813,0.9743948370615733,36.111111111111114,0.9999999999723078,0.9808219178082184,0.0,0.997518510060939,0
285,296.30833333333334,0.9944444444444684,1.0833333333333144,1.0138888888889142,0.9808219178082184,0.02400668890504019,0.9831674138771431,36.111111111111114,0.9999999999723078,1.0684931506848863,0.0,0.9974374210470108,0
286,297.39166666666665,1.0833333333333144,1.0472222222222172,1.0138888888889142,1.0684931506848863,0.026374864862156046,1.0801534430864772,38.888888888888886,1.0769230768932543,1.0328767123287363,0.0,0.9981566724811595,0
287,298.43888888888887,1.0472222222222172,0.8916666666667084,1.0138888888889142,1.0328767123287363,0.019055811938223487,0.7804097190053961,33.333333333333336,0.923076923051361,0.8794520547945397,0.0,0.9916864128639327,0
288,299.3305555555556,0.8916666666667084,1.0166666666666515,1.0138888888889142,0.8794520547945397,0.02454619836021221,1.0052624273919963,36.111111111111114,0.9999999999723078,1.0027397260273574,0.0,0.9991378975756253,0
289,300.34722222222223,1.0166666666666515,1.1416666666666515,1.0138888888889142,1.0027397260273574,0.025563637516616857,1.0469305236520219,38.888888888888886,1.0769230768932543,1.126027397260231,0.0,0.9975139140983261,0
290,301.4888888888889,1.1416666666666515,1.1000000000000227,1.0138888888889142,1.126027397260231,0.020729068783714995,0.8489361039659113,36.111111111111114,0.9999999999723078,1.0849315068493104,0.0,0.992670117208678,0
291,302.5888888888889,1.1000000000000227,0.9722222222222285,1.0138888888889142,1.0849315068493104,0.023829198982099137,0.9758985102304361,36.111111111111114,0.9999999999723078,0.9589041095890234,0.0,0.997227213534295,0
292,303.56111111111113,0.9722222222222285,0.9972222222222058,1.0138888888889142,0.9589041095890234,0.02548525280225368,1.0437203642996522,36.111111111111114,0.9999999999723078,0.9835616438355758,0.0,0.996470362204114,0
293,304.55833333333334,0.9972222222222058,1.0611111111111313,1.0138888888889142,0.9835616438355758,0.023775741165466092,0.9737092044274357,36.111111111111114,0.9999999999723078,1.0465753424657473,0.0,0.9976686287121902,0
294,305.61944444444447,1.0611111111111313,1.1166666666666174,1.0138888888889142,1.0465753424657473,0.0252753430015081,1.0351237403852578,38.888888888888886,1.0769230768932543,1.1013698630136226,0.0,0.997049557340617,0
295,306.7361111111111,1.1166666666666174,1.0305555555555657,1.0138888888889142,1.1013698630136226,0.0244809656625896,1.0025908943507036,38.888888888888886,1.0769230768932543,1.0164383561643682,0.0,0.9997127285180512,0
296,307.76666666666665,1.0305555555555657,0.8944444444444457,1.0138888888889142,1.0164383561643682,0.0255277457493953,1.045460615990108,36.111111111111114,0.9999999999723078,0.8821917808218971,0.0,0.9986336228837771,0
297,308.6611111111111,0.8944444444444457,0.9833333333333485,1.0138888888889142,0.8821917808218971,0.024341528909904903,0.9968804162385947,38.888888888888886,1.0769230768932543,0.9698630136986209,0.0,0.9999079597479437,0
298,309.64444444444445,0.9833333333333485,0.9833333333333485,1.0138888888889142,0.9698630136986209,0.02379725142023046,0.9745901331399364,36.111111111111114,0.9999999999723078,0.9698630136986209,0.0,0.9972266744797238,0
299,310.6277777777778,0.9833333333333485,0.8916666666666515,1.0138888888889142,0.9698630136986209,0.02550364625013845,1.044473647630839,36.111111111111114,0.9999999999723078,0.8794520547944836,0.0,0.9976368221247638,0
300,311.51944444444445,0.8916666666666515,1.1194444444444684,1.0138888888889142,0.8794520547944836,0.025310914620433732,1.0365805367275136,38.888888888888886,1.0769230768932543,1.1041095890410921,0.0,0.9989514960721346,0
301,312.6388888888889,1.1194444444444684,1.1722222222222172,1.0138888888889142,1.1041095890410921,0.02632475504720911,1.0781012509925938,38.888888888888886,1.0769230768932543,1.15616438356161,0.0,0.9982202154046443,0
302,313.81111111111113,1.1722222222222172,1.0916666666666401,1.0138888888889142,1.15616438356161,0.02576951506427286,1.055362011097249,36.111111111111114,0.9999999999723078,1.0767123287670703,0.0,0.9985566955397125,0
303,314.90277777777777,1.0916666666666401,0.9805555555555543,1.0138888888889142,1.0767123287670703,0.018733733661170093,0.7672193591032395,36.111111111111114,0.9999999999723078,0.9671232876712076,0.0,0.9904568905093822,0
304,315.8833333333333,0.9805555555555543,1.0194444444444457,1.0138888888889142,0.9671232876712076,0.019012897193606024,0.7786521930654532,36.111111111111114,0.9999999999723078,1.0054794520547707,0.0,0.9897072020688564,0
305,316.90277777777777,1.0194444444444457,1.0777777777777828,1.0138888888889142,1.0054794520547707,0.02187942730488483,0.896047765918286,36.111111111111114,0.9999999999723078,1.0630136986301155,0.0,0.9897432380336446,0
306,317.98055555555555,1.0777777777777828,1.0388888888888914,1.0138888888889142,1.0630136986301155,0.023761465491848703,0.9731245599907422,36.111111111111114,0.9999999999723078,1.0246575342465523,0.0,0.9967329738463269,0
307,319.01944444444445,1.0388888888888914,1.0277777777777715,1.0138888888889142,1.0246575342465523,0.02516003208354987,1.0304013091724722,38.888888888888886,1.0769230768932543,1.0136986301369548,0.0,0.998515864485277,0
308,320.0472222222222,1.0277777777777715,1.055555555555543,1.0138888888889142,1.0136986301369548,0.025388615156168214,1.0397626763002432,36.111111111111114,0.9999999999723078,1.0410958904109204,0.0,0.9972501932955511,0
309,321.10277777777776,1.055555555555543,1.036111111111154,1.0138888888889142,1.0410958904109204,0.01965075780068006,0.8047750693168056,36.111111111111114,0.9999999999723078,1.0219178082191949,0.0,0.9920128067799925,0
310,322.1388888888889,1.036111111111154,0.9277777777777487,1.0138888888889142,1.0219178082191949,0.023569251672231825,0.9652526554273229,36.111111111111114,0.9999999999723078,0.9150684931506334,0.0,0.9962950776293646,0
311,323.06666666666666,0.9277777777777487,1.0472222222222172,1.0138888888889142,0.9150684931506334,0.018330957986772388,0.7507241264730089,33.333333333333336,0.923076923051361,1.0328767123287363,0.0,0.9901520897988432,0
312,324.1138888888889,1.0472222222222172,1.0611111111111313,1.0138888888889142,1.0328767123287363,0.024857471216087536,1.0180102632110728,36.111111111111114,0.9999999999723078,1.0465753424657473,0.0,0.9984221591580286,0
313,325.175,1.0611111111111313,1.033333333333303,1.0138888888889142,1.0465753424657473,0.019682420717251792,0.8060717890737358,33.333333333333336,0.923076923051361,1.0191780821917256,0.0,0.9936253092733789,0
314,326.2083333333333,1.033333333333303,0.9750000000000227,1.0138888888889142,1.0191780821917256,0.021057464568894832,0.8623851904317932,36.111111111111114,0.9999999999723078,0.9616438356164368,0.0,0.9924171986944266,0
315,327.18333333333334,0.9750000000000227,0.9944444444444684,1.0138888888889142,0.9616438356164368,0.023959915832646818,0.981251874387046,36.111111111111114,0.9999999999723078,0.9808219178082184,0.0,0.9964539630107558,0
316,328.1777777777778,0.9944444444444684,1.0249999999999773,1.0138888888889142,0.9808219178082184,0.02652090738070684,1.08613445303948,38.888888888888886,1.0769230768932543,1.0109589041095415,0.0,0.9986674877995929,0
317,329.2027777777778,1.0249999999999773,1.1388888888888573,1.0138888888889142,1.0109589041095415,0.025241338340754836,1.033731117083277,36.111111111111114,0.9999999999723078,1.1232876712328175,0.0,0.9977367427998649,0
318,330.34166666666664,1.1388888888888573,1.0583333333333371,1.0138888888889142,1.1232876712328175,0.026002610189502732,1.0649081643533738,36.111111111111114,0.9999999999723078,1.043835616438334,0.0,0.9978257497442812,0
319,331.4,1.0583333333333371,1.0083333333333826,1.0138888888889142,1.043835616438334,0.02636807435742259,1.0798753454694288,38.888888888888886,1.0769230768932543,0.9945205479452293,0.0,0.9989867840004052,0
320,332.40833333333336,1.0083333333333826,1.0916666666666401,1.0138888888889142,0.9945205479452293,0.023844926016451173,0.9765425935420918,36.111111111111114,0.9999999999723078,1.0767123287670703,0.0,0.9980520174976288,0
321,333.5,1.0916666666666401,1.0888888888889028,1.0138888888889142,1.0767123287670703,0.024518676833799623,1.0041353136923086,36.111111111111114,0.9999999999723078,1.073972602739713,0.0,0.9988684317500061,0
322,334.5888888888889,1.0888888888889028,0.9499999999999886,1.0138888888889142,1.073972602739713,0.018512136741766102,0.7581441021598372,33.333333333333336,0.923076923051361,0.9369863013698284,0.0,0.9903908153696985,0
323,335.5388888888889,0.9499999999999886,0.9777777777777601,1.0138888888889142,0.9369863013698284,0.01907565537204337,0.7812223849081495,33.333333333333336,0.923076923051361,0.9643835616437941,0.0,0.990983853273341,0
324,336.51666666666665,0.9777777777777601,1.0833333333333712,1.0138888888889142,0.9643835616437941,0.025468678845348553,1.0430415962107842,36.111111111111114,0.9999999999723078,1.0684931506849422,0.0,0.997106674886395,0
325,337.6,1.0833333333333712,1.1416666666666515,1.0138888888889142,1.0684931506849422,0.025166258013146616,1.0306562852387189,38.888888888888886,1.0769230768932543,1.126027397260231,0.0,0.9992924079147868,0
326,338.7416666666667,1.1416666666666515,1.0388888888888914,1.0138888888889142,1.126027397260231,0.02036997044035623,0.8342296281597671,36.111111111111114,0.9999999999723078,1.0246575342465523,0.0,0.9942985799657498,0
327,339.78055555555557,1.0388888888888914,1.0944444444444343,1.0138888888889142,1.0246575342465523,0.02422723560783912,0.9921996603600985,36.111111111111114,0.9999999999723078,1.0794520547944837,0.0,0.9969149613767064,0
328,340.875,1.0944444444444343,1.1416666666666515,1.0138888888889142,1.0794520547944837,0.02297865360508029,0.9410653642678033,38.888888888888886,1.0769230768932543,1.126027397260231,0.0,0.9907608915400413,0
329,342.01666666666665,1.1416666666666515,1.1777777777778056,1.0138888888889142,1.126027397260231,0.025906689891290025,1.0609798545433393,38.888888888888886,1.0769230768932543,1.161643835616437,0.0,0.9995260072635694,0
330,343.19444444444446,1.1777777777778056,1.0388888888888914,1.0138888888889142,1.161643835616437,0.025157299540067058,1.0302894008739172,38.888888888888886,1.0769230768932543,1.0246575342465523,0.0,0.9991942046165101,0
331,344.23333333333335,1.0388888888888914,1.069444444444457,1.0138888888889142,1.0246575342465523,0.024189736037843645,0.990663906912391,36.111111111111114,0.9999999999723078,1.0547945205479314,0.0,0.9969709604473049,0
332,345.3027777777778,1.069444444444457,1.0749999999999886,1.0138888888889142,1.0547945205479314,0.019804578015227243,0.8110746062140674,33.333333333333336,0.923076923051361,1.0602739726027022,0.0,0.9896417711530534,0
333,346.3777777777778,1.0749999999999886,1.0666666666666629,1.0138888888889142,1.0602739726027022,0.01870841055188682,0.7661822791475719,33.333333333333336,0.923076923051361,1.052054794520518,0.0,0.9894617993521339,0
334,347.44444444444446,1.0666666666666629,1.0861111111111086,1.0138888888889142,1.052054794520518,0.02503372871848196,1.025228694436263,38.888888888888886,1.0769230768932543,1.0712328767122996,0.0,0.998623693643669,0
335,348.53055555555557,1.0861111111111086,1.10277777777776,1.0138888888889142,1.0712328767122996,0.0245694405049296,1.00621428374358,36.111111111111114,0.9999999999723078,1.0876712328766678,0.0,0.9969484093595001,0
336,349.6333333333333,1.10277777777776,1.0749999999999886,1.0138888888889142,1.0876712328766678,0.024237008926565985,0.9925999158278849,36.111111111111114,0.9999999999723078,1.0602739726027022,0.0,0.9968570678489368,0
337,350.7083333333333,1.0749999999999886,1.0777777777777828,1.0138888888889142,1.0602739726027022,0.024464113350346865,1.0019007265265993,38.888888888888886,1.0769230768932543,1.0630136986301155,0.0,0.9994758762572267,0
338,351.7861111111111,1.0777777777777828,0.9833333333333485,1.0138888888889142,1.0630136986301155,0.02623976646790019,1.0746206376494225,38.888888888888886,1.0769230768932543,0.9698630136986209,0.0,0.9990290747543003,0
339,352.76944444444445,0.9833333333333485,1.01111111111112,1.0138888888889142,0.9698630136986209,0.02503158337800268,1.025140834387789,36.111111111111114,0.9999999999723078,0.9972602739725867,0.0,0.9956756972213693,0
340,353.78055555555557,1.01111111111112,1.1916666666666629,1.0138888888889142,0.9972602739725867,0.02135584161059055,0.8746048924325428,36.111111111111114,0.9999999999723078,1.1753424657533917,0.0,0.992898211406523,0
341,354.97222222222223,1.1916666666666629,1.0611111111111313,1.0138888888889142,1.1753424657533917,0.025097446841838133,1.0278381997622574,38.888888888888886,1.0769230768932543,1.0465753424657473,0.0,0.9988661964372052,0
342,356.03333333333336,1.0611111111111313,0.9277777777777487,1.0138888888889142,1.0465753424657473,0.022442755914529457,0.919118266581584,33.333333333333336,0.923076923051361,0.9150684931506334,0.0,0.9921986369196906,0
343,356.9611111111111,0.9277777777777487,0.966666666666697,1.0138888888889142,0.9150684931506334,0.02455919041781969,1.0057945027535515,36.111111111111114,0.9999999999723078,0.9534246575342528,0.0,0.9964363660234675,0
344,357.9277777777778,0.966666666666697,1.0083333333333258,1.0138888888889142,0.9534246575342528,0.025729970764856478,1.053742518015776,36.111111111111114,0.9999999999723078,0.9945205479451732,0.0,0.998753841589847,0
345,358.93611111111113,1.0083333333333258,1.0666666666666629,1.0138888888889142,0.9945205479451732,0.023908893971375564,0.9791623304438691,36.111111111111114,0.9999999999723078,1.052054794520518,0.0,0.9974348975933396,0
346,360.0027777777778,1.0666666666666629,0.98888888888888,1.0138888888889142,1.052054794520518,0.024239048915744472,0.9926834613302608,36.111111111111114,0.9999999999723078,0.9753424657533917,0.0,0.9981592520393314,0
347,360.9916666666667,0.98888888888888,1.0361111111110972,1.0138888888889142,0.9753424657533917,0.024491853786511666,1.003036805433268,38.888888888888886,1.0769230768932543,1.021917808219139,0.0,0.9997935629521213,0
348,362.02777777777777,1.0361111111110972,1.0472222222222172,1.0138888888889142,1.021917808219139,0.018788656440968606,0.7694686608537241,33.333333333333336,0.923076923051361,1.0328767123287363,0.0,0.9895751713125583,0
349,363.075,1.0472222222222172,1.0277777777777715,1.0138888888889142,1.0328767123287363,0.01798509719081825,0.7365597797917666,33.333333333333336,0.923076923051361,1.0136986301369548,0.0,0.9881059669175647,0
350,364.10277777777776,1.0277777777777715,0.88611111111112,1.0138888888889142,1.0136986301369548,0.020540869905093587,0.841228626873977,36.111111111111114,0.9999999999723078,0.873972602739713,0.0,0.9942696617683915,0
351,364.9888888888889,0.88611111111112,1.0333333333333599,1.0138888888889142,0.873972602739713,0.02444405543663503,1.0010792768368966,36.111111111111114,0.9999999999723078,1.0191780821917815,0.0,0.9980850843518736,0
352,366.02222222222224,1.0333333333333599,1.0805555555555202,1.0138888888889142,1.0191780821917815,0.021588807800354503,0.8841457652791497,36.111111111111114,0.9999999999723078,1.065753424657473,0.0,0.992903722289112,0
353,367.10277777777776,1.0805555555555202,1.01111111111112,1.0138888888889142,1.065753424657473,0.02551219589911819,1.0448237890564316,38.888888888888886,1.0769230768932543,0.9972602739725867,0.0,0.9981965466451044,0
354,368.1138888888889,1.01111111111112,1.0,1.0138888888889142,0.9972602739725867,0.025244375669184214,1.0338555075124953,38.888888888888886,1.0769230768932543,0.9863013698629891,0.0,0.9981982577870314,0
355,369.1138888888889,1.0,0.9805555555555543,1.0138888888889142,0.9863013698629891,0.024300176380620882,0.9951868691012002,36.111111111111114,0.9999999999723078,0.9671232876712076,0.0,0.9960468530881739,0
356,370.09444444444443,0.9805555555555543,1.0666666666666629,1.0138888888889142,0.9671232876712076,0.02559358882669047,1.0481571464563488,36.111111111111114,0.9999999999723078,1.052054794520518,0.0,0.9970256322904545,0
357,371.1611111111111,1.0666666666666629,1.13611111111112,1.0138888888889142,1.052054794520518,0.019435619529948746,0.7959643191922228,36.111111111111114,0.9999999999723078,1.1205479452054603,0.0,0.9921551944222929,0
358,372.2972222222222,1.13611111111112,1.0194444444444457,1.0138888888889142,1.1205479452054603,0.025890419381150286,1.0603135137814033,38.888888888888886,1.0769230768932543,1.0054794520547707,0.0,0.998862708754322,0
359,373.31666666666666,1.0194444444444457,0.9638888888889028,1.0138888888889142,1.0054794520547707,0.02425410376773417,0.9933000161561079,36.111111111111114,0.9999999999723078,0.9506849315068393,0.0,0.9980895879706025,0
360,374.28055555555557,0.9638888888889028,1.0583333333333371,1.0138888888889142,0.9506849315068393,0.02056679398435562,0.8422903188909819,36.111111111111114,0.9999999999723078,1.043835616438334,0.0,0.9933369299218492,0
361,375.3388888888889,1.0583333333333371,1.1111111111110858,1.0138888888889142,1.043835616438334,0.024197189024274805,0.9909691357352484,36.111111111111114,0.9999999999723078,1.0958904109588519,0.0,0.99771907525798,0
362,376.45,1.1111111111110858,0.8888888888889142,1.0138888888889142,1.0958904109588519,0.025318057701083033,1.0368730737015572,38.888888888888886,1.0769230768932543,0.8767123287671263,0.0,0.9980767436471958,0
363,377.3388888888889,0.8888888888889142,0.9611111111111086,1.0138888888889142,0.8767123287671263,0.024743198800273692,1.0133303627059431,38.888888888888886,1.0769230768932543,0.947945205479426,0.0,0.9998353122963621,0
364,378.3,0.9611111111111086,1.10277777777776,1.0138888888889142,0.947945205479426,0.020304380312904977,0.8315434569748444,36.111111111111114,0.9999999999723078,1.0876712328766678,0.0,0.9940415557135697,0
365,379.40277777777777,1.10277777777776,1.13611111111112,1.0138888888889142,1.0876712328766678,0.02383420978803746,0.9761037222501072,36.111111111111114,0.9999999999723078,1.1205479452054603,0.0,0.9981516381741904,0
366,380.5388888888889,1.13611111111112,1.0388888888888914,1.0138888888889142,1.1205479452054603,0.025423995314732713,1.041211631594995,36.111111111111114,0.9999999999723078,1.0246575342465523,0.0,0.9975484486417645,0
367,381.5777777777778,1.0388888888888914,1.0666666666666629,1.0138888888889142,1.0246575342465523,0.0238565695154745,0.9770194401771496,36.111111111111114,0.9999999999723078,1.052054794520518,0.0,0.9975946378527565,0
368,382.64444444444445,1.0666666666666629,1.0888888888889028,1.0138888888889142,1.052054794520518,0.026017971182617852,1.0655372568506905,38.888888888888886,1.0769230768932543,1.073972602739713,0.0,0.9984663019827501,0
369,383.73333333333335,1.0888888888889028,1.0833333333333144,1.0138888888889142,1.073972602739713,0.02688651114014125,1.1011073509717486,38.888888888888886,1.0769230768932543,1.0684931506848863,0.0,0.9975218096640626,0
370,384.81666666666666,1.0833333333333144,1.0055555555555316,1.0138888888889142,1.0684931506848863,0.02406969822061661,0.9857478907638341,36.111111111111114,0.9999999999723078,0.9917808219177598,0.0,0.9970849203931729,0
371,385.8222222222222,1.0055555555555316,1.0500000000000114,1.0138888888889142,0.9917808219177598,0.018450257008670083,0.7556098860753089,33.333333333333336,0.923076923051361,1.0356164383561497,0.0,0.98849067089874,0
372,386.8722222222222,1.0500000000000114,1.0749999999999886,1.0138888888889142,1.0356164383561497,0.024538459851580714,1.0049455053229601,38.888888888888886,1.0769230768932543,1.0602739726027022,0.0,0.9998000709525975,0
373,387.9472222222222,1.0749999999999886,0.9583333333333712,1.0138888888889142,1.0602739726027022,0.019498699024307217,0.7985476701733769,36.111111111111114,0.9999999999723078,0.9452054794520686,0.0,0.9920679502220189,0
374,388.90555555555557,0.9583333333333712,1.0,1.0138888888889142,0.9452054794520686,0.02534857030219276,1.0381226835599753,36.111111111111114,0.9999999999723078,0.9863013698629891,0.0,0.9972713086604784,0
375,389.90555555555557,1.0,1.0472222222222172,1.0138888888889142,0.9863013698629891,0.022736250559081798,0.9311380154029525,38.888888888888886,1.0769230768932543,1.0328767123287363,0.0,0.9915030565417153,0
376,390.9527777777778,1.0472222222222172,1.0833333333333144,1.0138888888889142,1.0328767123287363,0.024973314117684227,1.0227544812258667,38.888888888888886,1.0769230768932543,1.0684931506848863,0.0,0.9997017347453452,0
377,392.0361111111111,1.0833333333333144,1.0749999999999886,1.0138888888889142,1.0684931506848863,0.022591019910904665,0.9251902547038902,33.333333333333336,0.923076923051361,1.0602739726027022,0.0,0.9942206666157068,0
378,393.1111111111111,1.0749999999999886,0.9861111111111427,1.0138888888889142,1.0602739726027022,0.018782033927740138,0.7691974431431121,33.333333333333336,0.923076923051361,0.9726027397260343,0.0,0.9899525939892271,0
379,394.09722222222223,0.9861111111111427,0.4944444444444116,1.0138888888889142,0.9726027397260343,0.02437376155921277,0.9982004687701111,36.111111111111114,0.9999999999723078,0.4876712328766678,0.0,0.9993739184413555,0
380,394.59166666666664,0.4944444444444116,0.9916666666666742,1.0138888888889142,0.4876712328766678,0.027208131043686155,1.114278938693422,36.111111111111114,0.9999999999723078,0.978082191780805,0.0,0.9784766991219831,0
381,395.5833333333333,0.9916666666666742,1.0416666666666856,1.0138888888889142,0.978082191780805,0.02017243206704173,0.8261396623839229,36.111111111111114,0.9999999999723078,1.0273972602739656,0.0,0.993585551969793,0
382,396.625,1.0416666666666856,0.9722222222222285,1.0138888888889142,1.0273972602739656,0.021705627566929925,0.8889299897195961,36.111111111111114,0.9999999999723078,0.9589041095890234,0.0,0.9929247356301029,0
383,397.59722222222223,0.9722222222222285,0.88611111111112,1.0138888888889142,0.9589041095890234,0.025356638132980235,1.0384530926539697,36.111111111111114,0.9999999999723078,0.873972602739713,0.0,0.9971170172188657,0
384,398.48333333333335,0.88611111111112,0.9944444444444116,1.0138888888889142,0.873972602739713,0.01884462934241376,0.7717609691757384,33.333333333333336,0.923076923051361,0.9808219178081623,0.0,0.9906773372818218,0
385,399.47777777777776,0.9944444444444116,1.1055555555555543,1.0138888888889142,0.9808219178081623,0.026093628839025364,1.0686357325582072,36.111111111111114,0.9999999999723078,1.0904109589040811,0.0,0.9979931746916633,0
386,400.5833333333333,1.1055555555555543,1.0583333333333371,1.0138888888889142,1.0904109589040811,0.024148151515520567,0.9889608587564618,36.111111111111114,0.9999999999723078,1.043835616438334,0.0,0.9979814058050143,0
387,401.64166666666665,1.0583333333333371,1.150000000000034,1.0138888888889142,1.043835616438334,0.02079787653069947,0.8517540492029672,36.111111111111114,0.9999999999723078,1.134246575342471,0.0,0.9926561467003241,0
388,402.7916666666667,1.150000000000034,1.1499999999999773,1.0138888888889142,1.134246575342471,0.024602459548337008,1.0075665421763846,38.888888888888886,1.0769230768932543,1.1342465753424151,0.0,0.9984731805156251,0
389,403.94166666666666,1.1499999999999773,1.0833333333333144,1.0138888888889142,1.1342465753424151,0.019904576864241606,0.8151699485649028,36.111111111111114,0.9999999999723078,1.0684931506848863,0.0,0.9922832255877504,0
390,405.025,1.0833333333333144,0.9916666666666742,1.0138888888889142,1.0684931506848863,0.018986921345895757,0.7775883809288612,33.333333333333336,0.923076923051361,0.978082191780805,0.0,0.9922928928306631,0
391,406.01666666666665,0.9916666666666742,1.0055555555555884,1.0138888888889142,0.978082191780805,0.024492673379621323,1.0030703709633266,36.111111111111114,0.9999999999723078,0.9917808219178159,0.0,0.9976268058683408,0
392,407.02222222222224,1.0055555555555884,0.5166666666666515,1.0138888888889142,0.9917808219178159,0.023890739172580472,0.9784188207224147,36.111111111111114,0.9999999999723078,0.5095890410958628,0.0,0.9962955825236468,0
393,407.5388888888889,0.5166666666666515,1.1638888888888914,1.0138888888889142,0.5095890410958628,0.02786624943761121,1.1412314502180092,36.111111111111114,0.9999999999723078,1.147945205479426,0.0,0.9883144738274463,0
394,408.7027777777778,1.1638888888888914,1.0305555555555657,1.0138888888889142,1.147945205479426,0.024973582948062713,1.0227654908769281,36.111111111111114,0.9999999999723078,1.0164383561643682,0.0,0.9984964428882478,0
395,409.73333333333335,1.0305555555555657,1.044444444444423,1.0138888888889142,1.0164383561643682,0.020265614228468454,0.8299558348278521,36.111111111111114,0.9999999999723078,1.030136986301323,0.0,0.9936766571039231,0
396,410.77777777777777,1.044444444444423,1.10277777777776,1.0138888888889142,1.030136986301323,0.019273847860175174,0.7893391392334623,36.111111111111114,0.9999999999723078,1.0876712328766678,0.0,0.9920628027595152,0
397,411.88055555555553,1.10277777777776,1.0083333333333826,1.0138888888889142,1.0876712328766678,0.02530385601071176,1.0362914591669483,38.888888888888886,1.0769230768932543,0.9945205479452293,0.0,0.997861004825812,0
398,412.8888888888889,1.0083333333333826,0.9611111111111086,1.0138888888889142,0.9945205479452293,0.02287124184131086,0.936666434185321,36.111111111111114,0.9999999999723078,0.947945205479426,0.0,0.9899293018367007,0
399,413.85,0.9611111111111086,1.0805555555555202,1.0138888888889142,0.947945205479426,0.024856790295613627,1.0179823768655616,38.888888888888886,1.0769230768932543,1.065753424657473,0.0,0.9996655103206589,0
400,414.93055555555554,1.0805555555555202,1.1416666666666515,1.0138888888889142,1.065753424657473,0.025120317867639436,1.028774857348763,38.888888888888886,1.0769230768932543,1.126027397260231,0.0,0.9985389125723811,0
401,416.0722222222222,1.1416666666666515,1.036111111111154,1.0138888888889142,1.126027397260231,0.024119616845666644,0.9877922528867773,38.888888888888886,1.0769230768932543,1.0219178082191949,0.0,0.9930680395462865,0
402,417.10833333333335,1.036111111111154,0.9694444444444343,1.0138888888889142,1.0219178082191949,0.01783434301061766,0.7303858089428393,30.555555555555557,0.8461538461304142,0.95616438356161,0.0,0.9856545919036617,0
403,418.0777777777778,0.9694444444444343,1.0361111111110972,1.0138888888889142,0.95616438356161,0.024626087691568033,1.0085342066705203,36.111111111111114,0.9999999999723078,1.021917808219139,0.0,0.9989417023929262,0
404,419.1138888888889,1.0361111111110972,1.1527777777777715,1.0138888888889142,1.021917808219139,0.024427334691929228,1.0003944972158698,38.888888888888886,1.0769230768932543,1.1369863013698285,0.0,0.9984913601108971,0
405,420.26666666666665,1.1527777777777715,1.0888888888889028,1.0138888888889142,1.1369863013698285,0.026209966284531334,1.073400204072276,38.888888888888886,1.0769230768932543,1.073972602739713,0.0,0.998463440628621,0
406,421.35555555555555,1.0888888888889028,0.9583333333333144,1.0138888888889142,1.073972602739713,0.024696535885587435,1.0114193346030036,36.111111111111114,0.9999999999723078,0.9452054794520126,0.0,0.9978152873739157,0
407,422.31388888888887,0.9583333333333144,1.0305555555555657,1.0138888888889142,0.9452054794520126,0.02046143203544843,0.8379753367108951,36.111111111111114,0.9999999999723078,1.0164383561643682,0.0,0.9941970401679259,0
408,423.34444444444443,1.0305555555555657,1.01111111111112,1.0138888888889142,1.0164383561643682,0.0236550806125631,0.9687676848274663,36.111111111111114,0.9999999999723078,0.9972602739725867,0.0,0.9965011627188497,0
409,424.35555555555555,1.01111111111112,0.9972222222222058,1.0138888888889142,0.9972602739725867,0.026279445274730057,1.0762456393333684,38.888888888888886,1.0769230768932543,0.9835616438355758,0.0,0.9969851000678994,0
410,425.35277777777776,0.9972222222222058,1.0416666666666856,1.0138888888889142,0.9835616438355758,0.01987908467322152,0.8141259440535593,36.111111111111114,0.9999999999723078,1.0273972602739656,0.0,0.9921808746962479,0
411,426.39444444444445,1.0416666666666856,1.0527777777777487,1.0138888888889142,1.0273972602739656,0.025788351470693388,1.056133435305746,36.111111111111114,0.9999999999723078,1.038356164383507,0.0,0.9989454835944309,0
412,427.4472222222222,1.0527777777777487,1.0500000000000114,1.0138888888889142,1.038356164383507,0.02619170363797515,1.0726522775649505,38.888888888888886,1.0769230768932543,1.0356164383561497,0.0,0.9988847792699326,0
413,428.4972222222222,1.0500000000000114,1.069444444444457,1.0138888888889142,1.0356164383561497,0.024880245476429193,1.018942957875116,38.888888888888886,1.0769230768932543,1.0547945205479314,0.0,0.9996973917643706,0
414,429.56666666666666,1.069444444444457,0.9527777777777828,1.0138888888889142,1.0547945205479314,0.01845113110065676,0.7556456835466483,33.333333333333336,0.923076923051361,0.9397260273972419,0.0,0.9908804037617054,0
415,430.51944444444445,0.9527777777777828,0.9444444444444571,1.0138888888889142,0.9397260273972419,0.02391855690950807,0.9795580653963972,36.111111111111114,0.9999999999723078,0.9315068493150578,0.0,0.9968745586366221,0
416,431.4638888888889,0.9444444444444571,1.1499999999999773,1.0138888888889142,0.9315068493150578,0.02450385309856626,1.0035282239978056,38.888888888888886,1.0769230768932543,1.1342465753424151,0.0,0.9998968425172288,0
417,432.6138888888889,1.1499999999999773,1.1111111111111427,1.0138888888889142,1.1342465753424151,0.021351722066387316,0.8744361810522826,36.111111111111114,0.9999999999723078,1.095890410958908,0.0,0.9933126530517324,0
418,433.725,1.1111111111111427,0.9583333333333144,1.0138888888889142,1.095890410958908,0.02453094245435972,1.0046376386273868,38.888888888888886,1.0769230768932543,0.9452054794520126,0.0,0.9998889038763884,0
419,434.68333333333334,0.9583333333333144,1.0361111111110972,1.0138888888889142,0.9452054794520126,0.020499931367454448,0.8395520343068891,36.111111111111114,0.9999999999723078,1.021917808219139,0.0,0.9942024621532503,0
420,435.71944444444443,1.0361111111110972,1.0527777777778056,1.0138888888889142,1.021917808219139,0.023336327345241194,0.9557134970243341,33.333333333333336,0.923076923051361,1.0383561643835633,0.0,0.9951983818111302,0
421,436.77222222222224,1.0527777777778056,1.0361111111110972,1.0138888888889142,1.0383561643835633,0.024212838082307928,0.9916100256129361,33.333333333333336,0.923076923051361,1.021917808219139,0.0,0.9926445504467657,0
422,437.80833333333334,1.0361111111110972,1.1111111111110858,1.0138888888889142,1.021917808219139,0.025803378261990757,1.0567488409369494,38.888888888888886,1.0769230768932543,1.0958904109588519,0.0,0.9989029307527129,0
423,438.9194444444444,1.1111111111110858,1.1416666666667084,1.0138888888889142,1.0958904109588519,0.01989563412177461,0.8148037084299544,36.111111111111114,0.9999999999723078,1.126027397260287,0.0,0.9923570521980647,0
424,440.06111111111113,1.1416666666667084,1.0666666666666629,1.0138888888889142,1.126027397260287,0.0250107220685707,1.0242864825142148,38.888888888888886,1.0769230768932543,1.052054794520518,0.0,0.9974446712415534,0
425,441.1277777777778,1.0666666666666629,0.8916666666666515,1.0138888888889142,1.052054794520518,0.01940351479458216,0.7946495052348116,36.111111111111114,0.9999999999723078,0.8794520547944836,0.0,0.9901026866272415,0
426,442.01944444444445,0.8916666666666515,1.0055555555555316,1.0138888888889142,0.8794520547944836,0.025086400086776744,1.0273857921166885,36.111111111111114,0.9999999999723078,0.9917808219177598,0.0,0.9968176781282756,0
427,443.025,1.0055555555555316,1.1722222222222172,1.0138888888889142,0.9917808219177598,0.023987552016379487,0.982383683750568,36.111111111111114,0.9999999999723078,1.15616438356161,0.0,0.9964177417859599,0
428,444.1972222222222,1.1722222222222172,1.13611111111112,1.0138888888889142,1.15616438356161,0.024986229482825344,1.0232834157322162,38.888888888888886,1.0769230768932543,1.1205479452054603,0.0,0.9994900079826441,0
429,445.3333333333333,1.13611111111112,0.9916666666666742,1.0138888888889142,1.1205479452054603,0.024701899640739527,1.0116390012676741,38.888888888888886,1.0769230768932543,0.978082191780805,0.0,0.999862270593376,0
430,446.325,0.9916666666666742,1.0666666666666629,1.0138888888889142,0.978082191780805,0.02616202925242802,1.0714369958985712,38.888888888888886,1.0769230768932543,1.052054794520518,0.0,0.9988204948539281,0
431,447.39166666666665,1.0666666666666629,1.036111111111154,1.0138888888889142,1.052054794520518,0.02391214531799202,0.9792954857514239,36.111111111111114,0.9999999999723078,1.0219178082191949,0.0,0.9975464333441105,0
432,448.4277777777778,1.036111111111154,1.0472222222222172,1.0138888888889142,1.0219178082191949,0.018689229875850633,0.765396755757424,33.333333333333336,0.923076923051361,1.0328767123287363,0.0,0.9903354826740929,0
433,449.475,1.0472222222222172,1.0611111111110745,1.0138888888889142,1.0328767123287363,0.021105226450453804,0.8643412255085164,36.111111111111114,0.9999999999723078,1.0465753424656912,0.0,0.9932020219119752,0
434,450.5361111111111,1.0611111111110745,1.0944444444444343,1.0138888888889142,1.0465753424656912,0.0267328553576255,1.0948145482066174,36.111111111111114,0.9999999999723078,1.0794520547944837,0.0,0.9971596022156481,0
435,451.63055555555553,1.0944444444444343,1.0583333333333371,1.0138888888889142,1.0794520547944837,0.018936851221140753,0.775537814302926,33.333333333333336,0.923076923051361,1.043835616438334,0.0,0.9915243194815051,0
436,452.68888888888887,1.0583333333333371,1.0277777777777715,1.0138888888889142,1.043835616438334,0.02575479304899546,1.0547590872311299,36.111111111111114,0.9999999999723078,1.0136986301369548,0.0,0.999390752289079,0
437,453.71666666666664,1.0277777777777715,0.9472222222222513,1.0138888888889142,1.0136986301369548,0.023980905643901044,0.9821114889107404,36.111111111111114,0.9999999999723078,0.9342465753424711,0.0,0.9953705559473276,0
438,454.6638888888889,0.9472222222222513,0.98888888888888,1.0138888888889142,0.9342465753424711,0.023781697066047942,0.9739531217537912,36.111111111111114,0.9999999999723078,0.9753424657533917,0.0,0.9959592304234645,0
439,455.65277777777777,0.98888888888888,1.1333333333333258,1.0138888888889142,0.9753424657533917,0.021063452718882596,0.8626304284969286,36.111111111111114,0.9999999999723078,1.117808219178047,0.0,0.9930226705171101,0
440,456.7861111111111,1.1333333333333258,1.091666666666697,1.0138888888889142,1.117808219178047,0.024022669846813435,0.9838218956866368,36.111111111111114,0.9999999999723078,1.0767123287671263,0.0,0.9966694799628177,0
441,457.8777777777778,1.091666666666697,0.9694444444444343,1.0138888888889142,1.0767123287671263,0.018876219225913662,0.7730546979439218,33.333333333333336,0.923076923051361,0.95616438356161,0.0,0.9898956867156072,0
442,458.84722222222223,0.9694444444444343,1.0,1.0138888888889142,0.95616438356161,0.02420809463040948,0.9914157627825102,36.111111111111114,0.9999999999723078,0.9863013698629891,0.0,0.9969615455256814,0
443,459.84722222222223,1.0,1.0583333333333371,1.0138888888889142,0.9863013698629891,0.018600368420473416,0.7617575330548615,33.333333333333336,0.923076923051361,1.043835616438334,0.0,0.9908396359564802,0
444,460.90555555555557,1.0583333333333371,1.1388888888888573,1.0138888888889142,1.043835616438334,0.024266682640112638,0.9938151699732273,36.111111111111114,0.9999999999723078,1.1232876712328175,0.0,0.9980188126207349,0
445,462.0444444444444,1.1388888888888573,1.0055555555555884,1.0138888888889142,1.1232876712328175,0.02485470648034893,1.0178970365142581,38.888888888888886,1.0769230768932543,0.9917808219178159,0.0,0.9992123858284083,0
446,463.05,1.0055555555555884,1.0083333333333258,1.0138888888889142,0.9917808219178159,0.0191032811150097,0.7823537666816244,36.111111111111114,0.9999999999723078,0.9945205479451732,0.0,0.9905840953845967,0
447,464.05833333333334,1.0083333333333258,1.0638888888888687,1.0138888888889142,0.9945205479451732,0.01823549250422471,0.7468144431359107,33.333333333333336,0.923076923051361,1.0493150684931045,0.0,0.9857865529270338,0
448,465.1222222222222,1.0638888888888687,1.0444444444444798,1.0138888888889142,1.0493150684931045,0.01943464608691175,0.7959244529084122,36.111111111111114,0.9999999999723078,1.0301369863013792,0.0,0.9918816420147788,0
449,466.1666666666667,1.0444444444444798,0.8972222222221831,1.0138888888889142,1.0301369863013792,0.024428629913980423,1.000447541603603,36.111111111111114,0.9999999999723078,0.8849315068492544,0.0,0.9968280605580389,0
450,467.06388888888887,0.8972222222221831,1.0861111111111086,1.0138888888889142,0.8849315068492544,0.020196895192993364,0.8271415226726264,36.111111111111114,0.9999999999723078,1.0712328767122996,0.0,0.9924867305883286,0
451,468.15,1.0861111111111086,1.13611111111112,1.0138888888889142,1.0712328767122996,0.02660343363494597,1.0895142245805782,38.888888888888886,1.0769230768932543,1.1205479452054603,0.0,0.9978575712462843,0
452,469.2861111111111,1.13611111111112,1.0333333333333599,1.0138888888889142,1.1205479452054603,0.02423401194780287,0.9924771778746574,38.888888888888886,1.0769230768932543,1.0191780821917815,0.0,0.9974074980196243,0
453,470.31944444444446,1.0333333333333599,0.9777777777777601,1.0138888888889142,1.0191780821917815,0.01934993512328768,0.7924552090088159,36.111111111111114,0.9999999999723078,0.9643835616437941,0.0,0.9916953221660421,0
454,471.2972222222222,0.9777777777777601,1.0138888888889142,1.0138888888889142,0.9643835616437941,0.024333923427289985,0.996568942103058,36.111111111111114,0.9999999999723078,1.0,0.0,0.9982904853812874,0
455,472.31111111111113,1.0138888888889142,0.9694444444444343,1.0138888888889142,1.0,0.020627552654124585,0.8447786230658583,36.111111111111114,0.9999999999723078,0.95616438356161,0.0,0.9940371217470723,0
456,473.28055555555557,0.9694444444444343,1.0500000000000114,1.0138888888889142,0.95616438356161,0.026302669479799198,1.0771967609864832,38.888888888888886,1.0769230768932543,1.0356164383561497,0.0,0.9975765757017947,0
457,474.3305555555556,1.0500000000000114,0.9972222222222058,1.0138888888889142,1.0356164383561497,0.019469775681967685,0.7973631466515734,36.111111111111114,0.9999999999723078,0.9835616438355758,0.0,0.9918816438600502,0
458,475.3277777777778,0.9972222222222058,0.9944444444444116,1.0138888888889142,0.9835616438355758,0.025023600009292202,1.0248138843448173,38.888888888888886,1.0769230768932543,0.9808219178081623,0.0,0.9990001432546478,0
459,476.3222222222222,0.9944444444444116,1.0305555555555657,1.0138888888889142,0.9808219178081623,0.024080346824149595,0.9861839925535619,36.111111111111114,0.9999999999723078,1.0164383561643682,0.0,0.9975726783316013,0
460,477.35277777777776,1.0305555555555657,1.0500000000000114,1.0138888888889142,1.0164383561643682,0.02391280527442559,0.9793225135378307,36.111111111111114,0.9999999999723078,1.0356164383561497,0.0,0.9968944369253541,0
461,478.40277777777777,1.0500000000000114,0.966666666666697,1.0138888888889142,1.0356164383561497,0.02388772337959322,0.9782953122534296,36.111111111111114,0.9999999999723078,0.9534246575342528,0.0,0.996840017375497,0
462,479.36944444444447,0.966666666666697,1.0666666666666629,1.0138888888889142,0.9534246575342528,0.025316990298614544,1.0368293594130662,38.888888888888886,1.0769230768932543,1.052054794520518,0.0,0.9992933399808381,0
463,480.43611111111113,1.0666666666666629,1.0499999999999545,1.0138888888889142,1.052054794520518,0.02433003036472414,0.9964095060279681,36.111111111111114,0.9999999999723078,1.0356164383560937,0.0,0.9990342588159173,0
464,481.4861111111111,1.0499999999999545,1.0444444444444798,1.0138888888889142,1.0356164383560937,0.02578711338421418,1.0560827308422223,36.111111111111114,0.9999999999723078,1.0301369863013792,0.0,0.9985813189400156,0
465,482.53055555555557,1.0444444444444798,0.9138888888888914,1.0138888888889142,1.0301369863013792,0.01927974112115276,0.7895804912240495,36.111111111111114,0.9999999999723078,0.9013698630136786,0.0,0.9912735476922001,0
466,483.44444444444446,0.9138888888888914,0.9583333333333144,1.0138888888889142,0.9013698630136786,0.02397244439954082,0.9817649679986425,36.111111111111114,0.9999999999723078,0.9452054794520126,0.0,0.9962693061588512,0
467,484.40277777777777,0.9583333333333144,0.9972222222222058,1.0138888888889142,0.9452054794520126,0.025836284593758505,1.0580964833891116,36.111111111111114,0.9999999999723078,0.9835616438355758,0.0,0.9980159563851948,0
468,485.4,0.9972222222222058,1.1055555555555543,1.0138888888889142,0.9835616438355758,0.026054835348102684,1.0670469880088616,38.888888888888886,1.0769230768932543,1.0904109589040811,0.0,0.9981402985211868,0
469,486.50555555555553,1.1055555555555543,1.0194444444444457,1.0138888888889142,1.0904109589040811,0.025880647788808858,1.0599133290158245,38.888888888888886,1.0769230768932543,1.0054794520547707,0.0,0.9971224631391298,0
470,487.525,1.0194444444444457,1.0138888888889142,1.0138888888889142,1.0054794520547707,0.02086133474564554,0.8543529102672553,36.111111111111114,0.9999999999723078,1.0,0.0,0.9929194436752924,0
471,488.5388888888889,1.0138888888889142,1.0833333333333144,1.0138888888889142,1.0,0.024641693390202602,1.0091733208119575,38.888888888888886,1.0769230768932543,1.0684931506848863,0.0,0.9998256784750605,0
472,489.6222222222222,1.0833333333333144,1.0055555555555884,1.0138888888889142,1.0684931506848863,0.02416232692016447,0.9895413967881552,36.111111111111114,0.9999999999723078,0.9917808219178159,0.0,0.9956322811884756,0
473,490.6277777777778,1.0055555555555884,0.8666666666666742,1.0138888888889142,0.9917808219178159,0.01831859553215813,0.7502178358062555,33.333333333333336,0.923076923051361,0.8547945205479314,0.0,0.9881499157246703,0
474,491.49444444444447,0.8666666666666742,1.044444444444423,1.0138888888889142,0.8547945205479314,0.019194989003721335,0.7861095619157527,36.111111111111114,0.9999999999723078,1.030136986301323,0.0,0.9918956064553033,0
475,492.5388888888889,1.044444444444423,1.1111111111110858,1.0138888888889142,1.030136986301323,0.02076401788602922,0.8503674058283015,36.111111111111114,0.9999999999723078,1.0958904109588519,0.0,0.9945447299097216,0
476,493.65,1.1111111111110858,1.0750000000000455,1.0138888888889142,1.0958904109588519,0.026529259356288405,1.0864764989695028,38.888888888888886,1.0769230768932543,1.0602739726027581,0.0,0.9978944411468467,0
477,494.725,1.0750000000000455,0.9472222222221944,1.0138888888889142,1.0602739726027581,0.026320150402093293,1.0779126728405526,38.888888888888886,1.0769230768932543,0.9342465753424151,0.0,0.9978356232750478,0
478,495.6722222222222,0.9472222222221944,0.9944444444444684,1.0138888888889142,0.9342465753424151,0.026096219497087608,1.0687418300961629,38.888888888888886,1.0769230768932543,0.9808219178082184,0.0,0.9991001358714509,0
479,496.6666666666667,0.9944444444444684,1.0583333333333371,1.0138888888889142,0.9808219178082184,0.02622169243728173,1.0738804356993836,38.888888888888886,1.0769230768932543,1.043835616438334,0.0,0.9985020659656421,0
480,497.725,1.0583333333333371,1.1055555555555543,1.0138888888889142,1.043835616438334,0.025806964778419494,1.0568957227537636,36.111111111111114,0.9999999999723078,1.0904109589040811,0.0,0.9982924944397475,0
481,498.8305555555556,1.1055555555555543,1.0027777777777374,1.0138888888889142,1.0904109589040811,0.0194833608358695,0.7979195116164214,36.111111111111114,0.9999999999723078,0.9890410958903465,0.0,0.9911243024822676,0
482,499.8333333333333,1.0027777777777374,1.0166666666667084,1.0138888888889142,0.9890410958903465,0.025784783711658158,1.0559873216772537,36.111111111111114,0.9999999999723078,1.0027397260274133,0.0,0.99741868384464,0
483,500.85,1.0166666666667084,1.011111111111063,1.0138888888889142,1.0027397260274133,0.02460447980540721,1.007649279572072,38.888888888888886,1.0769230768932543,0.9972602739725306,0.0,0.9999311867986077,0
484,501.8611111111111,1.011111111111063,0.9722222222222285,1.0138888888889142,0.9972602739725306,0.02572722871719932,1.0536302204842638,36.111111111111114,0.9999999999723078,0.9589041095890234,0.0,0.9987381703782505,0
485,502.8333333333333,0.9722222222222285,0.9805555555555543,1.0138888888889142,0.9589041095890234,0.02484449827850723,1.0174789708891008,38.888888888888886,1.0769230768932543,0.9671232876712076,0.0,0.9930315961433998,0
486,503.81388888888887,0.9805555555555543,1.0138888888889142,1.0138888888889142,0.9671232876712076,0.024835327703602448,1.0171034001284447,36.111111111111114,0.9999999999723078,1.0,0.0,0.9995331827248635,0
487,504.8277777777778,1.0138888888889142,1.0416666666666856,1.0138888888889142,1.0,0.02418956984995277,0.9906571008709775,36.111111111111114,0.9999999999723078,1.0273972602739656,0.0,0.9966373980834909,0
488,505.86944444444447,1.0416666666666856,1.0194444444444457,1.0138888888889142,1.0273972602739656,0.02551040565652196,1.0447504716493328,36.111111111111114,0.9999999999723078,1.0054794520547707,0.0,0.9974116086679226,0
489,506.8888888888889,1.0194444444444457,1.0,1.0138888888889142,1.0054794520547707,0.02379081384810998,0.9743264894880201,36.111111111111114,0.9999999999723078,0.9863013698629891,0.0,0.9973209078928272,0
490,507.8888888888889,1.0,0.5055555555555316,1.0138888888889142,0.9863013698629891,0.020460797376079407,0.8379493449378103,36.111111111111114,0.9999999999723078,0.4986301369862653,0.0,0.9932465126650145,0
491,508.39444444444445,0.5055555555555316,1.0166666666666515,1.0138888888889142,0.4986301369862653,0.0221933284319609,0.9089032396798388,36.111111111111114,0.9999999999723078,1.0027397260273574,0.0,0.9804848248028073,0
492,509.4111111111111,1.0166666666666515,1.14722222222224,1.0138888888889142,1.0027397260273574,0.020364976909486694,0.8340251236214471,36.111111111111114,0.9999999999723078,1.1315068493150577,0.0,0.9942591669696326,0
493,510.55833333333334,1.14722222222224,1.0916666666666401,1.0138888888889142,1.1315068493150577,0.026060463930379217,1.0672775003757482,38.888888888888886,1.0769230768932543,1.0767123287670703,0.0,0.9968549687098767,0
494,511.65,1.0916666666666401,0.9833333333333485,1.0138888888889142,1.0767123287670703,0.02039529382356395,0.8352667193337078,36.111111111111114,0.9999999999723078,0.9698630136986209,0.0,0.9938599269312113,0
495,512.6333333333333,0.9833333333333485,1.0194444444445026,1.0138888888889142,0.9698630136986209,0.02442542687778819,1.0003163647960835,36.111111111111114,0.9999999999723078,1.0054794520548267,0.0,0.9978960436653668,0
496,513.6527777777778,1.0194444444445026,1.0499999999999545,1.0138888888889142,1.0054794520548267,0.024454370560468414,1.0015017213340618,36.111111111111114,0.9999999999723078,1.0356164383560937,0.0,0.9977973878208399,0
497,514.7027777777778,1.0499999999999545,0.9722222222221717,1.0138888888889142,1.0356164383560937,0.024080776369497587,0.9862015841085906,36.111111111111114,0.9999999999723078,0.9589041095889673,0.0,0.9963353663668217,0
498,515.675,0.9722222222221717,0.9361111111111313,1.0138888888889142,0.9589041095889673,0.025940281557335493,1.06235556410347,38.888888888888886,1.0769230768932543,0.9232876712328736,0.0,0.999435217537352,0
499,516.6111111111111,0.9361111111111313,0.9722222222222854,1.0138888888889142,0.9232876712328736,0.024101354454134704,0.9870443368236879,36.111111111111114,0.9999999999723078,0.9589041095890795,0.0,0.9966898082216373,0
500,517.5833333333334,0.9722222222222854,1.0749999999999318,1.0138888888889142,0.9589041095890795,0.024865177853178266,1.0183258800163788,38.888888888888886,1.0769230768932543,1.060273972602646,0.0,0.9992353283475924,0
501,518.6583333333333,1.0749999999999318,0.9500000000000455,1.0138888888889142,1.060273972602646,0.023682787882074337,0.9699024054304913,36.111111111111114,0.9999999999723078,0.9369863013698845,0.0,0.9957870578072043,0
502,519.6083333333333,0.9500000000000455,0.9527777777777828,1.0138888888889142,0.9369863013698845,0.024763879482011836,1.014177317171931,36.111111111111114,0.9999999999723078,0.9397260273972419,0.0,0.9979317038045565,0
503,520.5611111111111,0.9527777777777828,1.0305555555555657,1.0138888888889142,0.9397260273972419,0.019252152201058186,0.7884506174905938,36.111111111111114,0.9999999999723078,1.0164383561643682,0.0,0.9925433773726546,0
504,521.5916666666667,1.0305555555555657,1.2027777777777828,1.0138888888889142,1.0164383561643682,0.02723135289927845,1.1152299641263093,38.888888888888886,1.0769230768932543,1.1863013698629892,0.0,0.997143116680481,0
505,522.7944444444445,1.2027777777777828,1.0166666666666515,1.0138888888889142,1.1863013698629892,0.020063439098123012,0.8216759757919702,36.111111111111114,0.9999999999723078,1.0027397260273574,0.0,0.9921113275703359,0
506,523.8111111111111,1.0166666666666515,1.0027777777777374,1.0138888888889142,1.0027397260273574,0.023759363563769016,0.9730384778491176,33.333333333333336,0.923076923051361,0.9890410958903465,0.0,0.9948954450003016,0
507,524.8138888888889,1.0027777777777374,1.069444444444457,1.0138888888889142,0.9890410958903465,0.02578448410493461,1.0559750516149917,36.111111111111114,0.9999999999723078,1.0547945205479314,0.0,0.9981995233753966,0
508,525.8833333333333,1.069444444444457,1.0166666666666515,1.0138888888889142,1.0547945205479314,0.025532948448656164,1.045673686788739,36.111111111111114,0.9999999999723078,1.0027397260273574,0.0,0.9974105605561814,0
509,526.9,1.0166666666666515,1.0166666666666515,1.0138888888889142,1.0027397260273574,0.024101793796152175,0.9870623295904886,36.111111111111114,0.9999999999723078,1.0027397260273574,0.0,0.9948418380153803,0
510,527.9166666666666,1.0166666666666515,1.0277777777778283,1.0138888888889142,1.0027397260273574,0.02538667106266588,1.0396830580993082,38.888888888888886,1.0769230768932543,1.0136986301370108,0.0,0.9992052467776772,0
511,528.9444444444445,1.0277777777778283,1.066666666666606,1.0138888888889142,1.0136986301370108,0.026314966606578418,1.0777003762239477,36.111111111111114,0.9999999999723078,1.052054794520462,0.0,0.998692718374563,0
512,530.0111111111111,1.066666666666606,1.0305555555555657,1.0138888888889142,1.052054794520462,0.023376977232307607,0.9573782682262091,33.333333333333336,0.923076923051361,1.0164383561643682,0.0,0.9929055323513736,0
513,531.0416666666666,1.0305555555555657,0.9222222222222172,1.0138888888889142,1.0164383561643682,0.02534798583193013,1.038098747226278,36.111111111111114,0.9999999999723078,0.9095890410958628,0.0,0.9972940032513907,0
514,531.9638888888888,0.9222222222222172,0.9444444444444571,1.0138888888889142,0.9095890410958628,0.02580570093355157,1.056843963383896,36.111111111111114,0.9999999999723078,0.9315068493150578,0.0,0.9981147390485086,0
515,532.9083333333333,0.9444444444444571,1.0805555555556339,1.0138888888889142,0.9315068493150578,0.02391641086338273,0.9794701764489685,36.111111111111114,0.9999999999723078,1.0657534246575848,0.0,0.9954921671969341,0
516,533.9888888888889,1.0805555555556339,1.1055555555554974,1.0138888888889142,1.0657534246575848,0.024977318605350775,1.022918480592818,38.888888888888886,1.0769230768932543,1.0904109589040252,0.0,0.9989010102355551,0
517,535.0944444444444,1.1055555555554974,0.9416666666667197,1.0138888888889142,1.0904109589040252,0.02016065277992736,0.8256572546976584,36.111111111111114,0.9999999999723078,0.9287671232877004,0.0,0.9937425213825379,0
518,536.0361111111112,0.9416666666667197,0.9861111111110858,1.0138888888889142,0.9287671232877004,0.02300231446396437,0.9420343685953552,33.333333333333336,0.923076923051361,0.9726027397259782,0.0,0.9949835974334736,0
519,537.0222222222222,0.9861111111110858,0.9944444444444116,1.0138888888889142,0.9726027397259782,0.025383686484586887,1.0395608280023947,36.111111111111114,0.9999999999723078,0.9808219178081623,0.0,0.9975841854666088,0
520,538.0166666666667,0.9944444444444116,0.9944444444444116,1.0138888888889142,0.9808219178081623,0.025478150701599304,1.0434295056160128,36.111111111111114,0.9999999999723078,0.9808219178081623,0.0,0.9972009654647499,0
521,539.0111111111111,0.9944444444444116,1.0527777777778056,1.0138888888889142,0.9808219178081623,0.02569313240988669,1.0522338438987249,36.111111111111114,0.9999999999723078,1.0383561643835633,0.0,0.9995431353538278,0
522,540.0638888888889,1.0527777777778056,1.0305555555555657,1.0138888888889142,1.0383561643835633,0.0245514785550305,1.00547867193554,36.111111111111114,0.9999999999723078,1.0164383561643682,0.0,0.9987108461085409,0
523,541.0944444444444,1.0305555555555657,1.0666666666667197,1.0138888888889142,1.0164383561643682,0.02613308423318376,1.0702515846230902,38.888888888888886,1.0769230768932543,1.052054794520574,0.0,0.9993676243148288,0
524,542.1611111111112,1.0666666666667197,1.0638888888888687,1.0138888888889142,1.052054794520574,0.024919678459179723,1.020557892105557,38.888888888888886,1.0769230768932543,1.0493150684931045,0.0,0.9994501652817351,0
525,543.225,1.0638888888888687,1.0083333333333258,1.0138888888889142,1.0493150684931045,0.024193523352933042,0.9908190122164465,36.111111111111114,0.9999999999723078,0.9945205479451732,0.0,0.9970592992353036,0
526,544.2333333333333,1.0083333333333258,0.9722222222221717,1.0138888888889142,0.9945205479451732,0.02388949433933413,0.9783678399524987,36.111111111111114,0.9999999999723078,0.9589041095889673,0.0,0.9963388892416868,0
527,545.2055555555555,0.9722222222221717,1.183333333333394,1.0138888888889142,0.9589041095889673,0.024389534011451806,0.9988464121211368,38.888888888888886,1.0769230768932543,1.1671232876712636,0.0,0.9982004078062985,0
528,546.3888888888889,1.183333333333394,1.1055555555554974,1.0138888888889142,1.1671232876712636,0.026594167153848942,1.0891347260878064,41.666666666666664,1.153846153814201,1.0904109589040252,0.0,0.9946830817656398,0
529,547.4944444444444,1.1055555555554974,0.9083333333334167,1.0138888888889142,1.0904109589040252,0.025722542087588483,1.0534382847478316,38.888888888888886,1.0769230768932543,0.895890410958964,0.0,0.9990263348282598,0
530,548.4027777777778,0.9083333333334167,1.0277777777777146,1.0138888888889142,0.895890410958964,0.019202141454856887,0.7864024826477053,36.111111111111114,0.9999999999723078,1.0136986301368986,0.0,0.9913958534970091,0
531,549.4305555555555,1.0277777777777146,1.0722222222221944,1.0138888888889142,1.0136986301368986,0.02323860122378956,0.9517112317191977,36.111111111111114,0.9999999999723078,1.0575342465752886,0.0,0.9953077864057217,0
532,550.5027777777777,1.0722222222221944,1.0138888888889142,1.0138888888889142,1.0575342465752886,0.01899553725936163,0.7779412361432532,36.111111111111114,0.9999999999723078,1.0,0.0,0.991261243446804,0
533,551.5166666666667,1.0138888888889142,1.091666666666697,1.0138888888889142,1.0,0.025333849071602146,1.0375197918298367,38.888888888888886,1.0769230768932543,1.0767123287671263,0.0,0.9992416529924253,0
534,552.6083333333333,1.091666666666697,1.125,1.0138888888889142,1.0767123287671263,0.020814361628865297,0.8524291781803666,36.111111111111114,0.9999999999723078,1.1095890410958629,0.0,0.9935391747794504,0
535,553.7333333333333,1.125,1.0416666666666288,1.0138888888889142,1.1095890410958629,0.025218452040002462,1.0327938339280311,38.888888888888886,1.0769230768932543,1.0273972602739097,0.0,0.9989529014056071,0
536,554.775,1.0416666666666288,0.9250000000000682,1.0138888888889142,1.0273972602739097,0.025245485675243224,1.0339009665839543,36.111111111111114,0.9999999999723078,0.9123287671233322,0.0,0.9977025726875475,0
537,555.7,0.9250000000000682,0.8999999999999773,1.0138888888889142,0.9123287671233322,0.023886496916648035,0.978245083818896,36.111111111111114,0.9999999999723078,0.8876712328766678,0.0,0.9965431272427153,0
538,556.6,0.8999999999999773,0.9194444444443661,1.0138888888889142,0.8876712328766678,0.024077987531008746,0.9860873703102763,36.111111111111114,0.9999999999723078,0.9068493150683933,0.0,0.9961742199764675,0
539,557.5194444444444,0.9194444444443661,1.1694444444444798,1.0138888888889142,0.9068493150683933,0.021548792257297857,0.8825069729351696,36.111111111111114,0.9999999999723078,1.1534246575342528,0.0,0.99359351359691,0
540,558.6888888888889,1.1694444444444798,1.0444444444444798,1.0138888888889142,1.1534246575342528,0.02492411533439881,1.020739599426883,38.888888888888886,1.0769230768932543,1.0301369863013792,0.0,0.9991242860139073,0
541,559.7333333333333,1.0444444444444798,1.0972222222221717,1.0138888888889142,1.0301369863013792,0.024271962241577755,0.9940313902166474,36.111111111111114,0.9999999999723078,1.082191780821841,0.0,0.9970819722351623,0
542,560.8305555555555,1.0972222222221717,1.0861111111111086,1.0138888888889142,1.082191780821841,0.02588294192391305,1.0600072827837261,38.888888888888886,1.0769230768932543,1.0712328767122996,0.0,0.9994222108274429,0
543,561.9166666666666,1.0861111111111086,1.0,1.0138888888889142,1.0712328767122996,0.023701361916486433,0.9706630844833353,36.111111111111114,0.9999999999723078,0.9863013698629891,0.0,0.9966024632648559,0
544,562.9166666666666,1.0,0.9861111111111995,1.0138888888889142,0.9863013698629891,0.023983280157848615,0.9822087345053446,36.111111111111114,0.9999999999723078,0.9726027397260903,0.0,0.9974218822623472,0
545,563.9027777777778,0.9861111111111995,1.0861111111111086,1.0138888888889142,0.9726027397260903,0.026561340423618372,1.0877903436286303,36.111111111111114,0.9999999999723078,1.0712328767122996,0.0,0.9976999164445195,0
546,564.9888888888889,1.0861111111111086,1.0611111111110176,1.0138888888889142,1.0712328767122996,0.020132706777215268,0.8245127570402209,36.111111111111114,0.9999999999723078,1.0465753424656352,0.0,0.9945272700012437,0
547,566.05,1.0611111111110176,1.058333333333394,1.0138888888889142,1.0465753424656352,0.02496545309015949,1.0224325415309556,36.111111111111114,0.9999999999723078,1.04383561643839,0.0,0.9968050833268345,0
548,567.1083333333333,1.058333333333394,1.0083333333333258,1.0138888888889142,1.04383561643839,0.024545465303261703,1.0052324058547029,36.111111111111114,0.9999999999723078,0.9945205479451732,0.0,0.9987913604694758,0
549,568.1166666666667,1.0083333333333258,0.9611111111111086,1.0138888888889142,0.9945205479451732,0.019131822736119145,0.7835226572322967,36.111111111111114,0.9999999999723078,0.947945205479426,0.0,0.991781966203898,0
550,569.0777777777778,0.9611111111111086,1.113888888888937,1.0138888888889142,0.947945205479426,0.02541444892292281,1.040820669668312,38.888888888888886,1.0769230768932543,1.0986301369863214,0.0,0.9977514588630298,0
551,570.1916666666667,1.113888888888937,1.10277777777776,1.0138888888889142,1.0986301369863214,0.026324243971237154,1.0780803204409617,41.666666666666664,1.153846153814201,1.0876712328766678,0.0,0.9957967308764478,0
552,571.2944444444445,1.10277777777776,0.974999999999909,1.0138888888889142,1.0876712328766678,0.024420594826091758,1.0001184734588446,38.888888888888886,1.0769230768932543,0.9616438356163247,0.0,0.9988804698574405,0
