beat_index,peak_time_s,rr_prev_s,rr_next_s,rr_baseline_s,prematurity_index,aa_ratio,morph_index,qrs_width_ms,width_index,pause_index,pvc_score,morphology_score,is_pvc_candidate
0,0.8888888888888888,,1.161111111111111,0.9444444444444571,,0.026558036487675168,1.0686982476958269,61.111111111111114,1.6923076922608284,1.2294117647058658,0.00391912879422307,0.8262551316653566,0
1,2.05,1.161111111111111,1.1583333333333337,0.9444444444444571,1.2294117647058658,0.023385361119209015,0.9410294492753946,33.333333333333336,0.923076923051361,1.226470588235278,1.630928736246623e-14,0.8688503978640643,0
2,3.2083333333333335,1.1583333333333337,1.1361111111111106,0.9444444444444571,1.226470588235278,0.027189468233181267,1.0941071291195363,33.333333333333336,0.923076923051361,1.2029411764705715,6.694141768681661e-13,0.8479410881655154,0
3,4.344444444444444,1.1361111111111106,1.1472222222222221,0.9444444444444571,1.2029411764705715,0.02379231082622079,0.95740514930072,30.555555555555557,0.8461538461304142,1.2147058823529249,8.12569887135954e-15,0.8814220665224556,0
4,5.491666666666666,1.1472222222222221,1.0888888888888895,0.9444444444444571,1.2147058823529249,0.02848648594105281,1.146299261330667,36.111111111111114,0.9999999999723078,1.1529411764705735,2.1688605772451908e-12,0.8600952422429664,0
5,6.580555555555556,1.0888888888888895,1.0666666666666664,1.1472222222222221,0.9491525423728819,0.027060068643195656,1.0889000756864124,33.333333333333336,0.923076923051361,0.929782082324455,1.0174031755960655e-12,0.852943429965038,0
6,7.647222222222222,1.0666666666666664,1.1805555555555554,1.1416666666666664,0.9343065693430657,0.02987219858843466,1.2020604874572363,36.111111111111114,0.9999999999723078,1.0340632603406328,5.526071267247801e-10,0.7614373934923151,0
7,8.827777777777778,1.1805555555555554,1.0805555555555557,1.1472222222222221,1.029055690072639,0.02944895090086405,1.185028954939464,38.888888888888886,1.0769230768932543,0.9418886198547217,2.994554907861935e-12,0.8059438260058336,0
8,9.908333333333333,1.0805555555555557,1.0916666666666668,1.1416666666666664,0.9464720194647206,0.02432529642633706,0.978852547234513,69.44444444444444,1.9230769230236686,0.9562043795620442,1.1309754244237524e-09,0.9153718258505276,0
9,11.0,1.0916666666666668,1.083333333333334,1.1361111111111106,0.9608801955990225,0.028455615156084968,1.1450570176197874,69.44444444444444,1.9230769230236686,0.9535452322738396,7.125435658172918e-11,0.9466736546328338,0
10,12.083333333333334,1.083333333333334,1.0805555555555557,1.1138888888888887,0.9725685785536167,0.02823027440552376,1.1359892815553767,69.44444444444444,1.9230769230236686,0.9700748129675814,9.582195741085833e-15,0.9754758702136852,0
11,13.16388888888889,1.0805555555555557,1.144444444444444,1.0902777777777781,0.9910828025477705,0.030056546669407404,1.2094786740838375,33.333333333333336,0.923076923051361,1.0496815286624195,5.369756028716921e-11,0.8208583716289359,0
12,14.308333333333334,1.144444444444444,1.094444444444445,1.0902777777777781,1.0496815286624195,0.0262834882332109,1.0576503963763186,30.555555555555557,0.8461538461304142,1.0038216560509556,1.751721224942538e-14,0.821602518324829,0
13,15.402777777777779,1.094444444444445,1.12222222222222,1.0902777777777781,1.0038216560509556,0.03190082310022761,1.2836925562282853,38.888888888888886,1.0769230768932543,1.0292993630573224,4.88879996117876e-18,0.9759893211165953,0
14,16.525,1.12222222222222,1.0472222222222243,1.0902777777777781,1.0292993630573224,0.031748203960385794,1.2775511456089617,33.333333333333336,0.923076923051361,0.960509554140129,1.0062643426844708e-11,0.8048977993040806,0
15,17.572222222222223,1.0472222222222243,1.06388888888889,1.0875000000000004,0.9629629629629646,0.02319848987869648,0.9335097304372504,66.66666666666667,1.846153846102722,0.978288633461048,1.1145636280227023e-12,0.9360058407232972,0
16,18.636111111111113,1.06388888888889,1.0944444444444414,1.0875000000000004,0.978288633461048,0.030461078336598175,1.225757071926422,36.111111111111114,0.9999999999723078,1.0063856960408655,1.5814574963825717e-16,0.9583363284902082,0
17,19.730555555555554,1.0944444444444414,1.1138888888888907,1.0875000000000004,1.0063856960408655,0.037186780579681465,1.4964000543262177,77.77777777777777,2.1538461537865086,1.0242656449553014,0.177301824092865,0.7651822079764274,0
18,20.844444444444445,1.1138888888888907,1.1083333333333343,1.0930555555555541,1.0190597204574363,0.02656094798656561,1.0688154067246516,72.22222222222223,1.9999999999446156,1.0139771283354533,8.601893611466516e-13,0.9511697061600783,0
19,21.95277777777778,1.1083333333333343,1.0861111111111086,1.0944444444444432,1.0126903553299513,0.02721028250206204,1.0949446975403145,69.44444444444444,1.9230769230236686,0.9923857868020293,1.5084163895029553e-15,0.9717326628764926,0
20,23.038888888888888,1.0861111111111086,1.0611111111111136,1.0944444444444432,0.9923857868020293,0.02906706531034006,1.1696618376601924,72.22222222222223,1.9999999999446156,0.9695431472081252,2.8864619028290406e-12,0.9627013704838698,0
21,24.1,1.0611111111111136,1.0999999999999979,1.0944444444444432,0.9695431472081252,0.03007815553655137,1.2103482172242788,36.111111111111114,0.9999999999723078,1.005076142131979,1.5228756389592803e-16,0.9576197508168987,0
22,25.2,1.0999999999999979,1.1472222222222221,1.0944444444444432,1.005076142131979,0.029490556100742193,1.1867031526620795,72.22222222222223,1.9999999999446156,1.0482233502538083,0.00025966280372813344,0.7878678827906538,0
23,26.34722222222222,1.1472222222222221,1.1388888888888893,1.0972222222222197,1.045569620253167,0.0350200913225045,1.409212245335859,33.333333333333336,0.923076923051361,1.0379746835443067,9.981102749856419e-11,0.7731203451391295,0
24,27.48611111111111,1.1388888888888893,1.1444444444444457,1.0972222222222197,1.0379746835443067,0.028980862765628914,1.1661930379798218,38.888888888888886,1.0769230768932543,1.0430379746835479,2.3153754801037157e-17,0.9502606415920121,0
25,28.630555555555556,1.1444444444444457,1.1138888888888872,1.104166666666666,1.0364779874213854,0.03377774880223,1.3592202485603626,75.0,2.076923076865562,1.0088050314465398,0.0018540933961048722,0.7936781997553206,0
26,29.744444444444444,1.1138888888888872,1.1416666666666693,1.1111111111111107,1.0024999999999988,0.029775282402864763,1.1981605697152007,72.22222222222223,1.9999999999446156,1.0275000000000027,0.0002221166796516627,0.7966054914158706,0
27,30.886111111111113,1.1416666666666693,1.1305555555555529,1.113888888888889,1.0249376558603513,0.03176700458671812,1.278307684836787,30.555555555555557,0.8461538461304142,1.014962593516207,4.667779184008847e-12,0.7614229528277596,0
28,32.016666666666666,1.1305555555555529,1.1972222222222229,1.12222222222222,1.007425742574257,0.030386819273261104,1.222768879222466,72.22222222222223,1.9999999999446156,1.0668316831683196,0.0003103683702647686,0.8042412572750216,0
29,33.21388888888889,1.1972222222222229,1.1194444444444471,1.134722222222221,1.0550795593635267,0.029069789014477657,1.1697714398079433,36.111111111111114,0.9999999999723078,0.9865361077111416,3.648535737855313e-13,0.8186914851629508,0
30,34.333333333333336,1.1194444444444471,1.1277777777777729,1.134722222222221,0.9865361077111416,0.030927074836587905,1.2445088212585882,69.44444444444444,1.9230769230236686,0.993880048959605,5.7701666361653636e-11,0.9550717034645091,0
31,35.46111111111111,1.1277777777777729,1.1138888888888943,1.134722222222221,0.993880048959605,0.03145953337623194,1.2659350102222313,33.333333333333336,0.923076923051361,0.9816401468788307,1.4108664757317424e-11,0.7859521587142159,0
32,36.575,1.1138888888888943,1.0916666666666615,1.134722222222221,0.9816401468788307,0.02716004252634688,1.0929230355083346,69.44444444444444,1.9230769230236686,0.962056303549568,1.614821667317301e-05,0.8295516351750443,0
33,37.666666666666664,1.0916666666666615,1.13055555555556,1.1291666666666629,0.9667896678966776,0.029769300776787896,1.197919868437842,33.333333333333336,0.923076923051361,1.0012300123001303,2.2975262317648237e-11,0.7946966448252878,0
34,38.797222222222224,1.13055555555556,1.1722222222222172,1.1291666666666629,1.0012300123001303,0.03400451992234811,1.368345542849747,33.333333333333336,0.923076923051361,1.038130381303812,2.2628915408162698e-10,0.7552620261916637,0
35,39.96944444444444,1.1722222222222172,1.0833333333333357,1.1291666666666629,1.038130381303812,0.0291030410774228,1.1711095064010153,66.66666666666667,1.846153846102722,0.9594095940959463,2.202846872023656e-06,0.8320861405521445,0
36,41.05277777777778,1.0833333333333357,1.0444444444444443,1.1291666666666629,0.9594095940959463,0.03315546240378044,1.3341793768868633,69.44444444444444,1.9230769230236686,0.9249692496924999,0.000965711718890816,0.7913258926812252,0
37,42.09722222222222,1.0444444444444443,1.1000000000000014,1.12361111111111,0.9295426452410391,0.028441269624466695,1.1444797518829237,33.333333333333336,0.923076923051361,0.9789864029666276,8.94490697820244e-18,0.9585133384038804,0
38,43.19722222222222,1.1000000000000014,1.1611111111111114,1.1166666666666707,0.9850746268656694,0.026361508898358695,1.0607899563421395,36.111111111111114,0.9999999999723078,1.039800995024872,6.670794559099358e-12,0.8293345861613546,0
39,44.358333333333334,1.1611111111111114,1.0861111111111086,1.1166666666666707,1.039800995024872,0.02903328076993998,1.1683023441170035,36.111111111111114,0.9999999999723078,0.9726368159203922,8.930763030143285e-13,0.8052136511349015,0
40,45.44444444444444,1.0861111111111086,1.1611111111111114,1.1069444444444478,0.9811794228356283,0.03186991016559996,1.2824486164105566,77.77777777777777,2.1538461537865086,1.0489335006273497,2.2510071584491698e-09,0.9631538370490291,0
41,46.605555555555554,1.1611111111111114,1.0305555555555586,1.1069444444444478,1.0489335006273497,0.029834484019472782,1.2005428491415848,36.111111111111114,0.9999999999723078,0.9309912170639898,1.2581045146647929e-12,0.7974635991663304,0
42,47.63611111111111,1.0305555555555586,1.06111111111111,1.0958333333333314,0.9404309252218042,0.02605805374867318,1.0485788884466012,66.66666666666667,1.846153846102722,0.9683143219264899,4.948159937345764e-12,0.948810710834578,0
43,48.69722222222222,1.06111111111111,1.1361111111111128,1.093055555555555,0.9707750952986017,0.031231860723423113,1.256773438160307,41.666666666666664,1.153846153814201,1.0393900889453642,5.6623178436060635e-15,0.961685712816843,0
44,49.833333333333336,1.1361111111111128,1.06388888888889,1.093055555555555,1.0393900889453642,0.03171327505541461,1.2761456027122207,72.22222222222223,1.9999999999446156,0.9733163913595949,0.00015531138342339545,0.7801869833146029,0
45,50.897222222222226,1.06388888888889,1.1111111111111072,1.0847222222222221,0.9807938540332918,0.02693543594830217,1.0838848426250343,69.44444444444444,1.9230769230236686,1.0243277848911616,2.6244452574694654e-13,0.9613097853053236,0
46,52.00833333333333,1.1111111111111072,1.0861111111111086,1.093055555555555,1.0165184243964391,0.03063848570728632,1.2328959636238834,38.888888888888886,1.0769230768932543,0.9936467598475204,4.792287753310462e-17,0.9574488667156149,0
47,53.09444444444444,1.0861111111111086,1.0083333333333329,1.093055555555555,0.9936467598475204,0.02859972356225336,1.1508559553997648,72.22222222222223,1.9999999999446156,0.9224904701397714,1.0724594823319222e-10,0.9467700629770333,0
48,54.102777777777774,1.0083333333333329,1.0138888888888928,1.0861111111111086,0.9283887468030708,0.026608677401424842,1.0707360435174837,69.44444444444444,1.9230769230236686,0.9335038363171414,3.658816739166015e-12,0.9578933202935307,0
49,55.11666666666667,1.0138888888888928,1.1138888888888872,1.0749999999999993,0.943152454780366,0.030886642113064834,1.2428818041107381,38.888888888888886,1.0769230768932543,1.0361757105943143,2.2078997972355824e-15,0.967050647084309,0
50,56.230555555555554,1.1138888888888872,1.0750000000000028,1.0749999999999993,1.0361757105943143,0.029287524023897445,1.1785331200299336,38.888888888888886,1.0769230768932543,1.0000000000000033,2.5082592751361783e-17,0.9512293449064189,0
51,57.30555555555556,1.0750000000000028,1.0916666666666686,1.0694444444444464,1.005194805194806,0.026811436544195263,1.0788950932530925,72.22222222222223,1.9999999999446156,1.0207792207792206,1.8850936436831667e-12,0.954657734402437,0
52,58.397222222222226,1.0916666666666686,1.0444444444444443,1.0805555555555557,1.010282776349616,0.03137789801564824,1.2626499945228855,75.0,2.076923076865562,0.9665809768637529,1.7766857429712957e-10,0.9610910731457525,0
53,59.44166666666667,1.0444444444444443,1.0277777777777715,1.0805555555555557,0.9665809768637529,0.027553943161159323,1.1087736394634007,69.44444444444444,1.9230769230236686,0.9511568123393256,1.5779232304460877e-12,0.9595365768929125,0
54,60.46944444444444,1.0277777777777715,1.0277777777777786,1.0694444444444464,0.9610389610389534,0.027470428061405344,1.1054129828574562,72.22222222222223,1.9999999999446156,0.96103896103896,9.732240707771567e-11,0.9513473784173918,0
55,61.49722222222222,1.0277777777777786,1.125,1.0597222222222236,0.9698558322411529,0.02979464964455195,1.1989399096059115,75.0,2.076923076865562,1.061598951507207,1.1149039025326601e-08,0.9504689668662707,0
56,62.62222222222222,1.125,1.0888888888888886,1.0597222222222236,1.061598951507207,0.03081626687738181,1.2400498970497424,36.111111111111114,0.9999999999723078,1.027522935779815,4.008261236032387e-18,0.9596469116063626,0
57,63.71111111111111,1.0888888888888886,1.12777777777778,1.0597222222222236,1.027522935779815,0.03084726311242401,1.2412971888851212,38.888888888888886,1.0769230768932543,1.0642201834862393,5.048359379027483e-17,0.9658993019509685,0
58,64.83888888888889,1.12777777777778,1.00277777777778,1.0819444444444457,1.042362002567395,0.031252566202615226,1.2576066288723005,72.22222222222223,1.9999999999446156,0.9268292682926839,0.00010171185567742214,0.771688088092156,0
59,65.84166666666667,1.00277777777778,1.0333333333333314,1.0819444444444457,0.9268292682926839,0.027485651276137616,1.106025566657325,69.44444444444444,1.9230769230236686,0.9550706033376094,1.2907887259050455e-10,0.9520106872534808,0
60,66.875,1.0333333333333314,1.13055555555556,1.0597222222222236,0.9750982961992106,0.027565019140585505,1.1092193380680309,30.555555555555557,0.8461538461304142,1.0668414154652714,8.241197531190059e-16,0.9368940023144898,0
61,68.00555555555556,1.13055555555556,1.0749999999999886,1.0666666666666664,1.0598958333333377,0.03346446242194871,1.3466135708871485,36.111111111111114,0.9999999999723078,1.0078124999999896,1.488752315870201e-10,0.7866834485027244,0
62,69.08055555555555,1.0749999999999886,1.0750000000000028,1.0597222222222165,1.0144167758846605,0.024779564920951777,0.9971323603676664,69.44444444444444,1.9230769230236686,1.014416775884674,9.716209058835672e-16,0.9645524359757667,0
63,70.15555555555555,1.0750000000000028,1.0861111111111086,1.0749999999999957,1.0000000000000067,0.0270965842795767,1.0903694688259251,33.333333333333336,0.923076923051361,1.0103359173126631,8.188948270751453e-18,0.9442459473991187,0
64,71.24166666666666,1.0861111111111086,1.0305555555555657,1.0805555555555557,1.0051413881748048,0.027613375886021457,1.1111652187108132,72.22222222222223,1.9999999999446156,0.9537275064267444,7.213482415557859e-12,0.951599617598174,0
65,72.27222222222223,1.0305555555555657,0.99444444444444,1.0805555555555557,0.9537275064267444,0.03026533708889184,1.2178804230437896,72.22222222222223,1.9999999999446156,0.9203084832904842,4.948037639340708e-12,0.97307866188089,0
66,73.26666666666667,0.99444444444444,1.12222222222222,1.0749999999999957,0.9250645994832037,0.025283927355486655,1.0174279590366857,69.44444444444444,1.9230769230236686,1.0439276485788134,9.767004913174837e-13,0.9600850372270018,0
67,74.38888888888889,1.12222222222222,1.0777777777777828,1.0749999999999957,1.0439276485788134,0.02898484800547702,1.1663534044603894,41.666666666666664,1.153846153814201,1.0025839793281741,1.977613482324428e-18,0.9613344087388325,0
68,75.46666666666667,1.0777777777777828,1.0555555555555571,1.0749999999999957,1.0025839793281741,0.03056721155024711,1.2300278838707304,36.111111111111114,0.9999999999723078,0.9819121447028477,1.2990358668165517e-17,0.9623419431822253,0
69,76.52222222222223,1.0555555555555571,1.0999999999999943,1.0749999999999957,0.9819121447028477,0.03223875899506686,1.2972911330212582,77.77777777777777,2.1538461537865086,1.023255813953487,1.1175528413787106e-07,0.9519148417823793,0
70,77.62222222222222,1.0999999999999943,0.9750000000000085,1.0763888888888928,1.0219354838709587,0.035380151090891626,1.423701089182416,33.333333333333336,0.923076923051361,0.9058064516129078,9.004376133603387e-10,0.7528600429941552,0
71,78.59722222222223,0.9750000000000085,1.0638888888888829,1.0749999999999957,0.906976744186058,0.03019579041428456,1.2150818573696907,36.111111111111114,0.9999999999723078,0.9896640826873369,2.0319653366184702e-15,0.9648946129823733,0
72,79.66111111111111,1.0638888888888829,1.0722222222222229,1.0694444444444429,0.9948051948051907,0.03579175898860284,1.4402642353030215,36.111111111111114,0.9999999999723078,1.0025974025974047,7.3315762350034674e-09,0.781003223589477,0
73,80.73333333333333,1.0722222222222229,1.0833333333333286,1.0680555555555529,1.0039011703511085,0.028644155605740598,1.1526439056135689,72.22222222222223,1.9999999999446156,1.0143042912873843,2.7686603010224076e-12,0.9625615212056835,0
74,81.81666666666666,1.0833333333333286,1.0527777777777771,1.0680555555555529,1.0143042912873843,0.030259540885379927,1.2176471831904085,72.22222222222223,1.9999999999446156,0.9856957087126157,1.0284819870753914e-11,0.9632343144653032,0
75,82.86944444444444,1.0527777777777771,1.0805555555555628,1.0680555555555529,0.9856957087126157,0.028532150469458374,1.1481368068702829,75.0,2.076923076865562,1.0117035110533252,2.865805648344377e-10,0.9535206171293638,0
76,83.95,1.0805555555555628,0.9611111111111086,1.0750000000000028,1.005167958656335,0.030464986554866885,1.225914339050342,66.66666666666667,1.846153846102722,0.894056847545215,2.4773175027803518e-05,0.7764964431594124,0
77,84.91111111111111,0.9611111111111086,0.5555555555555571,1.0680555555555529,0.8998699609882964,0.02501346761539011,1.0065446299755338,61.111111111111114,1.6923076922608284,0.520156046814047,1.4330231579151587e-06,0.8987867965564513,0
78,85.46666666666667,0.5555555555555571,1.625,1.05972222222222,0.5242463958060314,0.03365424412906292,1.354250407214706,80.55555555555556,2.230769230707456,1.5334207077326376,0.9992187023162842,0.926598927086782,1
79,87.09166666666667,1.625,1.0777777777777828,1.0680555555555529,1.5214564369310832,0.014311605705475393,0.5759005544801111,25.0,0.6923076922885207,1.009102730819253,1.459377929257735e-29,0.8164965611815345,0
80,88.16944444444445,1.0777777777777828,1.0916666666666544,1.0680555555555529,1.009102730819253,0.021240069416914777,0.8547026801973336,33.333333333333336,0.923076923051361,1.022106631989588,1.9827465813941278e-14,0.814341741591846,0
81,89.2611111111111,1.0916666666666544,0.9944444444444542,1.0750000000000028,1.015503875968978,0.026012013449234202,1.0467262218401425,36.111111111111114,0.9999999999723078,0.9250645994832108,4.628263375848485e-13,0.7976793363566138,0
82,90.25555555555556,0.9944444444444542,1.0388888888888914,1.0750000000000028,0.9250645994832108,0.028131665601333698,1.1320212526578262,69.44444444444444,1.9230769230236686,0.9664082687338499,4.731104830818511e-12,0.9660965554047392,0
83,91.29444444444445,1.0388888888888914,1.055555555555543,1.06527777777778,0.97522816166884,0.02466692084728936,0.9925995507154086,30.555555555555557,0.8461538461304142,0.9908735332464007,5.026568354257743e-13,0.8036218275405095,0
84,92.35,1.055555555555543,1.1138888888888943,1.05416666666666,1.0013175230566478,0.02207483094796331,0.8882935740832373,33.333333333333336,0.923076923051361,1.0566534914361119,4.0183828661617696e-17,0.9167062753891044,0
85,93.46388888888889,1.1138888888888943,1.0361111111111114,1.0666666666666629,1.0442708333333421,0.028564938314059662,1.1494561932672172,38.888888888888886,1.0769230768932543,0.9713541666666704,2.7507591417478885e-19,0.9606440802203035,0
86,94.5,1.0361111111111114,1.0638888888888829,1.0472222222222172,0.9893899204244082,0.027425540443751423,1.1036067002901342,72.22222222222223,1.9999999999446156,1.0159151193633944,2.0812396944736022e-11,0.9547611571470735,0
87,95.56388888888888,1.0638888888888829,1.0805555555555628,1.059722222222213,1.0039318479685484,0.026647643131416116,1.072304028687667,72.22222222222223,1.9999999999446156,1.019659239842742,1.1783818278793268e-12,0.9564104857453113,0
88,96.64444444444445,1.0805555555555628,0.9833333333333343,1.0708333333333329,1.0090791180285417,0.0303014422246258,1.219333297593066,69.44444444444444,1.9230769230236686,0.918287937743192,7.09894738974981e-05,0.7780723795850344,0
89,97.62777777777778,0.9833333333333343,1.11944444444444,1.059722222222213,0.92791612057668,0.02680468978297173,1.0786236028550522,75.0,2.076923076865562,1.0563564875491531,1.1949703448976834e-08,0.9450839812089042,0
90,98.74722222222222,1.11944444444444,1.1472222222222257,1.059722222222213,1.0563564875491531,0.031624079230669414,1.2725563531210013,75.0,2.076923076865562,1.0825688073394624,4.9128878049087277e-11,0.9645534987834867,0
91,99.89444444444445,1.1472222222222257,1.0277777777777715,1.059722222222213,1.0825688073394624,0.034229876390133036,1.3774139113769321,75.0,2.076923076865562,0.9698558322411559,0.0007269123452715576,0.7831735115175487,0
92,100.92222222222222,1.0277777777777715,1.0750000000000028,1.059722222222213,0.9698558322411559,0.02789239915100586,1.1223931449354638,36.111111111111114,0.9999999999723078,1.0144167758846774,1.227395474499008e-16,0.9523420492846595,0
93,101.99722222222222,1.0750000000000028,1.0611111111111171,1.0694444444444429,1.0051948051948094,0.02881765972387215,1.1596257300079005,38.888888888888886,1.0769230768932543,0.9922077922077993,1.3397401012713061e-17,0.9582931316906953,0
94,103.05833333333334,1.0611111111111171,1.0777777777777686,1.0694444444444429,0.9922077922077993,0.029870719652604297,1.2020009749201894,72.22222222222223,1.9999999999446156,1.0077922077922008,0.0005181446904316545,0.7769127820159334,0
95,104.1361111111111,1.0777777777777686,1.1555555555555657,1.0694444444444429,1.0077922077922008,0.029094722527301102,1.1707747670484825,75.0,2.076923076865562,1.0805194805194915,1.5001155873051175e-08,0.9389745820956341,0
96,105.29166666666667,1.1555555555555657,1.0555555555555571,1.0763888888888857,1.0735483870967868,0.03560689654623001,1.432825350718301,75.0,2.076923076865562,0.980645161290327,0.0016982047818601131,0.7793438994542099,0
97,106.34722222222223,1.0555555555555571,1.0833333333333286,1.0763888888888857,0.980645161290327,0.024860872850356198,1.0004042002011047,33.333333333333336,0.923076923051361,1.0064516129032244,9.037344577091363e-17,0.9268376904926182,0
98,107.43055555555556,1.0833333333333286,1.0805555555555486,1.0763888888888857,1.0064516129032244,0.029378880656201704,1.182209320749978,36.111111111111114,0.9999999999723078,1.003870967741932,8.340242086329239e-18,0.9582748893437709,0
99,108.5111111111111,1.0805555555555486,1.0861111111111228,1.0791666666666586,1.0012870012870023,0.029207342824586414,1.1753066199367654,69.44444444444444,1.9230769230236686,1.0064350064350247,8.898796413289722e-13,0.9649088290546448,0
100,109.59722222222223,1.0861111111111228,1.1305555555555458,1.0791666666666586,1.0064350064350247,0.032057340993752535,1.2899908531155855,33.333333333333336,0.923076923051361,1.0476190476190463,1.8483559127702165e-10,0.8054344728468412,0
101,110.72777777777777,1.1305555555555458,1.0861111111111086,1.0791666666666586,1.0476190476190463,0.03397113632003838,1.3670021830984813,30.555555555555557,0.8461538461304142,1.0064350064350116,2.486925249067795e-11,0.7613747193107873,0
102,111.81388888888888,1.0861111111111086,1.13055555555556,1.0819444444444386,1.0038510911424934,0.029984711834719083,1.2065880326017175,72.22222222222223,1.9999999999446156,1.0449293966623974,1.2307387097301725e-12,0.970894859974021,0
103,112.94444444444444,1.13055555555556,1.0499999999999972,1.0847222222222186,1.042253521126768,0.02793971987768246,1.1242973360718247,36.111111111111114,0.9999999999723078,0.9679897567221517,6.917196307930362e-13,0.8055062737612162,0
104,113.99444444444444,1.0499999999999972,1.0750000000000028,1.0847222222222186,0.9679897567221517,0.02998189822784489,1.2064748127581666,69.44444444444444,1.9230769230236686,0.9910371318822082,0.00024031683278735727,0.7613181706577931,0
105,115.06944444444444,1.0750000000000028,1.1388888888888857,1.0847222222222186,0.9910371318822082,0.03397908725249482,1.367322129476584,33.333333333333336,0.923076923051361,1.0499359795134449,1.19522491903723e-09,0.7735662471681397,0
106,116.20833333333333,1.1388888888888857,1.12222222222222,1.0847222222222186,1.0499359795134449,0.026146342607435157,1.0521316416290052,30.555555555555557,0.8461538461304142,1.0345710627400782,3.307599962150409e-14,0.8281032836507793,0
107,117.33055555555555,1.12222222222222,1.1166666666666742,1.0861111111111157,1.0332480818414258,0.023830621123271375,0.9589467597788013,36.111111111111114,0.9999999999723078,1.0281329923273683,1.5417021500575834e-13,0.8111899348060225,0
108,118.44722222222222,1.1166666666666742,1.0472222222222172,1.1013888888888985,1.0138713745271102,0.031007778041145965,1.2477563268990997,72.22222222222223,1.9999999999446156,0.9508196721311346,0.00019722151046153158,0.7784642528783661,0
109,119.49444444444444,1.0472222222222172,1.0944444444444485,1.1013888888888985,0.9508196721311346,0.027992174814412497,1.126408128373522,36.111111111111114,0.9999999999723078,0.9936948297603986,5.46586803986566e-18,0.9604977768466352,0
110,120.58888888888889,1.0944444444444485,1.1083333333333343,1.1055555555555614,0.9899497487437171,0.029781473158208234,1.1984096863767637,38.888888888888886,1.0769230768932543,1.0025125628140659,7.842104408872761e-19,0.9706966229979527,0
111,121.69722222222222,1.1083333333333343,1.1361111111111057,1.1013888888888914,1.006305170239595,0.03137421334887634,1.2625017231352662,41.666666666666664,1.153846153814201,1.031525851197975,1.2210670630482221e-17,0.9729064524924176,0
112,122.83333333333333,1.1361111111111057,1.13333333333334,1.1125000000000043,1.021223470661664,0.030750447693125443,1.2374013259886931,41.666666666666664,1.153846153814201,1.0187265917603017,4.34331727787383e-17,0.9611842397176756,0
113,123.96666666666667,1.13333333333334,1.11388888888888,1.1125000000000043,1.0187265917603017,0.030007669989702074,1.2075118712300754,38.888888888888886,1.0769230768932543,1.0012484394506749,1.1630164461205363e-21,0.9835152495859218,0
114,125.08055555555555,1.11388888888888,1.0555555555555571,1.1152777777777771,0.9987546699875394,0.030629189722272947,1.2325218921860717,38.888888888888886,1.0769230768932543,0.9464508094645101,1.229404035496385e-19,0.9745712486420748,0
115,126.1361111111111,1.0555555555555571,0.5555555555555571,1.1152777777777771,0.9464508094645101,0.02960194430660927,1.1911854260590369,38.888888888888886,1.0769230768932543,0.49813200498132176,3.410246349602707e-21,0.9830040770813163,0
116,126.69166666666666,0.5555555555555571,1.6388888888888857,1.1111111111111072,0.5000000000000032,0.03468067994743864,1.3955542950597064,86.11111111111111,2.3846153845493494,1.4750000000000023,0.9991135001182556,0.9174608742639487,1
117,128.33055555555555,1.6388888888888857,1.1527777777777715,1.1111111111111072,1.4750000000000023,0.025802001266052862,1.038275308977483,33.333333333333336,0.923076923051361,1.037499999999998,2.3021934609442015e-30,0.9358273630272502,0
118,129.48333333333332,1.1527777777777715,1.0972222222222285,1.1111111111111072,1.037499999999998,0.03152775420374512,1.2686802236665133,41.666666666666664,1.153846153814201,0.9875000000000091,1.8492759966965194e-18,0.969711089737014,0
119,130.58055555555555,1.0972222222222285,1.0944444444444628,1.1111111111111072,0.9875000000000091,0.0315008283348666,1.2675967238038064,38.888888888888886,1.0769230768932543,0.98500000000002,1.4749569998996344e-17,0.9695224377345555,0
120,131.675,1.0944444444444628,1.061111111111103,1.1111111111111072,0.98500000000002,0.03184623940601898,1.2814961024964515,38.888888888888886,1.0769230768932543,0.954999999999996,1.0803326215799814e-18,0.9774995590960136,0
121,132.73611111111111,1.061111111111103,1.11388888888888,1.1055555555555543,0.9597989949748681,0.03216117637696737,1.2941692001158245,36.111111111111114,0.9999999999723078,1.0075376884422043,5.63249910748916e-16,0.963811527166901,0
122,133.85,1.11388888888888,1.1166666666666742,1.1055555555555543,1.0075376884422043,0.03429888910289461,1.3801909903688696,41.666666666666664,1.153846153814201,1.0100502512562894,2.1150950558861386e-15,0.9653627659969515,0
123,134.96666666666667,1.1166666666666742,1.0999999999999943,1.1055555555555543,1.0100502512562894,0.030573146155432922,1.2302666930223702,38.888888888888886,1.0769230768932543,0.9949748743718553,4.645670563591988e-20,0.9781059493915901,0
124,136.06666666666666,1.0999999999999943,1.13055555555556,1.0986111111111114,1.0012642225031552,0.027623574690184328,1.1115756196884048,36.111111111111114,0.9999999999723078,1.0290771175726965,2.7332596189014463e-19,0.9605823392369639,0
125,137.19722222222222,1.13055555555556,1.0250000000000057,1.1069444444444372,1.0213299874529593,0.037089142162871284,1.4924710739213123,33.333333333333336,0.923076923051361,0.9259723964868368,6.370837746239033e-10,0.761863469993475,0
126,138.22222222222223,1.0250000000000057,1.0305555555555372,1.1069444444444372,0.9259723964868368,0.031076647592591846,1.25052764506428,69.44444444444444,1.9230769230236686,0.9309912170639795,2.2896236018254967e-09,0.954878074315557,0
127,139.25277777777777,1.0305555555555372,1.1444444444444457,1.0986111111111114,0.9380530973451158,0.03074878280861324,1.2373343308566684,75.0,2.076923076865562,1.0417193426042992,8.642053295204732e-09,0.9580577342094831,0
128,140.3972222222222,1.1444444444444457,1.0972222222222285,1.0986111111111114,1.0417193426042992,0.030124637526222558,1.2122186574932372,36.111111111111114,0.9999999999723078,0.998735777496845,5.152445583456562e-18,0.952373648165008,0
129,141.49444444444444,1.0972222222222285,1.0777777777777828,1.0986111111111114,0.998735777496845,0.03181244764601122,1.2801363184354722,72.22222222222223,1.9999999999446156,0.981036662452596,1.7604459556785912e-11,0.9679362388384303,0
130,142.57222222222222,1.0777777777777828,1.0999999999999943,1.0986111111111114,0.981036662452596,0.02789332031255899,1.1224302125755408,38.888888888888886,1.0769230768932543,1.0012642225031552,8.18781562784832e-20,0.9702396360172976,0
131,143.67222222222222,1.0999999999999943,1.0388888888888914,1.0999999999999943,1.0,0.03011097679497738,1.2116689481971172,38.888888888888886,1.0769230768932543,0.9444444444444516,1.578646152464809e-19,0.9726346434818101,0
132,144.7111111111111,1.0388888888888914,1.1083333333333485,1.0986111111111114,0.9456384323640981,0.029896859892091662,1.2030528609716096,36.111111111111114,0.9999999999723078,1.0088495575221375,1.4689601058947474e-17,0.9687448451458794,0
133,145.81944444444446,1.1083333333333485,1.125,1.0986111111111114,1.0088495575221375,0.032078320986532315,1.2908350902839028,41.666666666666664,1.153846153814201,1.0240202275600503,1.3563614817348364e-15,0.9603478270838208,0
134,146.94444444444446,1.125,1.1222222222222058,1.0986111111111114,1.0240202275600503,0.029733422847004806,1.196476136680491,36.111111111111114,0.9999999999723078,1.0214917825537142,5.2801827169055157e-20,0.9703859648120299,0
135,148.06666666666666,1.1222222222222058,1.0888888888889028,1.0986111111111114,1.0214917825537142,0.028904029057720448,1.1631012413011081,36.111111111111114,0.9999999999723078,0.9911504424778884,1.5463401410823138e-21,0.9745578604938223,0
136,149.15555555555557,1.0888888888889028,1.0861111111111086,1.0986111111111114,0.9911504424778884,0.029862023257794006,1.2016510310567061,36.111111111111114,0.9999999999723078,0.9886219974715524,3.726598262919988e-20,0.9757094973665531,0
137,150.24166666666667,1.0861111111111086,1.0305555555555372,1.0986111111111114,0.9886219974715524,0.030649097456396823,1.2333229815506284,38.888888888888886,1.0769230768932543,0.9380530973451158,2.124794995336301e-19,0.976214295709225,0
138,151.2722222222222,1.0305555555555372,1.14722222222224,1.0930555555555657,0.9428208386276746,0.030523177110149305,1.228255933260126,38.888888888888886,1.0769230768932543,1.049555273189333,1.0266434249833777e-15,0.9667237061674886,0
139,152.41944444444445,1.14722222222224,1.1277777777777658,1.0944444444444485,1.0482233502538194,0.0300470238323496,1.2090954740953335,38.888888888888886,1.0769230768932543,1.0304568527918634,2.213036910561096e-21,0.980402194552261,0
140,153.54722222222222,1.1277777777777658,1.063888888888897,1.1041666666666714,1.0213836477987268,0.03125067458868595,1.2575305101241216,41.666666666666664,1.153846153814201,0.9635220125786197,4.573668136033821e-18,0.9684040918190491,0
141,154.61111111111111,1.063888888888897,1.0944444444444343,1.0986111111111256,0.9683944374209807,0.027867743179942183,1.12140098600522,36.111111111111114,0.9999999999723078,0.996207332490496,1.281550256598713e-21,0.9799278623577636,0
142,155.70555555555555,1.0944444444444343,1.0500000000000114,1.1013888888888914,0.993694829760392,0.03151005077567525,1.2679678358149016,38.888888888888886,1.0769230768932543,0.9533417402269942,1.0673763262094408e-17,0.9688310368754445,0
143,156.75555555555556,1.0500000000000114,1.049999999999983,1.0916666666666686,0.961832061068711,0.031072213053947546,1.2503491987517785,36.111111111111114,0.9999999999723078,0.961832061068685,7.702931787798597e-19,0.9778725511176649,0
144,157.80555555555554,1.049999999999983,1.1444444444444457,1.0875000000000057,0.9655172413792896,0.03030791942864871,1.219593940980331,38.888888888888886,1.0769230768932543,1.052362707535117,1.1487416162909743e-17,0.9748934791926509,0
145,158.95,1.1444444444444457,1.0777777777777828,1.0875000000000057,1.052362707535117,0.031548166519950696,1.2695016174683644,38.888888888888886,1.0769230768932543,0.9910600255427836,4.364740924866708e-18,0.9630704881696044,0
146,160.02777777777777,1.0777777777777828,1.0527777777777771,1.0819444444444457,0.9961489088575132,0.030651747908813705,1.2334296360412507,36.111111111111114,0.9999999999723078,0.9730423620025657,1.1016240851109738e-17,0.9634258953767058,0
147,161.08055555555555,1.0527777777777771,1.075000000000017,1.07083333333334,0.9831387808041437,0.030579159618882756,1.2305086754390449,72.22222222222223,1.9999999999446156,1.0038910505836673,1.1673226621433663e-11,0.9691370968699691,0
148,162.15555555555557,1.075000000000017,1.0,1.0763888888889,0.9987096774193605,0.02989070841662454,1.2028053249365,38.888888888888886,1.0769230768932543,0.9290322580645066,6.745064005539522e-20,0.9758214595713723,0
149,163.15555555555557,1.0,1.1277777777777658,1.069444444444457,0.935064935064924,0.03209592372961628,1.2915434265608412,36.111111111111114,0.9999999999723078,1.054545454545431,1.7160518205007122e-14,0.9648354068429363,0
150,164.28333333333333,1.1277777777777658,1.1166666666666742,1.069444444444457,1.054545454545431,0.029394920736009408,1.1828547752884317,38.888888888888886,1.0769230768932543,1.044155844155839,1.055241868381684e-19,0.9693470031086473,0
151,165.4,1.1166666666666742,1.063888888888897,1.0763888888889,1.037419354838706,0.0311307584904581,1.2527050734203915,38.888888888888886,1.0769230768932543,0.988387096774191,1.2550543634543775e-18,0.9694309285064631,0
152,166.4638888888889,1.063888888888897,1.0666666666666629,1.069444444444457,0.9948051948051907,0.03229216546613991,1.2994402151673676,36.111111111111114,0.9999999999723078,0.9974025974025821,3.1966690968945497e-15,0.9538962590300547,0
153,167.53055555555557,1.0666666666666629,1.0666666666666629,1.07083333333334,0.9961089494163327,0.02995754269138102,1.2054947433485659,36.111111111111114,0.9999999999723078,0.9961089494163327,2.3051238585410704e-19,0.9734925222206763,0
154,168.59722222222223,1.0666666666666629,1.0583333333333371,1.07083333333334,0.9961089494163327,0.031014824010109607,1.2480398574488172,36.111111111111114,0.9999999999723078,0.9883268482490246,5.605894993755984e-17,0.9617651407485708,0
155,169.65555555555557,1.0583333333333371,1.1444444444444457,1.0666666666666629,0.9921875000000071,0.031203090519867284,1.2556157220716107,38.888888888888886,1.0769230768932543,1.0729166666666716,3.9923947703743746e-16,0.9678711189896017,0
156,170.8,1.1444444444444457,1.11388888888888,1.0666666666666629,1.0729166666666716,0.03339151993130588,1.3436783572101607,38.888888888888886,1.0769230768932543,1.0442708333333288,6.41807584395322e-17,0.9627507592772775,0
157,171.9138888888889,1.11388888888888,1.0777777777777828,1.07083333333334,1.0402075226977803,0.030828677306817934,1.2405492940664493,36.111111111111114,0.9999999999723078,1.0064850843060944,7.040274814142953e-18,0.9593628814994748,0
158,172.99166666666667,1.0777777777777828,1.0805555555555486,1.0722222222222229,1.005181347150263,0.028877440045191192,1.162031296574164,72.22222222222223,1.9999999999446156,1.0077720207253815,4.4318105500533445e-14,0.9762370545908188,0
159,174.07222222222222,1.0805555555555486,1.055555555555543,1.0791666666666657,1.0012870012869957,0.030951305233090934,1.2454838550226912,38.888888888888886,1.0769230768932543,0.9781209781209673,7.590082742152861e-18,0.9692513415313431,0
160,175.12777777777777,1.055555555555543,1.1222222222222342,1.0722222222222229,0.9844559585492104,0.03280156513104664,1.319938512528895,36.111111111111114,0.9999999999723078,1.0466321243523422,2.312167384638242e-13,0.946038958570095,0
161,176.25,1.1222222222222342,1.1500000000000057,1.0722222222222229,1.0466321243523422,0.030788117048989403,1.2389171449244163,72.22222222222223,1.9999999999446156,1.0725388601036316,4.675234266567074e-13,0.9725986616969857,0
162,177.4,1.1500000000000057,1.0916666666666686,1.0791666666666657,1.065637065637072,0.031727001442078316,1.276697953989451,38.888888888888886,1.0769230768932543,1.0115830115830142,3.641249387330673e-17,0.9557595251342788,0
163,178.49166666666667,1.0916666666666686,1.0666666666666629,1.0861111111111086,1.0051150895140706,0.031309564599127974,1.2599002504848362,36.111111111111114,0.9999999999723078,0.9820971867007661,2.1906153024709152e-17,0.9622683742502298,0
164,179.55833333333334,1.0666666666666629,1.11388888888888,1.0861111111111086,0.9820971867007661,0.0312882072250405,1.2590408274520657,38.888888888888886,1.0769230768932543,1.0255754475703267,1.437380666213188e-17,0.9742730171561849,0
165,180.67222222222222,1.11388888888888,1.069444444444457,1.1027777777777743,1.010075566750625,0.03150047259227695,1.267582408683697,38.888888888888886,1.0769230768932543,0.9697732997481253,3.342558438604715e-17,0.9619625098286619,0
166,181.74166666666667,1.069444444444457,1.1527777777777715,1.0861111111111086,0.9846547314578145,0.029758507646095812,1.1974855516967255,36.111111111111114,0.9999999999723078,1.0613810741687946,9.461110900622535e-20,0.9793516336556496,0
167,182.89444444444445,1.1527777777777715,1.1388888888888857,1.0861111111111086,1.0613810741687946,0.031998601551913315,1.2876271716516587,41.666666666666664,1.153846153814201,1.0485933503836313,8.586602744003785e-16,0.9530066947740885,0
168,184.03333333333333,1.1388888888888857,1.0555555555555713,1.1027777777777743,1.032745591939547,0.029476468112034075,1.1861362504796493,36.111111111111114,0.9999999999723078,0.957178841309841,1.626223998023468e-20,0.9671176270994015,0
169,185.0888888888889,1.0555555555555713,1.0944444444444343,1.1027777777777743,0.957178841309841,0.030447027674947134,1.2251916717887874,38.888888888888886,1.0769230768932543,0.9924433249370217,9.629813352576959e-19,0.9786894848982752,0
170,186.18333333333334,1.0944444444444343,1.0444444444444514,1.1041666666666572,0.9911949685534585,0.03024385835960821,1.2170161166648596,38.888888888888886,1.0769230768932543,0.945911949685549,2.345968258750622e-17,0.9595283976152429,0
171,187.2277777777778,1.0444444444444514,1.1277777777777658,1.0930555555555515,0.9555273189326656,0.028571796050799823,1.1497321493319952,36.111111111111114,0.9999999999723078,1.0317662007623818,5.434948338761158e-19,0.9715933681027246,0
172,188.35555555555555,1.1277777777777658,1.1527777777777715,1.0930555555555515,1.0317662007623818,0.03345418634794993,1.3462000605630404,41.666666666666664,1.153846153814201,1.0546378653113069,1.2759444913598684e-15,0.963726566756913,0
173,189.50833333333333,1.1527777777777715,1.0666666666666629,1.1041666666666572,1.0440251572327077,0.0327952265768557,1.3196834484257967,38.888888888888886,1.0769230768932543,0.9660377358490615,7.136103688107221e-17,0.9568831417224788,0
174,190.575,1.0666666666666629,1.075000000000017,1.1041666666666572,0.9660377358490615,0.03058276597113616,1.230653795442008,38.888888888888886,1.0769230768932543,0.9735849056604011,7.084863157882011e-18,0.971360874185573,0
175,191.65,1.075000000000017,1.0666666666666629,1.0847222222222257,0.9910371318822149,0.03289390855973937,1.3236544220418573,77.77777777777777,2.1538461537865086,0.983354673495512,4.358962080175388e-09,0.9632132657316843,0
176,192.71666666666667,1.0666666666666629,0.625,1.0847222222222257,0.983354673495512,0.029253152962683503,1.1771500248260456,36.111111111111114,0.9999999999723078,0.5761843790012786,2.5796262328209788e-20,0.9688974978418033,0
177,193.34166666666667,0.625,1.5694444444444287,1.07083333333334,0.5836575875486345,0.03587344931385928,1.4435514627867165,83.33333333333333,2.307692307628402,1.4656290531776675,0.9996616840362549,0.8954073669786462,1
178,194.9111111111111,1.5694444444444287,1.075000000000017,1.07083333333334,1.4656290531776675,0.02564929237153421,1.0321302866203,30.555555555555557,0.8461538461304142,1.0038910505836673,1.3317325134355314e-21,0.7642447572564937,0
179,195.98611111111111,1.075000000000017,1.0527777777777771,1.075000000000017,1.0,0.028804597506860177,1.1591001049889653,36.111111111111114,0.9999999999723078,0.9793281653746608,7.722640916856322e-20,0.9691145477377501,0
180,197.0388888888889,1.0527777777777771,1.0444444444444514,1.07083333333334,0.9831387808041437,0.029780977830618793,1.198389754341234,69.44444444444444,1.9230769230236686,0.9753566796368357,5.764803239806382e-13,0.9714953426400088,0
181,198.08333333333334,1.0444444444444514,0.98888888888888,1.07083333333334,0.9753566796368357,0.029283596127513894,1.1783750610565535,36.111111111111114,0.9999999999723078,0.9234760051880535,1.0123565441210303e-20,0.9790115884244264,0
182,199.07222222222222,0.98888888888888,1.125,1.0666666666666629,0.9270833333333284,0.030413979979103247,1.2238618289498735,69.44444444444444,1.9230769230236686,1.0546875000000038,1.0641677643252745e-11,0.9763548925911382,0
183,200.19722222222222,1.125,1.0722222222222229,1.0666666666666629,1.0546875000000038,0.03341218229249901,1.3445098128492325,38.888888888888886,1.0769230768932543,1.0052083333333375,6.00831121492254e-16,0.9559415277632904,0
184,201.26944444444445,1.0722222222222229,1.0972222222222285,1.0694444444444429,1.0025974025974047,0.030425183035928186,1.2243126411627117,38.888888888888886,1.0769230768932543,1.0259740259740333,1.4067207205005425e-18,0.9748361617402035,0
185,202.36666666666667,1.0972222222222285,1.0472222222222172,1.0694444444444429,1.0259740259740333,0.031934811237342944,1.285060242525217,41.666666666666664,1.153846153814201,0.979220779220776,2.4011617196871e-17,0.9705226054794511,0
186,203.4138888888889,1.0472222222222172,1.0527777777777771,1.0625,0.985620915032675,0.03104629737144138,1.2493063488974592,36.111111111111114,0.9999999999723078,0.9908496732026137,7.519250439119333e-17,0.9644919917487891,0
187,204.46666666666667,1.0527777777777771,1.0472222222222172,1.0625,0.9908496732026137,0.029774355755735456,1.1981232813349478,36.111111111111114,0.9999999999723078,0.985620915032675,1.934056678045663e-20,0.9804718062522757,0
188,205.51388888888889,1.0472222222222172,1.13611111111112,1.0527777777777771,0.9947229551451146,0.03293403080174414,1.3252689453799822,38.888888888888886,1.0769230768932543,1.079155672823228,4.359826302063885e-13,0.9517461990751769,0
189,206.65,1.13611111111112,1.1111111111111143,1.0527777777777771,1.079155672823228,0.030979403845747256,1.246614546221283,38.888888888888886,1.0769230768932543,1.0554089709762569,9.12173743610278e-20,0.9752382618599327,0
190,207.76111111111112,1.1111111111111143,1.125,1.0625,1.045751633986931,0.03121300814998368,1.2560148085752987,38.888888888888886,1.0769230768932543,1.0588235294117647,3.5907057360920236e-19,0.9775446264440043,0
191,208.88611111111112,1.125,1.0833333333333144,1.0847222222222257,1.0371318822023015,0.031132942273063003,1.252792949067535,36.111111111111114,0.9999999999723078,0.9987195902688654,8.618952321922856e-18,0.9585212677504045,0
192,209.96944444444443,1.0833333333333144,1.0361111111111256,1.0902777777777715,0.993630573248396,0.031206835914757494,1.2557664371652493,36.111111111111114,0.9999999999723078,0.9503184713375984,2.3056097857919146e-17,0.961730489934662,0
193,211.00555555555556,1.0361111111111256,1.1833333333333371,1.0777777777777686,0.9613402061855887,0.03126460680668778,1.2580911440765592,72.22222222222223,1.9999999999446156,1.0979381443299097,1.0602196898190641e-10,0.9707938061507464,0
194,212.1888888888889,1.1833333333333371,1.1277777777777658,1.0902777777777715,1.0853503184713473,0.029824401455270117,1.2001371256725073,77.77777777777777,2.1538461537865086,1.0343949044585936,7.408983843104622e-11,0.9462957839464067,0
195,213.31666666666666,1.1277777777777658,1.1166666666666742,1.0972222222222143,1.0278481012658192,0.028883419187422266,1.1622718979013005,36.111111111111114,0.9999999999723078,1.017721518987356,5.738013372683622e-21,0.9716177077012985,0
196,214.43333333333334,1.1166666666666742,1.1111111111111143,1.1138888888888943,1.0024937655860369,0.03349871343070788,1.3479918351673306,41.666666666666664,1.153846153814201,0.9975062344139631,9.358505986418997e-16,0.9649171211451608,0
197,215.54444444444445,1.1111111111111143,1.055555555555543,1.1138888888888943,0.9975062344139631,0.02964027071380282,1.1927276848110056,36.111111111111114,0.9999999999723078,0.9476309226932509,5.59584737561191e-19,0.9628531286923941,0
198,216.6,1.055555555555543,1.0833333333333428,1.1138888888888943,0.9476309226932509,0.029163919591792372,1.1735592643738715,72.22222222222223,1.9999999999446156,0.9725685785536198,4.1665439544716354e-13,0.975012718356194,0
199,217.68333333333334,1.0833333333333428,1.1472222222222115,1.1111111111111143,0.9750000000000058,0.03300398478835956,1.3280839013331427,41.666666666666664,1.153846153814201,1.0324999999999873,2.2173693003252337e-12,0.9441551604774558,0
200,218.83055555555555,1.1472222222222115,1.0999999999999943,1.1138888888888943,1.0299251870324044,0.028184768359989877,1.1341581133835807,72.22222222222223,1.9999999999446156,0.9875311720698156,2.0610314670210794e-13,0.9588627159393576,0
201,219.93055555555554,1.0999999999999943,1.1111111111111143,1.1055555555555543,0.9949748743718553,0.029961119880690723,1.2056386898315345,38.888888888888886,1.0769230768932543,1.0050251256281446,5.402224168999765e-20,0.9779466388384512,0
202,221.04166666666666,1.1111111111111143,1.0388888888888914,1.1111111111111143,1.0,0.030217221904105446,1.2159442628275534,38.888888888888886,1.0769230768932543,0.9349999999999996,1.1428577565167928e-18,0.9660763849676843,0
203,222.08055555555555,1.0388888888888914,1.0333333333333314,1.1111111111111143,0.9349999999999996,0.027245632384385522,1.0963671806110376,66.66666666666667,1.846153846102722,0.9299999999999956,1.1448754601346852e-15,0.979703337543243,0
204,223.11388888888888,1.0333333333333314,0.5333333333333314,1.1055555555555543,0.9346733668341702,0.03036509513306786,1.2218946974821108,38.888888888888886,1.0769230768932543,0.48241206030150635,1.2554430349447008e-17,0.9673383561646307,0
205,223.6472222222222,0.5333333333333314,1.6611111111111256,1.0916666666666686,0.4885496183206081,0.035467608126256704,1.4272203697017687,88.88888888888889,2.4615384614702958,1.521628498727746,0.9993143081665039,0.9093774041190168,1
206,225.30833333333334,1.6611111111111256,1.063888888888897,1.0916666666666686,1.521628498727746,0.03054619669967259,1.2291822440209996,75.0,2.076923076865562,0.9745547073791407,7.888477785755489e-22,0.9573774806088295,0
207,226.37222222222223,1.063888888888897,1.0638888888888687,1.07361111111112,0.990944372574385,0.03140123530123523,1.263589089407568,38.888888888888886,1.0769230768932543,0.9909443725743585,4.944430090760605e-17,0.9691304820863289,0
208,227.4361111111111,1.0638888888888687,1.0527777777777771,1.07361111111112,0.9909443725743585,0.031252408951934395,1.257600301087973,72.22222222222223,1.9999999999446156,0.9805950840879603,9.16035823583794e-12,0.9709305526962234,0
209,228.48888888888888,1.0527777777777771,1.01111111111112,1.0638888888888829,0.9895561357702399,0.02618638090730492,1.0537427871265796,36.111111111111114,0.9999999999723078,0.9503916449086298,3.0666506660448345e-12,0.8140980024560739,0
210,229.5,1.01111111111112,1.055555555555543,1.058333333333323,0.9553805774278393,0.023025371760741237,0.9265434387315731,33.333333333333336,0.923076923051361,0.9973753280839874,1.5086718766627039e-12,0.8066422917556115,0
211,230.55555555555554,1.055555555555543,1.080555555555577,1.05416666666666,1.0013175230566478,0.03402725159991942,1.3692602680026746,38.888888888888886,1.0769230768932543,1.0250329380764431,8.004060196749319e-14,0.9551854860969053,0
212,231.63611111111112,1.080555555555577,1.0194444444444457,1.05416666666666,1.0250329380764431,0.028753089935567383,1.1570274347744627,38.888888888888886,1.0769230768932543,0.96706192358367,2.167734029791221e-21,0.9790807893418769,0
213,232.65555555555557,1.0194444444444457,1.0416666666666572,1.05416666666666,0.96706192358367,0.034633803519576324,1.393667982555469,75.0,2.076923076865562,0.9881422924901158,9.445373194694184e-08,0.9639930461793147,0
214,233.69722222222222,1.0416666666666572,1.0083333333333258,1.05416666666666,0.9881422924901158,0.031165587478456054,1.254106595647372,69.44444444444444,1.9230769230236686,0.9565217391304336,2.523029745196692e-12,0.9733526098530848,0
215,234.70555555555555,1.0083333333333258,1.0305555555555657,1.05416666666666,0.9565217391304336,0.031501939643927605,1.2676414430000729,66.66666666666667,1.846153846102722,0.9776021080369064,4.33952943024174e-11,0.9676426291924185,0
216,235.73611111111111,1.0305555555555657,1.11388888888888,1.0472222222222172,0.9840848806366191,0.03174679402250872,1.2774944095569838,38.888888888888886,1.0769230768932543,1.0636604774535776,3.0711342083698117e-16,0.9737478400581537,0
217,236.85,1.11388888888888,1.0777777777777828,1.0472222222222172,1.0636604774535776,0.034576659332650146,1.3913684943209998,41.666666666666664,1.153846153814201,1.029177718832901,3.0678686316603504e-15,0.9610569535149474,0
218,237.92777777777778,1.0777777777777828,1.0500000000000114,1.0472222222222172,1.029177718832901,0.030993012961257022,1.2471621784946525,69.44444444444444,1.9230769230236686,1.002652519893915,1.6209753808324456e-12,0.9691646277775747,0
219,238.9777777777778,1.0500000000000114,1.0694444444444287,1.0458333333333343,1.00398406374503,0.034973559089349585,1.407339783263706,72.22222222222223,1.9999999999446156,1.0225763612217635,6.876732960847676e-09,0.964826335818687,0
220,240.04722222222222,1.0694444444444287,1.0138888888888857,1.0527777777777771,1.0158311345646294,0.032445463895544396,1.3056089604718304,72.22222222222223,1.9999999999446156,0.9630606860158287,2.2499231644435014e-11,0.9712142999439535,0
221,241.0611111111111,1.0138888888888857,0.9833333333333485,1.0458333333333343,0.9694555112881768,0.03292429583676661,1.324877209341149,69.44444444444444,1.9230769230236686,0.9402390438247148,5.78047998356368e-10,0.9667973770937868,0
222,242.04444444444445,0.9833333333333485,1.2805555555555372,1.0361111111111114,0.9490616621984057,0.03545058477033695,1.4265353480266991,88.88888888888889,2.4615384614702958,1.2359249329758533,0.9995126724243164,0.8916875124834099,1
223,243.325,1.2805555555555372,1.0916666666666686,1.0458333333333343,1.2244355909694369,0.027054619741057405,1.0886808112777007,38.888888888888886,1.0769230768932543,1.04382470119522,1.4302083841360915e-27,0.9821466452994765,0
224,244.41666666666666,1.0916666666666686,1.1055555555555543,1.05972222222222,1.0301441677588505,0.032527250484410346,1.3089000616135364,41.666666666666664,1.153846153814201,1.0432503276539984,1.8641871680087066e-16,0.9709048695235285,0
225,245.5222222222222,1.1055555555555543,1.0555555555555713,1.0736111111111057,1.0297542043984516,0.03289176463857588,1.323568150423408,36.111111111111114,0.9999999999723078,0.9831824062095927,8.962022834001264e-17,0.9596451099316904,0
226,246.57777777777778,1.0555555555555713,0.5166666666666515,1.0736111111111057,0.9831824062095927,0.03133481889005419,1.2609164858707682,66.66666666666667,1.846153846102722,0.4812419146183583,2.3313124434404253e-12,0.9638422288065114,0
227,247.09444444444443,0.5166666666666515,1.0888888888889028,1.0625,0.4862745098039073,0.033492012351264124,1.3477221830090267,80.55555555555556,2.230769230707456,1.0248366013072026,0.9970607161521912,0.923386027635693,1
228,248.18333333333334,1.0888888888889028,1.563888888888897,1.0625,1.0248366013072026,0.03155905236907895,1.2699396652093353,38.888888888888886,1.0769230768932543,1.471895424836609,1.4810181347361256e-13,0.9741930012490108,0
229,249.74722222222223,1.563888888888897,1.0833333333333144,1.0791666666666657,1.449163449163458,0.03100104579772358,1.2474854206989405,36.111111111111114,0.9999999999723078,1.0038610038609872,1.0617464968202226e-27,0.9572076832176593,0
230,250.83055555555555,1.0833333333333144,1.1083333333333485,1.0861111111111086,0.9974424552429516,0.029880168698134018,1.2023812055296585,72.22222222222223,1.9999999999446156,1.0204603580562823,1.388520917168512e-12,0.9699743398371352,0
231,251.9388888888889,1.1083333333333485,0.6277777777777658,1.0902777777777857,1.0165605095541466,0.032044897721511735,1.2894901345008822,38.888888888888886,1.0769230768932543,0.5757961783439338,2.202151452806794e-18,0.96823810727617,0
232,252.56666666666666,0.6277777777777658,1.4972222222222342,1.0902777777777857,0.5757961783439338,0.03310767180128296,1.3322562778968798,80.55555555555556,2.230769230707456,1.3732484076433131,0.9991501569747925,0.9079819812316512,1
233,254.0638888888889,1.4972222222222342,1.1416666666666515,1.0902777777777857,1.3732484076433131,0.031317017889492996,1.2602001716916003,38.888888888888886,1.0769230768932543,1.047133757961762,1.686658108849201e-26,0.9665860334934497,0
234,255.20555555555555,1.1416666666666515,1.1027777777777885,1.0972222222222285,1.0405063291139043,0.03374207698470843,1.3577848107826067,41.666666666666664,1.153846153814201,1.0050632911392445,1.9028040949057447e-17,0.9735842963199277,0
235,256.30833333333334,1.1027777777777885,1.080555555555577,1.0958333333333456,1.0063371356147006,0.03345814623806277,1.3463594069675318,38.888888888888886,1.0769230768932543,0.9860583016476637,5.102161853045892e-17,0.9710501329691323,0
236,257.3888888888889,1.080555555555577,0.8472222222221717,1.0958333333333456,0.9860583016476637,0.03439425953706563,1.3840287069081876,38.888888888888886,1.0769230768932543,0.7731305449936081,3.041997916110599e-15,0.9587600328639432,0
237,258.2361111111111,0.8472222222221717,1.2916666666666856,1.0958333333333456,0.7731305449936081,0.031283051524185986,1.2588333614945797,72.22222222222223,1.9999999999446156,1.1787072243346048,0.9962427616119385,0.8979168981901862,1
238,259.52777777777777,1.2916666666666856,1.1444444444444457,1.1055555555555685,1.168341708542717,0.03049850424292141,1.2272630944264147,36.111111111111114,0.9999999999723078,1.0351758793969739,2.1559390257125673e-23,0.9692235784270391,0
239,260.6722222222222,1.1444444444444457,1.1583333333333599,1.1055555555555685,1.0351758793969739,0.03512279729761019,1.4133451448321859,41.666666666666664,1.153846153814201,1.0477386934673485,4.859874828277598e-15,0.9613352819339118,0
240,261.8305555555556,1.1583333333333599,1.0805555555555202,1.125,1.0296296296296532,0.03332957292879896,1.3411856031596165,72.22222222222223,1.9999999999446156,0.9604938271604624,4.729706643696874e-12,0.9712265504764866,0
241,262.9111111111111,1.0805555555555202,0.625,1.12222222222222,0.9628712871286832,0.032856278758230974,1.3221401947776605,69.44444444444444,1.9230769230236686,0.556930693069308,1.527939857970395e-10,0.9604970706664167,0
242,263.5361111111111,0.625,1.51111111111112,1.12222222222222,0.556930693069308,0.03382875872508184,1.3612728933480207,80.55555555555556,2.230769230707456,1.346534653465357,0.9989983439445496,0.8936695095568722,1
243,265.0472222222222,1.51111111111112,1.1305555555555884,1.12222222222222,1.346534653465357,0.02854124301856991,1.1485026920255013,72.22222222222223,1.9999999999446156,1.0074257425742887,2.5842134097599185e-22,0.9679306903720877,0
244,266.1777777777778,1.1305555555555884,1.1388888888888573,1.1166666666666885,1.0124378109452832,0.02923299951445513,1.1763390478994689,72.22222222222223,1.9999999999446156,1.0199004975123895,5.286479804259003e-13,0.9646745911983974,0
245,267.31666666666666,1.1388888888888573,1.0972222222222285,1.1347222222222229,1.0036719706242065,0.03188680650955387,1.2831285271104456,38.888888888888886,1.0769230768932543,0.96695226438189,5.029749469606265e-18,0.9680553899070099,0
246,268.4138888888889,1.0972222222222285,1.0638888888888687,1.1347222222222229,0.96695226438189,0.02893604294994802,1.1643894837711946,36.111111111111114,0.9999999999723078,0.9375764993879866,2.2928895987874697e-19,0.9649125850383811,0
247,269.47777777777776,1.0638888888888687,1.0944444444444343,1.1347222222222229,0.9375764993879866,0.03267742153414884,1.3149429608235232,38.888888888888886,1.0769230768932543,0.9645042839657189,1.1532250344726852e-16,0.9743964623197579,0
248,270.5722222222222,1.0944444444444343,1.036111111111154,1.1138888888889085,0.9825436408977293,0.031116771909837006,1.2521422519103016,36.111111111111114,0.9999999999723078,0.9301745635910447,1.7208509953598028e-17,0.9608390485251858,0
249,271.60833333333335,1.036111111111154,1.1388888888888573,1.0958333333333314,0.9455006337136023,0.02997312142266024,1.2061216331725615,38.888888888888886,1.0769230768932543,1.0392902408111264,1.7264917881109856e-18,0.9802240625324246,0
250,272.7472222222222,1.1388888888888573,1.11388888888888,1.0958333333333314,1.0392902408111264,0.034338539739293024,1.3817865362466184,41.666666666666664,1.153846153814201,1.0164765525982193,1.753994830779558e-14,0.9520624234891881,0
251,273.8611111111111,1.11388888888888,1.0861111111111086,1.1055555555555543,1.0075376884422043,0.027827510734516163,1.1197820280695587,36.111111111111114,0.9999999999723078,0.9824120603015064,9.950647913335875e-23,0.9783289794838732,0
252,274.9472222222222,1.0861111111111086,1.0583333333333371,1.1055555555555543,0.9824120603015064,0.03428764716922555,1.379738613747638,77.77777777777777,2.1538461537865086,0.9572864321608086,1.2635275936645485e-08,0.9645089499206292,0
253,276.00555555555553,1.0583333333333371,1.0444444444444798,1.0958333333333314,0.9657794676806135,0.029935447308020554,1.2046056227431907,38.888888888888886,1.0769230768932543,0.953105196451238,8.5575156015758e-20,0.9801219665631864,0
254,277.05,1.0444444444444798,1.125,1.0902777777777715,0.9579617834395284,0.0321673392083534,1.2944171931143338,38.888888888888886,1.0769230768932543,1.0318471337579678,2.6483027196991943e-15,0.9669802264389752,0
255,278.175,1.125,1.0722222222221944,1.0902777777777715,1.0318471337579678,0.03440084497574086,1.3842937056695153,38.888888888888886,1.0769230768932543,0.9834394904458401,1.9282408582712608e-16,0.9643802913975816,0
256,279.2472222222222,1.0722222222221944,1.1583333333333599,1.0791666666666515,0.9935649935649817,0.03400402758787597,1.3683257312575796,75.0,2.076923076865562,1.073359073359113,0.06654566526412964,0.9092761764303153,0
257,280.40555555555557,1.1583333333333599,1.0805555555555202,1.0902777777777715,1.0624203821656355,0.0312171670982355,1.2561821651007348,72.22222222222223,1.9999999999446156,0.991082802547744,7.122465594741612e-13,0.966793858677214,0
258,281.4861111111111,1.0805555555555202,1.0722222222222513,1.0833333333333144,0.9974358974358822,0.031272342453610096,1.2584024273415892,38.888888888888886,1.0769230768932543,0.9897435897436339,1.4451548404822064e-17,0.9697652918073836,0
259,282.55833333333334,1.0722222222222513,1.080555555555577,1.0833333333333144,0.9897435897436339,0.03210841648377901,1.2920461363334104,38.888888888888886,1.0769230768932543,0.9974358974359347,7.940976232156428e-16,0.9624530319946961,0
260,283.6388888888889,1.080555555555577,1.1416666666666515,1.0805555555555486,1.0000000000000262,0.033718443441533054,1.35683379446067,41.666666666666664,1.153846153814201,1.056555269922872,2.8763947163511477e-15,0.9703540489451632,0
261,284.78055555555557,1.1416666666666515,1.125,1.0805555555555486,1.056555269922872,0.03170225053334108,1.2757019747570015,41.666666666666664,1.153846153814201,1.0411311053984642,8.28639345563265e-18,0.9692194648995881,0
262,285.90555555555557,1.125,1.11388888888888,1.0805555555555486,1.0411311053984642,0.028891377364835696,1.1625921358172522,36.111111111111114,0.9999999999723078,1.0308483290488417,3.056109044008267e-21,0.9735208609047765,0
263,287.01944444444445,1.11388888888888,0.9583333333333144,1.0972222222222285,1.0151898734177076,0.03266791294640767,1.3145603342290546,75.0,2.076923076865562,0.873417721518965,2.7895556958118517e-12,0.9773441339069662,0
264,287.97777777777776,0.9583333333333144,1.0777777777777828,1.0972222222222285,0.873417721518965,0.03358874306272084,1.3516146372527784,80.55555555555556,2.230769230707456,0.9822784810126571,0.995293915271759,0.9011118943530515,1
265,289.05555555555554,1.0777777777777828,1.2833333333333599,1.0805555555555486,0.9974293059126075,0.03315544355779562,1.334178618522405,38.888888888888886,1.0769230768932543,1.1876606683804949,5.7806525815022256e-15,0.9728924305854927,0
266,290.3388888888889,1.2833333333333599,1.1194444444444116,1.0972222222222285,1.1696202531645743,0.032803852580944176,1.3200305597590556,38.888888888888886,1.0769230768932543,1.0202531645569262,1.2325824770001201e-20,0.9640614889711008,0
267,291.4583333333333,1.1194444444444116,1.1000000000000227,1.0972222222222285,1.0202531645569262,0.032602734803815266,1.3119375587535824,41.666666666666664,1.153846153814201,1.0025316455696351,6.25724016913739e-17,0.9697852748564163,0
268,292.55833333333334,1.1000000000000227,0.5472222222222172,1.1069444444444514,0.9937264742785589,0.034641077288829,1.3939606798133437,75.0,2.076923076865562,0.4943538268506824,1.3770126705558994e-10,0.9730019107716275,0
269,293.10555555555555,0.5472222222222172,1.544444444444423,1.1069444444444514,0.4943538268506824,0.033495095124251376,1.3478462341259476,86.11111111111111,2.3846153845493494,1.3952321204516658,0.9985259175300598,0.917936405930885,1
270,294.65,1.544444444444423,1.1750000000000114,1.1166666666666458,1.3830845771144344,0.027583633516542826,1.1099683825607127,72.22222222222223,1.9999999999446156,1.052238805970179,2.2697399799928928e-20,0.9463396718047068,0
271,295.825,1.1750000000000114,1.1333333333333258,1.1166666666666458,1.052238805970179,0.03657696106955163,1.4718608515809801,80.55555555555556,2.230769230707456,1.0149253731343406,0.036794062703847885,0.7694951065949049,0
272,296.9583333333333,1.1333333333333258,1.0500000000000114,1.1166666666666458,1.0149253731343406,0.03424205986285867,1.3779041756311732,33.333333333333336,0.923076923051361,0.9402985074627143,1.0707058156755878e-10,0.7773890082612983,0
273,298.0083333333333,1.0500000000000114,0.6222222222222058,1.1097222222222172,0.9461827284105276,0.03224629009613801,1.2975941853392146,36.111111111111114,0.9999999999723078,0.5607008760951067,2.7509944001859047e-16,0.959505452203647,0
274,298.63055555555553,0.6222222222222058,1.4972222222222626,1.1097222222222172,0.5607008760951067,0.035250345530168994,1.4184776994431245,86.11111111111111,2.3846153845493494,1.3491864831039224,0.999326229095459,0.9014411219254385,1
275,300.1277777777778,1.4972222222222626,1.0277777777777715,1.1263888888888687,1.3292231812577662,0.022026334603609355,0.8863420759649643,30.555555555555557,0.8461538461304142,0.91245376078916,6.407685534015935e-30,0.9212147979136954,0
276,301.15555555555557,1.0277777777777715,1.1527777777777715,1.1097222222222172,0.9261576971214003,0.029274367757211768,1.1780037104420025,41.666666666666664,1.153846153814201,1.0387984981226523,1.1116680628331724e-15,0.9650669103079856,0
277,302.30833333333334,1.1527777777777715,1.080555555555577,1.1166666666666742,1.0323383084576987,0.031992686714029085,1.2873891579383627,41.666666666666664,1.153846153814201,0.9676616915423012,6.2523220013693334e-18,0.9677341621261111,0
278,303.3888888888889,1.080555555555577,0.5222222222221831,1.1069444444444514,0.9761606022584826,0.03368493654105898,1.3554854731779962,41.666666666666664,1.153846153814201,0.4717691342534121,4.9233180195434184e-15,0.9603154151578532,0
279,303.9111111111111,0.5222222222221831,1.525000000000034,1.1069444444444514,0.4717691342534121,0.03444248310666234,1.3859692285408602,83.33333333333333,2.307692307628402,1.3776662484316406,0.988695502281189,0.9406349240371716,1
280,305.43611111111113,1.525000000000034,1.0472222222222172,1.1069444444444514,1.3776662484316406,0.024692345665770124,0.993622648148496,69.44444444444444,1.9230769230236686,0.9460476787954726,5.257666299215293e-22,0.9389060081196245,0
281,306.48333333333335,1.0472222222222172,0.9916666666666742,1.0652777777777942,0.9830508474576072,0.03217994740793208,1.2949245484228704,69.44444444444444,1.9230769230236686,0.9308996088657033,2.2207817182429146e-11,0.9704233420880142,0
282,307.475,0.9916666666666742,1.1055555555555543,1.0486111111111143,0.9456953642384149,0.03533407525683729,1.4218469926592092,38.888888888888886,1.0769230768932543,1.054304635761585,7.641342419928421e-11,0.9503671259072421,0
283,308.5805555555556,1.1055555555555543,1.0583333333333371,1.063888888888897,1.0391644908616096,0.03238926175518148,1.3033473802924946,38.888888888888886,1.0769230768932543,0.9947780678851134,1.0924263991822007e-16,0.9617540507931781,0
284,309.6388888888889,1.0583333333333371,1.0527777777777487,1.069444444444457,0.9896103896103815,0.03229979339593269,1.2997471638835076,41.666666666666664,1.153846153814201,0.9844155844155457,6.32205105391523e-15,0.961354119173091,0
285,310.69166666666666,1.0527777777777487,0.9861111111111427,1.055555555555543,0.997368421052616,0.03023688201387561,1.2167353877614555,69.44444444444444,1.9230769230236686,0.9342105263158306,0.00015736467321403325,0.8034168213698316,0
286,311.6777777777778,0.9861111111111427,0.9944444444444116,1.055555555555543,0.9342105263158306,0.030510300139866713,1.2277377625895258,38.888888888888886,1.0769230768932543,0.9421052631578749,1.4764504248647621e-15,0.9649863422133808,0
287,312.6722222222222,0.9944444444444116,0.98888888888888,1.049999999999983,0.9470899470899312,0.03075703135313089,1.237666253176157,72.22222222222223,1.9999999999446156,0.9417989417989486,4.127174990653515e-11,0.9720602504336944,0
288,313.6611111111111,0.98888888888888,1.091666666666697,1.0208333333333144,0.9687074829932066,0.03569955138369303,1.436553791353708,44.44444444444444,1.2307692307351479,1.0693877551020903,4.206826553776466e-11,0.9616959357266923,0
289,314.7527777777778,1.091666666666697,1.033333333333303,1.049999999999983,1.0396825396825855,0.02767442357015859,1.11362178409333,38.888888888888886,1.0769230768932543,0.9841269841269712,1.1523859332666207e-22,0.9810084097207301,0
290,315.7861111111111,1.033333333333303,1.0416666666666856,1.04027777777776,0.9933244325767567,0.030673170412120632,1.234291679880824,72.22222222222223,1.9999999999446156,1.0013351134846815,1.212924942775584e-12,0.977858371306549,0
291,316.8277777777778,1.0416666666666856,1.0416666666666856,1.0374999999999943,1.004016064257052,0.02934338726061441,1.1807810626900674,38.888888888888886,1.0769230768932543,1.004016064257052,4.0093276269383327e-20,0.980846474015612,0
292,317.86944444444447,1.0416666666666856,1.0166666666666515,1.0416666666666856,1.0,0.03113065265100685,1.2527008144294778,41.666666666666664,1.153846153814201,0.9759999999999677,4.8267249365722696e-17,0.9721478373207668,0
293,318.8861111111111,1.0166666666666515,1.055555555555543,1.0374999999999943,0.9799196787148502,0.02556908588380595,1.0289027689184997,33.333333333333336,0.923076923051361,1.0174029451137818,4.1789903677292714e-21,0.9668657836171428,0
294,319.94166666666666,1.055555555555543,1.1222222222222058,1.0374999999999943,1.0174029451137818,0.034449454817355785,1.3862497709297894,44.44444444444444,1.2307692307351479,1.0816599732262284,1.163933749728785e-12,0.9592981468619277,0
295,321.06388888888887,1.1222222222222058,1.0666666666666629,1.0374999999999943,1.0816599732262284,0.03065664347932505,1.2336266343257198,38.888888888888886,1.0769230768932543,1.0281124497991987,1.6913859585708996e-20,0.9780466291406948,0
296,322.13055555555553,1.0666666666666629,1.02222222222224,1.0416666666666856,1.0239999999999778,0.032748447030127845,1.317801034428841,33.333333333333336,0.923076923051361,0.9813333333333325,2.4632704209714973e-10,0.7908509522979602,0
297,323.15277777777777,1.02222222222224,1.02222222222224,1.0416666666666856,0.9813333333333325,0.029803056211793987,1.1992781907768433,38.888888888888886,1.0769230768932543,0.9813333333333325,2.7814264410961796e-16,0.9606563828173905,0
298,324.175,1.02222222222224,1.0083333333333258,1.0416666666666856,0.9813333333333325,0.03055616187917667,1.2295832439171677,38.888888888888886,1.0769230768932543,0.9679999999999751,4.880971006873676e-19,0.9816344838442683,0
299,325.18333333333334,1.0083333333333258,1.0833333333333144,1.0374999999999943,0.9718875502008012,0.030889351024685322,1.2429908110060077,41.666666666666664,1.153846153814201,1.0441767068272967,3.515180907753834e-16,0.974573491860711,0
300,326.26666666666665,1.0833333333333144,1.102777777777817,1.0416666666666856,1.039999999999963,0.03210937015870347,1.2920845123150502,41.666666666666664,1.153846153814201,1.058666666666685,5.897586538661866e-16,0.9666999709419943,0
301,327.36944444444447,1.102777777777817,1.055555555555543,1.0486111111111143,1.051655629139107,0.0322572989524188,1.2980371829012471,41.666666666666664,1.153846153814201,1.0066225165562763,5.869640539451782e-17,0.9679671633802732,0
302,328.425,1.055555555555543,1.055555555555543,1.055555555555543,1.0,0.031044732721196885,1.249243387203159,38.888888888888886,1.0769230768932543,1.0,5.658249984420487e-18,0.9742251349312747,0
303,329.48055555555555,1.055555555555543,1.0777777777777828,1.055555555555543,1.0,0.03362091157911601,1.352909101816017,38.888888888888886,1.0769230768932543,1.0210526315789643,9.130777155143179e-15,0.9614579756370607,0
304,330.55833333333334,1.0777777777777828,1.0361111111110972,1.061111111111103,1.0157068062827352,0.03007463882048138,1.2102067041909872,36.111111111111114,0.9999999999723078,0.9764397905759107,1.4310319916808278e-20,0.9782258022899912,0
305,331.59444444444443,1.0361111111110972,1.1388888888889142,1.055555555555543,0.9815789473684197,0.0341095695948758,1.3725727529826746,38.888888888888886,1.0769230768932543,1.0789473684210895,1.0725048507718299e-13,0.9627184366839898,0
306,332.73333333333335,1.1388888888889142,1.1277777777777374,1.055555555555543,1.0789473684210895,0.0364558496421719,1.4669873147034804,44.44444444444444,1.2307692307351479,1.0684210526315534,1.3517690656064674e-12,0.9497625486064083,0
307,333.8611111111111,1.1277777777777374,1.0500000000000114,1.0666666666666629,1.0572916666666325,0.03325060631784023,1.3380079782325163,36.111111111111114,0.9999999999723078,0.9843750000000142,1.0626316182158366e-16,0.9551192739953207,0
308,334.9111111111111,1.0500000000000114,1.055555555555543,1.0666666666666629,0.9843750000000142,0.02998319869676886,1.2065271437676852,38.888888888888886,1.0769230768932543,0.989583333333325,1.0503507364949609e-18,0.9749229952313434,0
309,335.96666666666664,1.055555555555543,1.0277777777778283,1.0666666666666629,0.989583333333325,0.02990429821705633,1.2033521799690523,38.888888888888886,1.0769230768932543,0.9635416666667175,3.921538793431715e-18,0.9688842967441809,0
310,336.99444444444447,1.0277777777778283,1.077777777777726,1.055555555555543,0.9736842105263753,0.031536061008504375,1.269014490384397,72.22222222222223,1.9999999999446156,1.0210526315789106,3.952984606314658e-09,0.9565027633867037,0
311,338.0722222222222,1.077777777777726,1.0888888888889028,1.055555555555543,1.0210526315789106,0.030457584325086273,1.2256164725269922,38.888888888888886,1.0769230768932543,1.0315789473684465,1.659572959273507e-17,0.9665869795994224,0
312,339.1611111111111,1.0888888888889028,0.42500000000001137,1.0666666666666345,1.0208333333333772,0.03617890269641846,1.4558429397882355,80.55555555555556,2.230769230707456,0.3984375000000227,0.8794934153556824,0.8992892152553321,1
313,339.5861111111111,0.42500000000001137,1.5722222222222513,1.0666666666666345,0.3984375000000227,0.04595392662669409,1.8491909551928492,97.22222222222223,2.692307692233136,1.473958333333405,0.9990353584289551,0.880349070415156,1
314,341.15833333333336,1.5722222222222513,1.033333333333303,1.0666666666666345,1.473958333333405,0.029546666903620462,1.188961057411199,72.22222222222223,1.9999999999446156,0.9687500000000009,1.3070553034895353e-22,0.9659156497101085,0
315,342.19166666666666,1.033333333333303,0.9750000000000227,1.0666666666666345,0.9687500000000009,0.02973500859588603,1.1965399473862048,38.888888888888886,1.0769230768932543,0.914062500000049,8.659615280065044e-19,0.9736716263499479,0
316,343.1666666666667,0.9750000000000227,1.0499999999999545,1.0527777777777771,0.9261213720316844,0.03402307155656093,1.369092062607875,38.888888888888886,1.0769230768932543,0.9973614775725168,6.346372039001125e-11,0.9470673860619224,0
317,344.21666666666664,1.0499999999999545,1.0861111111111654,1.049999999999983,0.9999999999999729,0.0326559565777197,1.314079208665741,38.888888888888886,1.0769230768932543,1.034391534391603,6.488735279473615e-15,0.9610186944072614,0
318,345.3027777777778,1.0861111111111654,0.9972222222222058,1.0527777777777487,1.0316622691293678,0.0320087048535462,1.2880337295971611,41.666666666666664,1.153846153814201,0.9472295514511979,4.801675260646204e-17,0.968067454331007,0
319,346.3,0.9972222222222058,1.0166666666666515,1.0416666666666288,0.9573333333333524,0.0331971984694775,1.3358588406641219,38.888888888888886,1.0769230768932543,0.976000000000021,3.9263063693296615e-14,0.9634939522192725,0
320,347.31666666666666,1.0166666666666515,1.0027777777777942,1.0416666666666288,0.976000000000021,0.03180875407734321,1.279987688834595,38.888888888888886,1.0769230768932543,0.9626666666667174,8.005479823968917e-14,0.9504854641233438,0
321,348.31944444444446,1.0027777777777942,1.0027777777777374,1.0249999999999773,0.9783197831978697,0.02994978165008378,1.2051824382111547,72.22222222222223,1.9999999999446156,0.9783197831978142,5.14359431783018e-12,0.9731058728584164,0
322,349.3222222222222,1.0027777777777374,1.0611111111111313,1.0097222222222229,0.9931224209077998,0.03172427782417403,1.2765883553117379,38.888888888888886,1.0769230768932543,1.0508940852820001,1.8695301247850446e-14,0.9617012780485554,0
323,350.3833333333333,1.0611111111111313,1.0833333333333144,1.0249999999999773,1.0352303523035657,0.029127666522610982,1.1721004369667427,72.22222222222223,1.9999999999446156,1.056910569105696,7.641050986384457e-11,0.954265773915205,0
324,351.46666666666664,1.0833333333333144,1.0416666666666856,1.0249999999999773,1.056910569105696,0.03198309230367126,1.2870030778325598,41.666666666666664,1.153846153814201,1.016260162601667,6.02175733356461e-16,0.9608697416425496,0
325,352.5083333333333,1.0416666666666856,1.0166666666666515,1.0291666666666686,1.012145748987871,0.030816511727880625,1.240059749860177,72.22222222222223,1.9999999999446156,0.9878542510121292,1.462392359985465e-11,0.9682953392093931,0
326,353.525,1.0166666666666515,1.0277777777778283,1.0291666666666686,0.9878542510121292,0.028124753179557566,1.1317430960613128,36.111111111111114,0.9999999999723078,0.9986504723347301,1.8667042786127054e-18,0.9647825250398008,0
327,354.5527777777778,1.0277777777778283,1.0472222222222172,1.02222222222224,1.0054347826087278,0.02979996044356133,1.1991536167298482,38.888888888888886,1.0769230768932543,1.0244565217391077,9.440355077897201e-18,0.9708369159897743,0
328,355.6,1.0472222222222172,1.0722222222221944,1.02222222222224,1.0244565217391077,0.03053571947415283,1.2287606393380301,38.888888888888886,1.0769230768932543,1.0489130434782155,1.0143144766242872e-16,0.965931635541231,0
329,356.6722222222222,1.0722222222221944,1.0944444444444343,1.034722222222257,1.0362416107381933,0.030101539164400736,1.211289176926589,36.111111111111114,0.9999999999723078,1.057718120805324,4.328246957011788e-18,0.9667726772083868,0
330,357.76666666666665,1.0944444444444343,1.0444444444444798,1.0444444444444514,1.0478723404255152,0.031244977007145888,1.2573012388295062,41.666666666666664,1.153846153814201,1.0000000000000273,1.1859765692298976e-15,0.9525726109290733,0
331,358.81111111111113,1.0444444444444798,0.9972222222222058,1.0458333333333485,0.9986719787516793,0.025938020997549473,1.0437487576177824,69.44444444444444,1.9230769230236686,0.9535192563080714,4.803178254436657e-13,0.952850893619589,0
332,359.80833333333334,0.9972222222222058,1.033333333333303,1.0458333333333485,0.9535192563080714,0.03036451752483058,1.2218714544644529,38.888888888888886,1.0769230768932543,0.988047808764897,6.259078495330728e-17,0.97296365243749,0
333,360.84166666666664,1.033333333333303,1.069444444444457,1.0430555555555827,0.9906790945405577,0.027803383325136842,1.118811138518402,33.333333333333336,0.923076923051361,1.0252996005326085,7.104728727473084e-18,0.9555354941232216,0
334,361.9111111111111,1.069444444444457,1.091666666666697,1.0430555555555827,1.0252996005326085,0.03171344514595937,1.2761524471740548,36.111111111111114,0.9999999999723078,1.0466045272969393,1.0183932711375617e-16,0.9641837257878724,0
335,363.0027777777778,1.091666666666697,0.9305555555555429,1.0458333333333485,1.043824701195233,0.028938719353257456,1.1644971825285273,75.0,2.076923076865562,0.8897742363877572,9.070951997348919e-13,0.9635471475444771,0
336,363.93333333333334,0.9305555555555429,1.2138888888889028,1.0458333333333485,0.8897742363877572,0.034673635138481436,1.395270811188773,77.77777777777777,2.1538461537865086,1.1606905710491333,0.9988786578178406,0.908972603975454,1
337,365.14722222222224,1.2138888888889028,1.0388888888888914,1.0583333333333371,1.146981627296597,0.02489353039993447,1.001718343512284,72.22222222222223,1.9999999999446156,0.9816272965879254,1.4141894996874063e-17,0.9576995868768788,0
338,366.18611111111113,1.0388888888888914,0.9944444444444116,1.0569444444444684,0.9829172141918329,0.03088916418384125,1.2429832925103257,36.111111111111114,0.9999999999723078,0.9408672798948228,3.106908909594893e-16,0.9568378077014681,0
339,367.18055555555554,0.9944444444444116,1.1111111111111427,1.0416666666666856,0.9546666666666178,0.031697334156787126,1.2755041392351374,38.888888888888886,1.0769230768932543,1.0666666666666775,7.505961286270301e-15,0.9705275062222318,0
340,368.2916666666667,1.1111111111111427,1.0583333333333371,1.0416666666666856,1.0666666666666775,0.031937290888046053,1.2851600239364873,41.666666666666664,1.153846153814201,1.0159999999999851,2.1714888683879946e-16,0.9597995855920259,0
341,369.35,1.0583333333333371,1.0777777777777828,1.0486111111111143,1.0092715231788085,0.030507327042885057,1.2276181248468787,58.333333333333336,1.6153846153398816,1.0278145695364256,2.3510826849815203e-06,0.8966147268387001,0
342,370.4277777777778,1.0777777777777828,1.044444444444423,1.063888888888897,1.0130548302872031,0.031129748299803545,1.2526644232396877,38.888888888888886,1.0769230768932543,0.9817232375978835,8.218212101026231e-17,0.9618681807365419,0
343,371.47222222222223,1.044444444444423,0.6499999999999773,1.063888888888897,0.9817232375978835,0.03091487470615341,1.2440178866963492,36.111111111111114,0.9999999999723078,0.6109660574412272,5.791263522051158e-17,0.955991995119708,0
344,372.1222222222222,0.6499999999999773,1.455555555555577,1.05138888888888,0.6182298546895476,0.03391130555051996,1.3645945864912434,80.55555555555556,2.230769230707456,1.3844121532364917,0.9995573163032532,0.9065884891273771,1
345,373.5777777777778,1.455555555555577,1.0861111111111086,1.05138888888888,1.3844121532364917,0.02470206528300314,0.9940137665924373,27.77777777777778,0.7692307692094675,1.0330250990753036,7.878768510977578e-21,0.7871644853415256,0
346,374.6638888888889,1.0861111111111086,1.069444444444457,1.06805555555556,1.0169050715214498,0.030818274390808316,1.2401306796061686,38.888888888888886,1.0769230768932543,1.0013003901170427,1.1003976244167414e-17,0.9670273789631567,0
347,375.73333333333335,1.069444444444457,1.10277777777776,1.063888888888897,1.0052219321148865,0.031072623545388818,1.2503657169715718,72.22222222222223,1.9999999999446156,1.0365535248041529,4.007073318990084e-12,0.9728765145209499,0
348,376.8361111111111,1.10277777777776,1.0138888888889142,1.07361111111112,1.0271668822768185,0.0382937033275947,1.540942744881617,33.333333333333336,0.923076923051361,0.9443725743855268,2.3725088560411223e-09,0.7560492718135701,0
349,377.85,1.0138888888889142,0.9833333333332916,1.07361111111112,0.9443725743855268,0.031596025333573904,1.271427461281391,36.111111111111114,0.9999999999723078,0.915912031047819,2.2428488001557684e-15,0.9588102447967843,0
350,378.8333333333333,0.9833333333332916,1.091666666666697,1.063888888888897,0.9242819843341573,0.028028391509733828,1.127865492092606,33.333333333333336,0.923076923051361,1.026109660574433,1.0445938530807093e-16,0.9591615847123356,0
351,379.925,1.091666666666697,1.11388888888888,1.07361111111112,1.0168175937904467,0.032287702632466414,1.2992606302598448,38.888888888888886,1.0769230768932543,1.0375161707632432,2.691064542766617e-15,0.9567037101481626,0
352,381.0388888888889,1.11388888888888,1.0472222222222172,1.0777777777777828,1.0335051546391623,0.029294956652306248,1.1788322097973547,38.888888888888886,1.0769230768932543,0.9716494845360732,2.6529774429913988e-20,0.9712353406250422,0
353,382.0861111111111,1.0472222222222172,1.1083333333333485,1.0777777777777828,0.9716494845360732,0.029335188722838745,1.1804511526472605,36.111111111111114,0.9999999999723078,1.0283505154639268,6.571300629952951e-18,0.9669628817307856,0
354,383.19444444444446,1.1083333333333485,1.044444444444423,1.0888888888889028,1.0178571428571437,0.02984518351450495,1.200973397973665,36.111111111111114,0.9999999999723078,0.9591836734693558,1.9805191868705677e-19,0.9661468959737585,0
355,384.2388888888889,1.044444444444423,1.0388888888888914,1.0777777777777828,0.9690721649484292,0.029673708132499123,1.194073210139461,36.111111111111114,0.9999999999723078,0.9639175257731937,2.183647629299136e-18,0.9686033727620124,0
356,385.27777777777777,1.0388888888888914,1.1222222222222058,1.0583333333333371,0.9816272965879254,0.028950734558018092,1.1649806756617398,77.77777777777777,2.1538461537865086,1.0603674540682222,9.96506273054365e-08,0.9402154047875778,0
357,386.4,1.1222222222222058,1.1222222222222626,1.069444444444457,1.0493506493506215,0.02974267717224142,1.1968485317244006,36.111111111111114,0.9999999999723078,1.0493506493506748,2.4486591335634157e-18,0.9594559043707991,0
358,387.52222222222224,1.1222222222222626,1.0666666666666629,1.069444444444457,1.0493506493506748,0.03179692009046249,1.2795114879283815,38.888888888888886,1.0769230768932543,0.9974025974025821,3.896293654726903e-18,0.9682862759578306,0
359,388.5888888888889,1.0666666666666629,1.0833333333333144,1.07916666666668,0.9884169884169728,0.030659037732328392,1.2337229793243571,38.888888888888886,1.0769230768932543,1.0038610038609739,4.3405720573266686e-15,0.950162590006874,0
360,389.6722222222222,1.0833333333333144,0.9055555555555657,1.0875000000000057,0.9961685823754562,0.03179179125925654,1.2793051032084466,69.44444444444444,1.9230769230236686,0.8326947637292514,4.7301754527162565e-12,0.9686958348674863,0
361,390.5777777777778,0.9055555555555657,1.2138888888889028,1.0749999999999886,0.8423772609819304,0.03536709174340995,1.4231755796336887,77.77777777777777,2.1538461537865086,1.1291989664082935,0.9995852112770081,0.9055411843829932,1
362,391.7916666666667,1.2138888888889028,1.13611111111112,1.0749999999999886,1.1291989664082935,0.028412617407375957,1.1433267835822858,38.888888888888886,1.0769230768932543,1.0568475452196577,7.939853456613275e-24,0.9774941803705537,0
363,392.9277777777778,1.13611111111112,1.0916666666666401,1.0958333333333314,1.0367553865652823,0.028719469377089857,1.1556745398814927,77.77777777777777,2.1538461537865086,0.9961977186311562,1.2241029023751793e-10,0.9468393851720238,0
364,394.01944444444445,1.0916666666666401,1.055555555555543,1.0874999999999773,1.0038314176245178,0.02900613080364918,1.1672098265502984,38.888888888888886,1.0769230768932543,0.9706257982120138,1.5457621647851637e-21,0.9816844846486527,0
365,395.075,1.055555555555543,1.0666666666666629,1.0874999999999773,0.9706257982120138,0.03443222921582778,1.3855566108696689,75.0,2.076923076865562,0.9808429118774117,3.863926067992907e-09,0.9703201485377979,0
366,396.14166666666665,1.0666666666666629,1.01111111111112,1.0874999999999773,0.9808429118774117,0.031335056026392305,1.2609260282625459,36.111111111111114,0.9999999999723078,0.9297573435504746,2.6479867896447582e-17,0.9641136486937736,0
367,397.15277777777777,1.01111111111112,1.1111111111111427,1.0749999999999886,0.9405684754522146,0.03397606067277993,1.3672003395829933,41.666666666666664,1.153846153814201,1.0335917312661902,3.7643360515293364e-14,0.973938775367458,0
368,398.2638888888889,1.1111111111111427,1.1333333333333258,1.0749999999999886,1.0335917312661902,0.031170127332274263,1.2542892798538103,38.888888888888886,1.0769230768932543,1.054263565891477,5.0354537071104304e-17,0.9632725365808322,0
369,399.39722222222224,1.1333333333333258,1.0694444444444002,1.0874999999999773,1.0421455938697466,0.034394416008663116,1.3840350033421172,41.666666666666664,1.153846153814201,0.983397190293722,1.0801076152184771e-15,0.9615269405453306,0
370,400.46666666666664,1.0694444444444002,1.0750000000000455,1.0805555555555202,0.9897172236503771,0.03193640454386341,1.2851243573511473,38.888888888888886,1.0769230768932543,0.9948586118252675,1.5096359845981035e-16,0.9678960799465872,0
371,401.5416666666667,1.0750000000000455,1.0833333333333144,1.0833333333333428,0.9923076923077256,0.032467781017985774,1.3065070038816955,72.22222222222223,1.9999999999446156,0.9999999999999738,1.2965324126812394e-11,0.9743742417435364,0
372,402.625,1.0833333333333144,1.0500000000000114,1.07916666666668,1.0038610038609739,0.033730263581712085,1.3573094381741166,75.0,2.076923076865562,0.9729729729729716,1.7139332175730715e-09,0.9643726126121097,0
373,403.675,1.0500000000000114,0.6555555555555657,1.0722222222222229,0.9792746113989738,0.0311071564037982,1.2517553229120246,38.888888888888886,1.0769230768932543,0.611398963730579,7.05828770595706e-19,0.9755931342393567,0
374,404.3305555555556,0.6555555555555657,1.6333333333333258,1.0680555555555316,0.6137841352405954,0.034516263811420415,1.3889381720440934,83.33333333333333,2.307692307628402,1.5292587776333173,0.9996656179428101,0.9065859711860766,1
375,405.9638888888889,1.6333333333333258,1.055555555555543,1.0722222222222229,1.523316062176158,0.025282698415613526,1.0173785063638743,69.44444444444444,1.9230769230236686,0.9844559585492104,1.7576450345624557e-14,0.7617489423688324,0
376,407.01944444444445,1.055555555555543,1.10277777777776,1.0722222222222229,0.9844559585492104,0.029906365413195368,1.2034353641642566,69.44444444444444,1.9230769230236686,1.0284974093264079,6.840117664982936e-13,0.9725393968815559,0
377,408.1222222222222,1.10277777777776,1.02222222222224,1.07916666666668,1.0218790218789928,0.03017103087766561,1.214085530950352,38.888888888888886,1.0769230768932543,0.9472329472329519,1.0058936947534482e-19,0.9725875052795456,0
378,409.14444444444445,1.02222222222224,0.6416666666666515,1.0722222222222229,0.9533678756476843,0.030273847965756735,1.218222901645176,36.111111111111114,0.9999999999723078,0.5984455958549078,1.947570075681349e-18,0.9686943925009524,0
379,409.7861111111111,0.6416666666666515,1.6416666666667084,1.0624999999999716,0.6039215686274528,0.035760566946514354,1.4390090641710183,86.11111111111111,2.3846153845493494,1.545098039215767,0.999743640422821,0.8958212411824095,1
380,411.4277777777778,1.6416666666667084,1.0583333333332803,1.0652777777777942,1.5410691003911496,0.025335300511598713,1.0194952203698433,30.555555555555557,0.8461538461304142,0.9934810951759453,4.823470441223427e-23,0.7805601208612608,0
381,412.4861111111111,1.0583333333332803,1.0638888888889255,1.0569444444444116,1.0013140604467614,0.03133594046109767,1.2609616180103143,41.666666666666664,1.153846153814201,1.0065703022339687,2.7502595991041616e-16,0.9678540537996354,0
382,413.55,1.0638888888889255,1.0583333333333371,1.0569444444444116,1.0065703022339687,0.03305815046648467,1.3302635340527689,38.888888888888886,1.0769230768932543,1.0013140604468151,3.238856843381971e-15,0.9603923181243904,0
383,414.60833333333335,1.0583333333333371,0.7722222222221831,1.0583333333333087,1.0000000000000269,0.0336449869688385,1.353877898090582,38.888888888888886,1.0769230768932543,0.7296587926508986,2.8022914036858948e-15,0.95863142983453,0
384,415.38055555555553,0.7722222222221831,1.39722222222224,1.0583333333333087,0.7296587926508986,0.03458935473489194,1.3918793586740892,80.55555555555556,2.230769230707456,1.3202099737533284,0.999815046787262,0.9042081438971445,1
385,416.77777777777777,1.39722222222224,1.150000000000034,1.0583333333333087,1.3202099737533284,0.03156378664443057,1.270130172959211,41.666666666666664,1.153846153814201,1.086614173228404,6.9978480177447045e-22,0.9547231597033661,0
386,417.9277777777778,1.150000000000034,1.0416666666666288,1.0611111111111313,1.0837696335078648,0.03239017716354098,1.3033842164234404,38.888888888888886,1.0769230768932543,0.9816753926701026,1.3230410617831468e-17,0.9589612073676084,0
387,418.96944444444443,1.0416666666666288,1.0888888888889028,1.0583333333333087,0.9842519685039242,0.029245038477945882,1.1768234970865392,36.111111111111114,0.9999999999723078,1.0288713910761527,2.0344160146931137e-15,0.9470720404623777,0
388,420.05833333333334,1.0888888888889028,1.0027777777777942,1.0611111111111313,1.0261780104711977,0.01734701492479787,0.6980457482799279,27.77777777777778,0.7692307692094675,0.9450261780104687,7.394919702883635e-23,0.9080688639614911,0
389,421.06111111111113,1.0027777777777942,1.0722222222221944,1.0611111111111313,0.9450261780104687,0.023226465903833773,0.9346354887008779,52.77777777777778,1.4615384614979883,1.0104712041884363,1.1081049855476977e-08,0.7187283336009944,0
390,422.1333333333333,1.0722222222221944,1.0944444444444343,1.0611111111111313,1.0104712041884363,0.02485555002813637,1.0001900092618847,55.55555555555556,1.538461538418935,1.0314136125654159,8.861483991040586e-09,0.6596387510662151,0
391,423.22777777777776,1.0944444444444343,1.091666666666697,1.06805555555556,1.0247074122236535,0.019470265115037293,0.7834855645397533,50.0,1.3846153845770415,1.022106631989621,7.116549103486358e-12,0.8019877045561361,0
392,424.31944444444446,1.091666666666697,0.9916666666666742,1.0805555555555486,1.010282776349649,0.03107442001455383,1.2504380070841927,33.333333333333336,0.923076923051361,0.9177377892030978,1.6752601042502313e-11,0.8170358802000652,0
393,425.31111111111113,0.9916666666666742,1.0972222222222285,1.0805555555555486,0.9177377892030978,0.024975411088862573,1.0050132312506226,27.77777777777778,0.7692307692094675,1.015424164524434,1.2861217828035419e-14,0.9030724659740381,0
394,426.40833333333336,1.0972222222222285,0.9944444444444116,1.0902777777777999,1.0063694267515777,0.020165261950381888,0.8114523120224446,30.555555555555557,0.8461538461304142,0.9121019108279769,4.11823887927801e-20,0.9068492199619802,0
395,427.40277777777777,0.9944444444444116,1.125,1.0805555555555486,0.920308483290464,0.021326107370470467,0.8581648567118878,22.22222222222222,0.6153846153675739,1.0411311053984642,3.3047289016240435e-15,0.8522300021462799,0
396,428.52777777777777,1.125,1.1111111111111427,1.0805555555555486,1.0411311053984642,0.025124636922955152,1.011018094881249,33.333333333333336,0.923076923051361,1.0282776349614755,9.807022679836006e-14,0.8153830973401677,0
397,429.6388888888889,1.1111111111111427,0.9166666666666288,1.0902777777777999,1.0191082802547853,0.022408484909392016,0.9017198454147458,30.555555555555557,0.8461538461304142,0.8407643312101393,6.711444671258982e-19,0.8989801449681174,0
398,430.55555555555554,0.9166666666666288,1.1750000000000114,1.0819444444444457,0.8472400513478459,0.03434816138850756,1.3821737124469482,83.33333333333333,2.307692307628402,1.0860077021822943,0.9992621541023254,0.9028951095973274,1
399,431.73055555555555,1.1750000000000114,1.0138888888889142,1.0930555555555657,1.0749682337992381,0.02432173329768452,0.9787091665539025,30.555555555555557,0.8461538461304142,0.927573062261768,6.97026853366912e-16,0.7663187967852187,0
400,432.74444444444447,1.0138888888889142,1.0666666666666629,1.0930555555555657,0.927573062261768,0.027805834818860592,1.1189097868897915,63.888888888888886,1.769230769181775,0.975857687420572,7.146589770705772e-14,0.969565375809965,0
401,433.81111111111113,1.0666666666666629,1.0694444444444002,1.07916666666668,0.9884169884169728,0.03454716997591082,1.3901818394307703,33.333333333333336,0.923076923051361,0.9909909909909378,1.359904189257577e-09,0.7656614784906413,0
402,434.88055555555553,1.0694444444444002,1.0750000000000455,1.0680555555555316,1.0013003901170163,0.027094815245351404,1.0902982826982321,33.333333333333336,0.923076923051361,1.0065019505852408,1.0613024216895252e-17,0.943519637884448,0
403,435.9555555555556,1.0750000000000455,1.0638888888888687,1.0722222222222229,1.0025906735751713,0.03079546249585234,1.2392127264970452,72.22222222222223,1.9999999999446156,0.9922279792745919,4.303950425221803e-12,0.9698926814200601,0
404,437.01944444444445,1.0638888888888687,1.0361111111110972,1.0680555555555316,0.9960988296488982,0.02891981919653212,1.1637366381869712,36.111111111111114,0.9999999999723078,0.9700910273082013,4.7491701160210075e-19,0.9657305163219021,0
405,438.05555555555554,1.0361111111110972,1.0500000000000114,1.0680555555555316,0.9700910273082013,0.03275039997607196,1.3178796211839006,77.77777777777777,2.1538461537865086,0.9830949284785763,2.3561179673947663e-08,0.9625157666843417,0
406,439.10555555555555,1.0500000000000114,1.1083333333333485,1.0652777777777658,0.9856584093872447,0.027662212333376252,1.113130402610458,72.22222222222223,1.9999999999446156,1.0404172099087612,9.430242773732916e-14,0.97280493465227,0
407,440.2138888888889,1.1083333333333485,1.1333333333333258,1.0652777777777658,1.0404172099087612,0.03261938531105671,1.312607576957693,38.888888888888886,1.0769230768932543,1.0638852672751027,1.0659405391893957e-16,0.9673577323500968,0
408,441.34722222222223,1.1333333333333258,1.0638888888888687,1.0680555555555316,1.061118335500667,0.026872239679729088,1.0813418179734824,72.22222222222223,1.9999999999446156,0.9960988296488982,6.366515929896732e-13,0.9483278764097076,0
409,442.4111111111111,1.0638888888888687,1.1000000000000227,1.0652777777777658,0.9986962190351943,0.03329495072464776,1.3397924019368934,44.44444444444444,1.2307692307351479,1.0325945241199808,2.9466809173912464e-14,0.9657391132125251,0
410,443.5111111111111,1.1000000000000227,1.0611111111110745,1.0680555555555316,1.029908972691852,0.029731997257268893,1.1964187707960285,36.111111111111114,0.9999999999723078,0.9934980494148125,6.136722683584435e-19,0.9640822968101148,0
411,444.5722222222222,1.0611111111110745,0.5888888888889028,1.0666666666666345,0.9947916666666624,0.03172655943619525,1.2766801676251267,38.888888888888886,1.0769230768932543,0.552083333333363,7.260737472542423e-18,0.9702412036416852,0
412,445.1611111111111,0.5888888888889028,1.6666666666666856,1.0638888888888687,0.5535248041775692,0.03570723093039403,1.4368628171397924,86.11111111111111,2.3846153845493494,1.5665796344647995,0.9996417760848999,0.8949699010371401,1
413,446.8277777777778,1.6666666666666856,1.11388888888888,1.0638888888888687,1.5665796344647995,0.02470780213948687,0.9942446183150144,33.333333333333336,0.923076923051361,1.0469973890339541,1.982859566782403e-22,0.7506936718678876,0
414,447.94166666666666,1.11388888888888,1.169444444444423,1.0819444444444457,1.0295250320924167,0.028367564498073105,1.1415138496612145,36.111111111111114,0.9999999999723078,1.0808729139922768,1.2542461873163979e-17,0.952430917550386,0
415,449.1111111111111,1.169444444444423,1.0500000000000114,1.1041666666666856,1.0591194968553084,0.032528863882043964,1.3089649849080234,72.22222222222223,1.9999999999446156,0.9509433962264091,8.621290908195078e-05,0.7777266656712083,0
416,450.1611111111111,1.0500000000000114,1.1333333333333258,1.1041666666666856,0.9509433962264091,0.028800654204846583,1.1589414260913735,36.111111111111114,0.9999999999723078,1.0264150943395982,7.75418323267199e-16,0.9496383663488537,0
417,451.2944444444444,1.1333333333333258,1.1750000000000114,1.1069444444444514,1.0238393977415174,0.030529185014541115,1.228497691979707,38.888888888888886,1.0769230768932543,1.061480552070267,1.35511338261729e-10,0.8061895155865249,0
418,452.46944444444443,1.1750000000000114,1.1722222222222172,1.1069444444444514,1.061480552070267,0.03020582694328557,1.215485728377297,72.22222222222223,1.9999999999446156,1.05897114178167,4.709588392870501e-05,0.7895545350147324,0
419,453.64166666666665,1.1722222222222172,1.125,1.123611111111103,1.043263288009892,0.028861914644214816,1.1614065527672968,38.888888888888886,1.0769230768932543,1.001236093943147,3.0158835498395042e-12,0.8197020359747264,0
420,454.76666666666665,1.125,1.080555555555577,1.1291666666666629,0.9963099630996344,0.02979601504997464,1.19899485366713,72.22222222222223,1.9999999999446156,0.9569495694957172,0.0001272850640816614,0.7865676662653782,0
421,455.84722222222223,1.080555555555577,0.6750000000000114,1.1291666666666629,0.9569495694957172,0.03239450909573874,1.3035585338414855,36.111111111111114,0.9999999999723078,0.5977859778597907,2.4327222996506934e-16,0.9556436083918736,0
422,456.52222222222224,0.6750000000000114,1.5916666666666401,1.1291666666666629,0.5977859778597907,0.032039450660747947,1.2892709441892771,80.55555555555556,2.230769230707456,1.4095940959409405,0.9989751577377319,0.9152256665382904,1
423,458.1138888888889,1.5916666666666401,1.1833333333333371,1.1291666666666629,1.4095940959409405,0.02456834322291181,0.9886327764968705,36.111111111111114,0.9999999999723078,1.047970479704804,3.864282889232154e-30,0.9409158006253802,0
424,459.2972222222222,1.1833333333333371,1.11388888888888,1.1513888888888744,1.0277442702050825,0.030783880104266685,1.2387466498125939,72.22222222222223,1.9999999999446156,0.9674306393244919,1.0877385797636308e-11,0.9540447264168928,0
425,460.4111111111111,1.11388888888888,1.1194444444444684,1.1291666666666629,0.9864698646986425,0.03153360283667021,1.2689155732851254,36.111111111111114,0.9999999999723078,0.9913899138991635,1.5703000872337625e-16,0.9557371800677005,0
426,461.53055555555557,1.1194444444444684,1.1166666666666742,1.1291666666666629,0.9913899138991635,0.02951896344054464,1.1878462670742713,38.888888888888886,1.0769230768932543,0.988929889298903,4.4144753246325817e-17,0.9530027287793551,0
427,462.64722222222224,1.1166666666666742,1.055555555555543,1.1222222222222342,0.9950495049504912,0.02097090521111309,0.8438714835756936,38.888888888888886,1.0769230768932543,0.9405940594059192,1.0338885239860544e-19,0.9243545266516684,0
428,463.7027777777778,1.055555555555543,1.1916666666666629,1.1180555555555713,0.9440993788819629,0.03191816630549355,1.2843904486754827,41.666666666666664,1.153846153814201,1.0658385093167517,4.2590362660244185e-12,0.9456995749222208,0
429,464.89444444444445,1.1916666666666629,1.13611111111112,1.1180555555555713,1.0658385093167517,0.030216366307780743,1.2159098335393277,38.888888888888886,1.0769230768932543,1.016149068322975,1.0638022183693275e-19,0.9641177811758339,0
430,466.03055555555557,1.13611111111112,1.0666666666666629,1.1180555555555713,1.016149068322975,0.028073424431766088,1.1296776217237567,27.77777777777778,0.7692307692094675,0.9540372670807284,7.305817057009709e-14,0.7517505358462258,0
431,467.09722222222223,1.0666666666666629,1.1194444444444116,1.1180555555555713,0.9540372670807284,0.03205037278915412,1.2897104518122975,38.888888888888886,1.0769230768932543,1.0012422360248012,9.310262589633418e-15,0.9575267708732982,0
432,468.21666666666664,1.1194444444444116,1.0027777777777942,1.11944444444444,0.9999999999999746,0.026103130643551475,1.0503927875498107,66.66666666666667,1.846153846102722,0.8957816377171398,2.317722023418428e-13,0.9428981651472697,0
433,469.21944444444443,1.0027777777777942,1.2194444444444343,1.118055555555543,0.896894409937913,0.03339077981417378,1.3436485748170786,66.66666666666667,1.846153846102722,1.090683229813668,0.010034490376710892,0.9158497932588063,0
434,470.43888888888887,1.2194444444444343,1.1388888888889142,1.118055555555543,1.090683229813668,0.02998196560989521,1.2064775242191264,38.888888888888886,1.0769230768932543,1.018633540372705,1.1782649165802985e-16,0.9318423693023556,0
435,471.5777777777778,1.1388888888889142,1.0861111111111086,1.11944444444444,1.0173697270471729,0.030730783060580424,1.236610019057844,38.888888888888886,1.0769230768932543,0.9702233250620363,5.173950625021715e-19,0.968284288691438,0
436,472.6638888888889,1.0861111111111086,1.0833333333333144,1.118055555555543,0.9714285714285802,0.02878008330016094,1.1581136506720098,38.888888888888886,1.0769230768932543,0.9689440993788759,9.619569754666255e-19,0.9658816643584435,0
437,473.7472222222222,1.0833333333333144,1.0527777777778056,1.10277777777776,0.9823677581863965,0.02783465691526654,1.1200695911523637,72.22222222222223,1.9999999999446156,0.9546599496222068,1.0415307505340365e-11,0.9534177951541722,0
438,474.8,1.0527777777778056,0.8138888888888687,1.10277777777776,0.9546599496222068,0.02926860733539571,1.1777719104479152,63.888888888888886,1.769230769181775,0.7380352644836207,2.065298236250679e-12,0.9556305271592644,0
439,475.6138888888889,0.8138888888888687,1.4277777777778056,1.0847222222222115,0.7503201024327673,0.03315994643056245,1.334359814607354,75.0,2.076923076865562,1.316261203585186,0.9997466206550598,0.9140257327690642,1
440,477.0416666666667,1.4277777777778056,1.0777777777777828,1.0847222222222115,1.316261203585186,0.030739696227339942,1.2369686858479034,72.22222222222223,1.9999999999446156,0.9935979513444447,2.4680915500267258e-17,0.9530937947171563,0
441,478.11944444444447,1.0777777777777828,1.0861111111111086,1.0847222222222115,0.9935979513444447,0.02951147892296779,1.187545089281141,38.888888888888886,1.0769230768932543,1.0012804097311216,1.4496603278426602e-17,0.9626572285106318,0
442,479.2055555555556,1.0861111111111086,1.0833333333333144,1.0847222222222115,1.0012804097311216,0.02926526621747368,1.1776374635030036,36.111111111111114,0.9999999999723078,0.9987195902688785,1.7350607071727873e-19,0.9688737456503508,0
443,480.2888888888889,1.0833333333333144,1.0500000000000114,1.0847222222222115,0.9987195902688785,0.03182569534474948,1.2806694072590434,33.333333333333336,0.923076923051361,0.9679897567221711,8.798301670553954e-11,0.7716501347231379,0
444,481.3388888888889,1.0500000000000114,1.1111111111110858,1.0833333333333144,0.9692307692307967,0.03205087225316697,1.2897305502979504,38.888888888888886,1.0769230768932543,1.0256410256410202,8.294448683443534e-09,0.803519271534771,0
445,482.45,1.1111111111110858,1.1444444444444457,1.0833333333333144,1.0256410256410202,0.023263401067476316,0.9361217636625627,30.555555555555557,0.8461538461304142,1.056410256410276,1.5612853485101955e-14,0.8265896352964424,0
446,483.59444444444443,1.1444444444444457,1.025000000000034,1.0833333333333144,1.056410256410276,0.034687923372739786,1.3958457712737045,75.0,2.076923076865562,0.9461538461538942,0.0017514984356239438,0.8002107131357061,0
447,484.61944444444447,1.025000000000034,1.0944444444444343,1.0805555555555486,0.9485861182519657,0.027106305775727698,1.0907606628777284,72.22222222222223,1.9999999999446156,1.0128534704370151,8.146670005260148e-10,0.9447075557397602,0
448,485.7138888888889,1.0944444444444343,1.0583333333333371,1.0847222222222115,1.0089628681177985,0.0290834957854254,1.1703230017466513,36.111111111111114,0.9999999999723078,0.9756722151088479,1.0420593207771667e-11,0.7961501919603218,0
449,486.77222222222224,1.0583333333333371,1.0972222222222285,1.0847222222222115,0.9756722151088479,0.02831040159672866,1.1392136083565394,30.555555555555557,0.8461538461304142,1.0115236875800415,1.7301394395453852e-16,0.9381128292919596,0
450,487.86944444444447,1.0972222222222285,1.1499999999999773,1.0847222222222115,1.0115236875800415,0.031505963514865655,1.2678033639998592,38.888888888888886,1.0769230768932543,1.0601792573623454,3.8044288949557847e-16,0.9619774891297879,0
451,489.01944444444445,1.1499999999999773,1.1611111111110972,1.0902777777777715,1.0547770700636796,0.03328983145591149,1.3395864020117678,38.888888888888886,1.0769230768932543,1.0649681528662354,6.82479486014293e-16,0.9568155760935901,0
452,490.18055555555554,1.1611111111110972,1.102777777777817,1.0958333333333314,1.0595690747781894,0.032743033894618086,1.3175832092731106,75.0,2.076923076865562,1.0063371356147397,0.0005107800825498998,0.7801059355355505,0
453,491.28333333333336,1.102777777777817,0.5916666666666401,1.1000000000000227,1.0025252525252675,0.03319326780548888,1.3357006703220158,33.333333333333336,0.923076923051361,0.5378787878787527,2.0513095666530035e-09,0.7743139365218544,0
454,491.875,0.5916666666666401,1.580555555555577,1.1000000000000227,0.5378787878787527,0.033667861988502155,1.3547983913447388,83.33333333333333,2.307692307628402,1.4368686868686766,0.9990803003311157,0.8995558435614188,1
455,493.4555555555556,1.580555555555577,1.1888888888888687,1.1000000000000227,1.4368686868686766,0.021038915937569288,0.8466082425308215,30.555555555555557,0.8461538461304142,1.08080808080804,4.267230654114069e-24,0.8064260469889077,0
456,494.64444444444445,1.1888888888888687,1.13611111111112,1.1000000000000227,1.08080808080804,0.027216131595788114,1.095180065701608,33.333333333333336,0.923076923051361,1.0328282828282696,4.389202082301022e-14,0.8076355977218135,0
457,495.78055555555557,1.13611111111112,1.0777777777777828,1.1194444444444684,1.0148883374689688,0.02797428046327611,1.1256880577571577,69.44444444444444,1.9230769230236686,0.9627791563275273,1.3853774084946618e-13,0.9570792346445243,0
458,496.85833333333335,1.0777777777777828,0.6277777777777374,1.1194444444444684,0.9627791563275273,0.0315566937847614,1.2698447555224546,38.888888888888886,1.0769230768932543,0.5607940446649643,4.2917523604996013e-16,0.9536929613123439,0
459,497.4861111111111,0.6277777777777374,1.536111111111154,1.1194444444444684,0.5607940446649643,0.034303023431784006,1.380357356208511,83.33333333333333,2.307692307628402,1.3722084367245746,0.9991891980171204,0.897134222374445,1
460,499.02222222222224,1.536111111111154,1.158333333333303,1.1430555555555486,1.343863912515234,0.025939866027921022,1.0438230018385828,27.77777777777778,0.7692307692094675,1.013365735115411,3.4638821763737107e-22,0.8085650984694488,0
461,500.18055555555554,1.158333333333303,1.1333333333333258,1.1472222222222115,1.009685230024196,0.030813376049958843,1.2399335698429947,75.0,2.076923076865562,0.9878934624697363,0.0003705960407387465,0.776132237202579,0
462,501.31388888888887,1.1333333333333258,1.0027777777777942,1.1347222222222229,0.9987760097919144,0.02901913783688953,1.1677332309683222,38.888888888888886,1.0769230768932543,0.8837209302325721,1.2598989559964302e-11,0.7948100350313168,0
463,502.31666666666666,1.0027777777777942,1.0944444444444343,1.1347222222222229,0.8837209302325721,0.03134207195599883,1.2612083500252984,38.888888888888886,1.0769230768932543,0.9645042839657189,9.744567721909746e-16,0.9735443593113211,0
464,503.4111111111111,1.0944444444444343,1.0388888888888914,1.1347222222222229,0.9645042839657189,0.027770480930385737,1.117487142611106,33.333333333333336,0.923076923051361,0.9155446756425966,1.290396999294201e-18,0.9487215666583391,0
465,504.45,1.0388888888888914,1.0777777777777828,1.11388888888888,0.932668329177067,0.026621597416025735,1.0712559462960867,38.888888888888886,1.0769230768932543,0.9675810473815584,4.492632779864301e-20,0.9711803292654753,0
466,505.52777777777777,1.0777777777777828,1.0972222222222285,1.0861111111111086,0.9923273657289072,0.028163539076916926,1.1333038447470258,38.888888888888886,1.0769230768932543,1.0102301790281412,1.6418776220965582e-18,0.9632350737377919,0
467,506.625,1.0972222222222285,1.125,1.0861111111111086,1.0102301790281412,0.026842868686120548,1.0801599260283796,69.44444444444444,1.9230769230236686,1.0358056265984679,4.659894974230749e-13,0.9543368219453394,0
468,507.75,1.125,1.0861111111111086,1.0958333333333314,1.0266159695817507,0.03180752778363086,1.2799383426435782,41.666666666666664,1.153846153814201,0.9911280101394164,8.88369726723474e-18,0.9703884630501132,0
469,508.8361111111111,1.0861111111111086,0.7916666666666856,1.0958333333333314,0.9911280101394164,0.029504962520662554,1.187282868550775,69.44444444444444,1.9230769230236686,0.7224334600760641,7.998245564522222e-05,0.766277540142839,0
470,509.6277777777778,0.7916666666666856,1.2444444444444116,1.0902777777777715,0.7261146496815503,0.032219342486216815,1.2965098106146096,72.22222222222223,1.9999999999446156,1.1414012738853268,0.9991078972816467,0.9116507570483793,1
471,510.8722222222222,1.2444444444444116,1.080555555555577,1.0902777777777715,1.1414012738853268,0.02362094974984408,0.9505095611373388,33.333333333333336,0.923076923051361,0.9910828025477961,4.267604112917871e-17,0.789619383861994,0
472,511.9527777777778,1.080555555555577,1.1416666666666515,1.0833333333333428,0.9974358974359085,0.03210667970020574,1.291976247975427,41.666666666666664,1.153846153814201,1.0538461538461306,3.0615324016984146e-15,0.9645586800849619,0
473,513.0944444444444,1.1416666666666515,1.0416666666666288,1.0902777777777715,1.0471337579617757,0.031371921574345416,1.2624095018813926,36.111111111111114,0.9999999999723078,0.9554140127388243,1.663983534294644e-11,0.766042622606468,0
474,514.1361111111111,1.0416666666666288,0.6583333333334167,1.0833333333333428,0.9615384615384182,0.030916576412797735,1.2440863635549348,41.666666666666664,1.153846153814201,0.6076923076923794,2.768986107904525e-17,0.9699214708756705,0
475,514.7944444444445,0.6583333333334167,1.4249999999999545,1.0833333333333428,0.6076923076923794,0.03284272539256334,1.3215948058839408,77.77777777777777,2.1538461537865086,1.3153846153845619,0.9992414712905884,0.9174035433819745,1
476,516.2194444444444,1.4249999999999545,0.5222222222222399,1.0916666666666686,1.3053435114503378,0.02911433918699396,1.1715641435465955,38.888888888888886,1.0769230768932543,0.47837150127228,1.1745693988923712e-27,0.9699912080501841,0
477,516.7416666666667,0.5222222222222399,1.6055555555554974,1.0833333333333428,0.48205128205129416,0.030958126336013376,1.2457583369387,75.0,2.076923076865562,1.4820512820512155,0.900963306427002,0.9450759231070663,1
478,518.3472222222222,1.6055555555554974,1.1000000000000227,1.0833333333333428,1.4820512820512155,0.01922163511121795,0.7734806664167445,27.77777777777778,0.7692307692094675,1.0153846153846275,8.002118740900435e-26,0.7756594146407224,0
479,519.4472222222222,1.1000000000000227,1.0111111111111768,1.0902777777777999,1.0089171974522297,0.03137514962785788,1.26253939910229,36.111111111111114,0.9999999999723078,0.9273885350318886,1.280162503780602e-10,0.7572156892298487,0
480,520.4583333333334,1.0111111111111768,1.02222222222224,1.0902777777777999,0.9273885350318886,0.03097400652804433,1.2463973575758027,38.888888888888886,1.0769230768932543,0.9375796178343921,5.713540308206695e-17,0.9741879608818704,0
481,521.4805555555556,1.02222222222224,1.011111111111063,1.061111111111103,0.9633507853403382,0.030635304596943237,1.2327679554011761,72.22222222222223,1.9999999999446156,0.9528795811517946,3.168690657084916e-11,0.9691835465896596,0
482,522.4916666666667,1.011111111111063,1.0138888888889142,1.0319444444444343,0.9798115746971368,0.028971846423399193,1.1658302193977326,36.111111111111114,0.9999999999723078,0.9825033647375846,1.4152519511456847e-18,0.9698547005557937,0
483,523.5055555555556,1.0138888888889142,1.10277777777776,1.018055555555577,0.9959072305593489,0.034854581112076885,1.4025520966482163,41.666666666666664,1.153846153814201,1.083219645293275,6.683151948516652e-11,0.9488023579594878,0
484,524.6083333333333,1.10277777777776,1.0833333333333712,1.018055555555577,1.083219645293275,0.03121893611653685,1.2562533505876463,72.22222222222223,1.9999999999446156,1.064120054570274,1.0592974414302958e-11,0.9638292827496577,0
485,525.6916666666667,1.0833333333333712,1.0777777777776691,1.0527777777778056,1.0290237467018557,0.03289324967199381,1.3236279083280351,41.666666666666664,1.153846153814201,1.0237467018468356,1.0240229168028098e-15,0.9657013607968978,0
486,526.7694444444444,1.0777777777776691,1.0500000000000682,1.0499999999999545,1.0264550264549674,0.03080160113520872,1.2394597460056767,36.111111111111114,0.9999999999723078,1.0000000000001084,5.7785716763224504e-18,0.9653875289000674,0
487,527.8194444444445,1.0500000000000682,1.0083333333333258,1.0638888888888687,0.9869451697128766,0.033887335620401166,1.3636300339224858,38.888888888888886,1.0769230768932543,0.9477806788511858,5.081229101350617e-15,0.9624211784699099,0
488,528.8277777777778,1.0083333333333258,1.125,1.036111111111154,0.9731903485254215,0.026718466671933894,1.0751539755834811,33.333333333333336,0.923076923051361,1.0857908847184536,3.8432088219284295e-19,0.9664261095580841,0
489,529.9527777777778,1.125,1.1277777777777374,1.036111111111154,1.0857908847184536,0.028209806849212975,1.1351656648857444,77.77777777777777,2.1538461537865086,1.0884718498658676,1.3107132046386027e-10,0.9445845477952044,0
490,531.0805555555555,1.1277777777777374,1.0777777777777828,1.0638888888888687,1.060052219321131,0.029312853235976308,1.1795523702511146,75.0,2.076923076865562,1.0130548302872302,2.7426040835631417e-14,0.9746321972297451,0
491,532.1583333333333,1.0777777777777828,1.0972222222222854,1.077777777777726,1.0000000000000528,0.033336566600012184,1.3414670292422262,77.77777777777777,2.1538461537865086,1.0180412371135097,6.059535095914725e-09,0.9638572402199295,0
492,533.2555555555556,1.0972222222222854,1.0833333333332575,1.080555555555577,1.01542416452446,0.02879952288659594,1.1588959017231617,38.888888888888886,1.0769230768932543,1.0025706940873136,5.1721920261147304e-20,0.9714663624210422,0
493,534.3388888888888,1.0833333333332575,0.9833333333333485,1.0833333333333144,0.9999999999999475,0.04056613274629234,1.632385549356324,33.333333333333336,0.923076923051361,0.9076923076923376,4.0530245826175815e-08,0.7200440979748222,0
494,535.3222222222222,0.9833333333333485,1.1555555555555657,1.0805555555555202,0.9100257069409179,0.032013222770174064,1.2882155310486982,75.0,2.076923076865562,1.0694087403599415,9.214801366397296e-09,0.9709883768817336,0
495,536.4777777777778,1.1555555555555657,0.6666666666666288,1.0805555555555202,1.0694087403599415,0.032073209821339516,1.290629416446239,41.666666666666664,1.153846153814201,0.6169665809768489,2.9291973027169088e-18,0.9622335855797133,0
496,537.1444444444444,0.6666666666666288,1.5416666666667425,1.0805555555555202,0.6169665809768489,0.03462694915341367,1.3933921621230927,83.33333333333333,2.307692307628402,1.4267352185091142,0.9996036887168884,0.8989803996749178,1
497,538.6861111111111,1.5416666666667425,1.0416666666666288,1.0902777777777715,1.4140127388535808,0.028843785078688733,1.160677017098566,75.0,2.076923076865562,0.9554140127388243,2.8502897958526674e-11,0.7697106552662433,0
498,539.7277777777778,1.0416666666666288,1.0138888888889142,1.0902777777777715,0.9554140127388243,0.03125860789912214,1.2578497473902317,72.22222222222223,1.9999999999446156,0.9299363057325126,3.60764418338988e-10,0.9628797325765713,0
499,540.7416666666667,1.0138888888889142,1.0777777777777828,1.0805555555555202,0.9383033419023677,0.028056800118079903,1.1290086575511298,30.555555555555557,0.8461538461304142,0.9974293059126337,6.331771127561888e-17,0.948284122127033,0
500,541.8194444444445,1.0777777777777828,1.1305555555555884,1.0777777777777828,1.0,0.03321946797177813,1.3367549678343962,41.666666666666664,1.153846153814201,1.048969072164974,3.470850560086114e-12,0.9432047613995429,0
501,542.95,1.1305555555555884,1.0083333333333258,1.0805555555555202,1.0462724935733294,0.032462598495708414,1.3062984586272663,72.22222222222223,1.9999999999446156,0.93316195372753,1.1007935882267894e-11,0.9660742143603431,0
502,543.9583333333334,1.0083333333333258,1.1888888888888687,1.0597222222222058,0.9515072083879499,0.03095875000022144,1.2457834332535807,63.888888888888886,1.769230769181775,1.1218872870249,2.6961537447078854e-09,0.9518346097496481,0
503,545.1472222222222,1.1888888888888687,1.0722222222221944,1.0597222222222058,1.1218872870249,0.03443382442040293,1.3856208020735241,33.333333333333336,0.923076923051361,1.0117955439056252,9.052670071896252e-12,0.7581619454261459,0
504,546.2194444444444,1.0722222222221944,0.9944444444444116,1.0749999999999886,0.9974160206718193,0.03535490239933356,1.4226850791156613,69.44444444444444,1.9230769230236686,0.9250645994831833,0.0019124627579003572,0.7659130393740262,0
505,547.2138888888888,0.9944444444444116,1.1583333333334167,1.0569444444444116,0.9408672798948733,0.030042840505790376,1.2089271365841827,38.888888888888886,1.0769230768932543,1.0959264126150932,3.419500807185817e-14,0.9612421353359843,0
506,548.3722222222223,1.1583333333334167,1.1388888888888005,1.0749999999999886,1.0775193798450502,0.03314973562686814,1.3339489307673256,41.666666666666664,1.153846153814201,1.0594315245477326,3.129642320987133e-15,0.9518184983047089,0
507,549.5111111111111,1.1388888888888005,1.0805555555556339,1.0749999999999886,1.0594315245477326,0.031393570321946195,1.2632806498157099,38.888888888888886,1.0769230768932543,1.0051679586564142,3.509402670672069e-18,0.9640105879593258,0
508,550.5916666666667,1.0805555555556339,1.1083333333333485,1.0791666666667084,1.0012870012870352,0.029115672545258323,1.1716177980267126,36.111111111111114,0.9999999999723078,1.0270270270270014,4.5936536468137144e-18,0.9615794994815774,0
509,551.7,1.1083333333333485,1.055555555555543,1.0944444444444912,1.0126903553299198,0.03010745467076051,1.211527217539413,38.888888888888886,1.0769230768932543,0.9644670050760894,4.562394077875029e-18,0.9621508651943302,0
510,552.7555555555556,1.055555555555543,1.0972222222221717,1.0944444444444912,0.9644670050760894,0.026925173669308616,1.0834718874134217,27.77777777777778,0.7692307692094675,1.0025380710659009,2.373986652807916e-15,0.9058903252003342,0
511,553.8527777777778,1.0972222222221717,1.14722222222224,1.0888888888889028,1.0076530612244305,0.03155725889741393,1.2698674957164366,38.888888888888886,1.0769230768932543,1.0535714285714313,1.481402225796525e-17,0.9723522460298224,0
512,555.0,1.14722222222224,1.0722222222221944,1.10277777777776,1.0403022670025517,0.029500815097382588,1.1871159757914473,38.888888888888886,1.0769230768932543,0.9722921914357586,1.6596607644955295e-18,0.9556245203073659,0
513,556.0722222222222,1.0722222222221944,1.091666666666697,1.0888888888889028,0.9846938775509824,0.03049758114539112,1.2272259488824084,63.888888888888886,1.769230769181775,1.0025510204081782,5.226486337051028e-06,0.908795906748434,0
514,557.1638888888889,1.091666666666697,1.091666666666697,1.0944444444444343,0.9974619289340471,0.02837035267334372,1.1416260461342993,36.111111111111114,0.9999999999723078,0.9974619289340471,3.9715046383329806e-18,0.9551914421522822,0
