beat_index,peak_time_s,rr_prev_s,rr_next_s,rr_baseline_s,prematurity_index,aa_ratio,morph_index,qrs_width_ms,width_index,pause_index,pvc_score,morphology_score,is_pvc_candidate
0,0.4527777777777778,,0.9861111111111112,0.9111111111111541,,0.017925914136967824,0.8527109427251737,36.111111111111114,0.9999999999723078,1.0823170731706808,0.0,0.991731710002834,0
1,1.4388888888888889,0.9861111111111112,0.9222222222222223,0.9111111111111541,1.0823170731706808,0.020835600418119125,0.9911206948235799,36.111111111111114,0.9999999999723078,1.0121951219511718,0.0,0.9943317878251456,0
2,2.361111111111111,0.9222222222222223,1.0055555555555555,0.9111111111111541,1.0121951219511718,0.026463946945230903,1.2588533547284908,38.888888888888886,1.0769230768932543,1.1036585365853138,0.0,0.9981172038724891,0
3,3.3666666666666667,1.0055555555555555,1.161111111111111,0.9111111111111541,1.1036585365853138,0.02227132112924794,1.0594159433516301,38.888888888888886,1.0769230768932543,1.2743902439023789,0.0,0.9971885309714545,0
4,4.527777777777778,1.161111111111111,0.9638888888888886,0.9111111111111541,1.2743902439023789,0.024918453417427905,1.185336365134594,36.111111111111114,0.9999999999723078,1.0579268292682424,0.0,0.9976286458258934,0
5,5.491666666666666,0.9638888888888886,0.9722222222222223,0.9111111111111541,1.0579268292682424,0.02582370828020205,1.228398086927113,38.888888888888886,1.0769230768932543,1.0670731707316572,0.0,0.9987056676390025,0
6,6.463888888888889,0.9722222222222223,1.0361111111111114,0.9111111111111541,1.0670731707316572,0.025041090322728977,1.1911700331045036,38.888888888888886,1.0769230768932543,1.1371951219511662,0.0,0.9996917912480384,0
7,7.5,1.0361111111111114,1.019444444444444,0.9111111111111541,1.1371951219511662,0.025078204952163945,1.1929355246946434,36.111111111111114,0.9999999999723078,1.118902439024337,0.0,0.9997189863255422,0
8,8.519444444444444,1.019444444444444,0.9444444444444446,0.9111111111111541,1.118902439024337,0.017834132353981094,0.8483450102490043,36.111111111111114,0.9999999999723078,1.03658536585361,0.0,0.9906632548039692,0
9,9.463888888888889,0.9444444444444446,0.9222222222222225,0.9111111111111541,1.03658536585361,0.025110958534223626,1.194493567292769,38.888888888888886,1.0769230768932543,1.012195121951172,0.0,0.9996513521643202,0
10,10.386111111111111,0.9222222222222225,1.041666666666666,0.9111111111111541,1.012195121951172,0.018280179379652293,0.8695628503465127,36.111111111111114,0.9999999999723078,1.1432926829267747,0.0,0.9913569480749085,0
11,11.427777777777777,1.041666666666666,1.0416666666666679,0.9111111111111541,1.1432926829267747,0.02526157899944663,1.2016583745049794,38.888888888888886,1.0769230768932543,1.1432926829267767,0.0,0.9996793541833782,0
12,12.469444444444445,1.0416666666666679,0.9277777777777771,0.9111111111111541,1.1432926829267767,0.024657417587153407,1.1729192517189173,36.111111111111114,0.9999999999723078,1.0182926829267807,0.0,0.9980357696602675,0
13,13.397222222222222,0.9277777777777771,0.9944444444444454,0.9111111111111541,1.0182926829267807,0.026001010103800428,1.2368320894550888,38.888888888888886,1.0769230768932543,1.0914634146340958,0.0,0.9994283472411485,0
14,14.391666666666667,0.9944444444444454,0.9444444444444429,0.9111111111111541,1.0914634146340958,0.018004177588040845,0.8564338268489894,36.111111111111114,0.9999999999723078,1.036585365853608,0.0,0.991533074799968,0
15,15.33611111111111,0.9444444444444429,0.9000000000000004,0.9111111111111541,1.036585365853608,0.01731232301560341,0.8235232617205301,36.111111111111114,0.9999999999723078,0.9878048780487343,0.0,0.9888431071993413,0
16,16.23611111111111,0.9000000000000004,0.8777777777777764,0.9111111111111541,0.9878048780487343,0.024635839210679248,1.171892798194418,38.888888888888886,1.0769230768932543,0.9634146341462946,0.0,0.9995305996366455,0
17,17.113888888888887,0.8777777777777764,0.9361111111111136,0.9111111111111541,0.9634146341462946,0.024657446945983912,1.1729206482778791,33.333333333333336,0.923076923051361,1.027439024390198,0.0,0.9963082545104753,0
18,18.05,0.9361111111111136,1.0,0.9111111111111541,1.027439024390198,0.024796817436428618,1.1795503097493736,36.111111111111114,0.9999999999723078,1.0975609756097044,0.0,0.9987185638101426,0
19,19.05,1.0,0.8972222222222221,0.9111111111111541,1.0975609756097044,0.024836556778149464,1.1814406552727954,36.111111111111114,0.9999999999723078,0.9847560975609291,0.0,0.9985252864475002,0
20,19.947222222222223,0.8972222222222221,0.8777777777777764,0.9111111111111541,0.9847560975609291,0.025856715021456835,1.2299681719580131,36.111111111111114,0.9999999999723078,0.9634146341462946,0.0,0.9986925023154563,0
21,20.825,0.8777777777777764,0.9472222222222229,0.9111111111111541,0.9634146341462946,0.01753555125079133,0.8341419201284391,33.333333333333336,0.923076923051361,1.0396341463414152,0.0,0.9907703034272264,0
22,21.772222222222222,0.9472222222222229,0.9638888888888886,0.9111111111111541,1.0396341463414152,0.01819284448429307,0.8654084501644328,36.111111111111114,0.9999999999723078,1.0579268292682424,0.0,0.990757706991958,0
23,22.73611111111111,0.9638888888888886,0.9277777777777771,0.9111111111111541,1.0579268292682424,0.020613229948897218,0.9805428391563249,36.111111111111114,0.9999999999723078,1.0182926829267807,0.0,0.9949488950198635,0
24,23.663888888888888,0.9277777777777771,0.8694444444444471,0.9111111111111541,1.0182926829267807,0.017006596521538686,0.8089802752386096,33.333333333333336,0.923076923051361,0.9542682926828848,0.0,0.9896874268969214,0
25,24.533333333333335,0.8694444444444471,0.9222222222222207,0.9111111111111541,0.9542682926828848,0.018463246969153073,0.8782711223840156,36.111111111111114,0.9999999999723078,1.0121951219511702,0.0,0.9918439098874142,0
26,25.455555555555556,0.9222222222222207,0.9305555555555571,0.9111111111111541,1.0121951219511702,0.02016504883540213,0.9592234834526242,33.333333333333336,0.923076923051361,1.0213414634145876,0.0,0.9925614479904832,0
27,26.386111111111113,0.9305555555555571,0.9499999999999993,0.9111111111111541,1.0213414634145876,0.024491404453682277,1.1650222365672607,36.111111111111114,0.9999999999723078,1.0426829268292184,0.0,0.9986954817725309,0
28,27.336111111111112,0.9499999999999993,0.8833333333333329,0.9111111111111541,1.0426829268292184,0.02014277128406975,0.9581637711471264,36.111111111111114,0.9999999999723078,0.969512195121905,0.0,0.9933986860579426,0
29,28.219444444444445,0.8833333333333329,0.9277777777777771,0.9111111111111541,0.969512195121905,0.025160765284360363,1.1968628055106174,38.888888888888886,1.0769230768932543,1.0182926829267807,0.0,0.9996791777021794,0
30,29.147222222222222,0.9277777777777771,0.93611111111111,0.9111111111111541,1.0182926829267807,0.01765293971879581,0.839725927195099,33.333333333333336,0.923076923051361,1.0274390243901943,0.0,0.9906828149489434,0
31,30.083333333333332,0.93611111111111,0.9166666666666679,0.9111111111111541,1.0274390243901943,0.01979167821551645,0.9414627594618723,33.333333333333336,0.923076923051361,1.0060975609755636,0.0,0.9909430173191047,0
32,31.0,0.9166666666666679,0.875,0.9111111111111541,1.0060975609755636,0.01712503471698108,0.8146142163876458,33.333333333333336,0.923076923051361,0.9603658536584914,0.0,0.9883835367934113,0
33,31.875,0.875,0.8805555555555529,0.9111111111111541,0.9603658536584914,0.01946612095877976,0.925976451026953,33.333333333333336,0.923076923051361,0.9664634146340978,0.0,0.9913749118378328,0
34,32.75555555555555,0.8805555555555529,0.8916666666666728,0.9111111111111541,0.9664634146340978,0.0190286876635866,0.9051683541749043,36.111111111111114,0.9999999999723078,0.9786585365853265,0.0,0.9922759734489821,0
35,33.647222222222226,0.8916666666666728,0.8777777777777729,0.9111111111111541,0.9786585365853265,0.02068524497848367,0.9839684945120206,36.111111111111114,0.9999999999723078,0.9634146341462907,0.0,0.9935076834407295,0
36,34.525,0.8777777777777729,0.8555555555555543,0.9111111111111541,0.9634146341462907,0.020765475907898772,0.9877849688594114,36.111111111111114,0.9999999999723078,0.9390243902438568,0.0,0.9946157487920256,0
37,35.38055555555555,0.8555555555555543,0.9750000000000014,0.9111111111111541,0.9390243902438568,0.018468170513659874,0.8785053285866039,36.111111111111114,0.9999999999723078,1.0701219512194633,0.0,0.9912022913571017,0
38,36.355555555555554,0.9750000000000014,0.9333333333333371,0.9111111111111541,1.0701219512194633,0.025053641771833293,1.1917670881788798,38.888888888888886,1.0769230768932543,1.0243902439023949,0.0,0.9997312241077161,0
39,37.28888888888889,0.9333333333333371,0.8611111111111072,0.9111111111111541,1.0243902439023949,0.018841837412064518,0.8962801461367292,33.333333333333336,0.923076923051361,0.9451219512194633,0.0,0.9876257043453787,0
40,38.15,0.8611111111111072,0.9861111111111143,0.9111111111111541,0.9451219512194633,0.025879897856175796,1.2310709473421415,38.888888888888886,1.0769230768932543,1.0823170731706842,0.0,0.9997414762956462,0
41,39.13611111111111,0.9861111111111143,1.06111111111111,0.9111111111111541,1.0823170731706842,0.025233684112865286,1.200331453330849,38.888888888888886,1.0769230768932543,1.1646341463414074,0.0,0.9994533869690216,0
42,40.19722222222222,1.06111111111111,0.9416666666666629,0.9111111111111541,1.1646341463414074,0.02197274693196744,1.0452131817356174,38.888888888888886,1.0769230768932543,1.0335365853658007,0.0,0.9968940247183902,0
43,41.138888888888886,0.9416666666666629,1.0611111111111171,0.9111111111111541,1.0335365853658007,0.017444616868560546,0.8298162973342167,33.333333333333336,0.923076923051361,1.1646341463414152,0.0,0.9917312137148468,0
44,42.2,1.0611111111111171,1.1361111111111057,0.9111111111111541,1.1646341463414152,0.01777688767244638,0.8456219599217241,36.111111111111114,0.9999999999723078,1.2469512195121304,0.0,0.9907204429761054,0
45,43.33611111111111,1.1361111111111057,1.0111111111111128,0.9111111111111541,1.2469512195121304,0.024870399099133723,1.1830504876757624,38.888888888888886,1.0769230768932543,1.1097560975609253,0.0,0.9993404527093759,0
46,44.34722222222222,1.0111111111111128,0.9833333333333343,0.9111111111111541,1.1097560975609253,0.025279486453252144,1.2025102073152694,38.888888888888886,1.0769230768932543,1.079268292682877,0.0,0.9994614454267159,0
47,45.330555555555556,0.9833333333333343,1.0472222222222243,0.9111111111111541,1.079268292682877,0.021257667155528695,1.0111978257748682,36.111111111111114,0.9999999999723078,1.149390243902387,0.0,0.9950291687347816,0
48,46.37777777777778,1.0472222222222243,1.0472222222222172,0.9111111111111541,1.149390243902387,0.024529427347761874,1.1668309330503532,36.111111111111114,0.9999999999723078,1.1493902439023793,0.0,0.9991628519143397,0
49,47.425,1.0472222222222172,0.9805555555555614,0.9111111111111541,1.1493902439023793,0.017647034153744013,0.839445007633387,36.111111111111114,0.9999999999723078,1.0762195121950777,0.0,0.9896936520260629,0
50,48.40555555555556,0.9805555555555614,1.0027777777777729,0.9111111111111541,1.0762195121950777,0.023175248386080156,1.1024145127656617,38.888888888888886,1.0769230768932543,1.1006097560975037,0.0,0.9969361133563971,0
51,49.40833333333333,1.0027777777777729,1.0444444444444443,0.9111111111111541,1.1006097560975037,0.026251598264874058,1.2487522216967246,38.888888888888886,1.0769230768932543,1.1463414634145799,0.0,0.9994444662495783,0
52,50.452777777777776,1.0444444444444443,0.9861111111111143,0.9111111111111541,1.1463414634145799,0.024920420748562076,1.1854299483556925,38.888888888888886,1.0769230768932543,1.0823170731706842,0.0,0.9983547608017832,0
53,51.43888888888889,0.9861111111111143,0.9611111111111086,0.9111111111111541,1.0823170731706842,0.025691815408219635,1.2221241254238098,38.888888888888886,1.0769230768932543,1.0548780487804352,0.0,0.9996319219329983,0
54,52.4,0.9611111111111086,0.9805555555555543,0.9111111111111541,1.0548780487804352,0.025397639318282216,1.2081305756912228,38.888888888888886,1.0769230768932543,1.0762195121950697,0.0,0.9997167568820811,0
55,53.38055555555555,0.9805555555555543,0.9777777777777814,0.9111111111111541,1.0762195121950697,0.0214726610858266,1.0214247896877684,36.111111111111114,0.9999999999723078,1.0731707317072705,0.0,0.9957524072405244,0
56,54.358333333333334,0.9777777777777814,0.86944444444444,0.9111111111111541,1.0731707317072705,0.01778131939433588,0.8458327708026319,33.333333333333336,0.923076923051361,0.9542682926828769,0.0,0.9927079938775427,0
57,55.227777777777774,0.86944444444444,0.8944444444444457,0.9111111111111541,0.9542682926828769,0.02662790952422864,1.2666528278399056,38.888888888888886,1.0769230768932543,0.9817073170731259,0.0,0.9980583156492386,0
58,56.12222222222222,0.8944444444444457,0.9333333333333371,0.9111111111111541,0.9817073170731259,0.021729249619095482,1.0336303513358054,38.888888888888886,1.0769230768932543,1.0243902439023949,0.0,0.9946681621452256,0
59,57.05555555555556,0.9333333333333371,0.9305555555555571,0.9111111111111541,1.0243902439023949,0.021487543756700443,1.0221327377574811,38.888888888888886,1.0769230768932543,1.0213414634145876,0.0,0.9954636903382994,0
60,57.986111111111114,0.9305555555555571,0.8361111111111086,0.9111111111111541,1.0213414634145876,0.026423562626769516,1.2569323285535685,38.888888888888886,1.0769230768932543,0.9176829268292223,0.0,0.9983912150040386,0
61,58.82222222222222,0.8361111111111086,0.8666666666666671,0.9111111111111541,0.9176829268292223,0.019418472250077996,0.9237098678554467,33.333333333333336,0.923076923051361,0.9512195121950776,0.0,0.9892440141894983,0
62,59.68888888888889,0.8666666666666671,0.9611111111111086,0.9111111111111541,0.9512195121950776,0.02548553394615547,1.2123116015748467,38.888888888888886,1.0769230768932543,1.0548780487804352,0.0,0.9994779460972034,0
63,60.65,0.9611111111111086,0.9333333333333371,0.9111111111111541,1.0548780487804352,0.017911197828459048,0.8520109082830766,36.111111111111114,0.9999999999723078,1.0243902439023949,0.0,0.9907768061521399,0
64,61.583333333333336,0.9333333333333371,0.9722222222222214,0.9111111111111541,1.0243902439023949,0.021406075374554637,1.0182573994951727,38.888888888888886,1.0769230768932543,1.067073170731656,0.0,0.9951091678105856,0
65,62.55555555555556,0.9722222222222214,1.0,0.9111111111111541,1.067073170731656,0.02115837686559785,1.006474724008148,38.888888888888886,1.0769230768932543,1.0975609756097044,0.0,0.9959556880786933,0
66,63.55555555555556,1.0,0.9416666666666629,0.9111111111111541,1.0975609756097044,0.018269167427062562,0.8690390269921059,36.111111111111114,0.9999999999723078,1.0335365853658007,0.0,0.9908908362652022,0
67,64.49722222222222,0.9416666666666629,0.8972222222222257,0.9111111111111541,1.0335365853658007,0.02140615130349617,1.0182610113299067,38.888888888888886,1.0769230768932543,0.984756097560933,0.0,0.9962370263904585,0
68,65.39444444444445,0.8972222222222257,0.9194444444444372,0.9111111111111541,0.984756097560933,0.022395193558269105,1.0653083834760904,38.888888888888886,1.0769230768932543,1.009146341463359,0.0,0.9963695954214112,0
69,66.31388888888888,0.9194444444444372,1.01111111111112,0.9111111111111541,1.009146341463359,0.02254924244082195,1.0726362757589445,38.888888888888886,1.0769230768932543,1.109756097560933,0.0,0.9971391566561506,0
70,67.325,1.01111111111112,0.9138888888888914,0.9111111111111541,1.109756097560933,0.022405418488846154,1.0657947692818592,38.888888888888886,1.0769230768932543,1.0030487804877604,0.0,0.9969863083946743,0
71,68.2388888888889,0.9138888888888914,0.9777777777777743,0.9111111111111541,1.0030487804877604,0.02200241261326405,1.0466243371652226,38.888888888888886,1.0769230768932543,1.0731707317072627,0.0,0.9978165980182031,0
72,69.21666666666667,0.9777777777777743,1.0222222222222257,0.9111111111111541,1.0731707317072627,0.017924154284095162,0.8526272289580186,36.111111111111114,0.9999999999723078,1.1219512195121462,0.0,0.9902361761429177,0
73,70.2388888888889,1.0222222222222257,1.0388888888888772,0.9111111111111541,1.1219512195121462,0.024304868752011634,1.1561489912304748,36.111111111111114,0.9999999999723078,1.140243902438958,0.0,0.9974128447959592,0
74,71.27777777777777,1.0388888888888772,0.9805555555555685,0.9111111111111541,1.140243902438958,0.021652241820363204,1.0299671968571853,36.111111111111114,0.9999999999723078,1.0762195121950855,0.0,0.997348344375677,0
75,72.25833333333334,0.9805555555555685,1.0055555555555458,0.9111111111111541,1.0762195121950855,0.025699436580936312,1.2224866540693369,38.888888888888886,1.0769230768932543,1.103658536585303,0.0,0.9993351633804363,0
76,73.26388888888889,1.0055555555555458,0.9944444444444542,0.9111111111111541,1.103658536585303,0.017398521569843353,0.8276236077272038,33.333333333333336,0.923076923051361,1.0914634146341056,0.0,0.9894341778176807,0
77,74.25833333333334,0.9944444444444542,0.9333333333333229,0.9111111111111541,1.0914634146341056,0.021011083414450456,0.9994681782540253,36.111111111111114,0.9999999999723078,1.0243902439023793,0.0,0.9933763138528537,0
78,75.19166666666666,0.9333333333333229,0.87222222222222,0.9111111111111541,1.0243902439023793,0.025050319155568757,1.1916090359185822,38.888888888888886,1.0769230768932543,0.9573170731706842,0.0,0.9983932907584925,0
79,76.06388888888888,0.87222222222222,0.9083333333333456,0.9111111111111541,0.9573170731706842,0.022568663120284847,1.073560090620861,38.888888888888886,1.0769230768932543,0.9969512195121616,0.0,0.9976282029416597,0
80,76.97222222222223,0.9083333333333456,0.9083333333333314,0.9111111111111541,0.9969512195121616,0.016921587802522318,0.8049365280478977,33.333333333333336,0.923076923051361,0.996951219512146,0.0,0.9902494807396227,0
81,77.88055555555556,0.9083333333333314,0.8861111111111057,0.9111111111111541,0.996951219512146,0.020764170444184927,0.9877228697560898,36.111111111111114,0.9999999999723078,0.9725609756097043,0.0,0.9954558935544413,0
82,78.76666666666667,0.8861111111111057,0.8611111111111143,0.9111111111111541,0.9725609756097043,0.017778367542814213,0.8456923553083595,33.333333333333336,0.923076923051361,0.9451219512194711,0.0,0.991289924545729,0
83,79.62777777777778,0.8611111111111143,0.8944444444444457,0.9111111111111541,0.9451219512194711,0.017898563232678636,0.8514098980363161,36.111111111111114,0.9999999999723078,0.9817073170731259,0.0,0.992137685244992,0
84,80.52222222222223,0.8944444444444457,1.0166666666666657,0.9111111111111541,0.9817073170731259,0.018459801027208407,0.8781072036916823,36.111111111111114,0.9999999999723078,1.1158536585365317,0.0,0.9917015583652014,0
85,81.53888888888889,1.0166666666666657,0.8888888888888857,0.9111111111111541,1.1158536585365317,0.017942163828886692,0.8534839180953143,36.111111111111114,0.9999999999723078,0.9756097560975115,0.0,0.9920430890667394,0
86,82.42777777777778,0.8888888888888857,0.9166666666666714,0.9111111111111541,0.9756097560975115,0.017649013327846297,0.839539154208099,33.333333333333336,0.923076923051361,1.0060975609755676,0.0,0.9926334537999406,0
87,83.34444444444445,0.9166666666666714,0.9694444444444343,0.9111111111111541,1.0060975609755676,0.02103327067595822,1.0005235955974432,36.111111111111114,0.9999999999723078,1.064024390243841,0.0,0.9948709687069288,0
88,84.31388888888888,0.9694444444444343,0.9472222222222229,0.9111111111111541,1.064024390243841,0.022340663057267948,1.0627144429628932,38.888888888888886,1.0769230768932543,1.0396341463414152,0.0,0.9981384324351005,0
89,85.2611111111111,0.9472222222222229,0.9388888888888971,0.9111111111111541,1.0396341463414152,0.02481328483462206,1.180333641105893,36.111111111111114,0.9999999999723078,1.0304878048780093,0.0,0.9987278404524471,0
90,86.2,0.9388888888888971,0.9722222222222143,0.9111111111111541,1.0304878048780093,0.018959866521972648,0.9018946276526939,36.111111111111114,0.9999999999723078,1.0670731707316483,0.0,0.9925100029609621,0
91,87.17222222222222,0.9722222222222143,1.0694444444444429,0.9111111111111541,1.0670731707316483,0.022487152840879664,1.0696827593638711,38.888888888888886,1.0769230768932543,1.173780487804821,0.0,0.9977249587107577,0
92,88.24166666666666,1.0694444444444429,0.9527777777777828,0.9111111111111541,1.173780487804821,0.02181315202540007,1.0376214727609243,38.888888888888886,1.0769230768932543,1.0457317073170294,0.0,0.9967336096576143,0
93,89.19444444444444,0.9527777777777828,0.9500000000000028,0.9111111111111541,1.0457317073170294,0.018354152405432866,0.8730816448731195,36.111111111111114,0.9999999999723078,1.0426829268292224,0.0,0.9911517273978914,0
94,90.14444444444445,0.9500000000000028,0.9583333333333286,0.9111111111111541,1.0426829268292224,0.017863936843889122,0.8497627686122727,36.111111111111114,0.9999999999723078,1.0518292682926282,0.0,0.9904806304602702,0
95,91.10277777777777,0.9583333333333286,0.9666666666666686,0.9111111111111541,1.0518292682926282,0.022563369385339375,1.073308274971104,38.888888888888886,1.0769230768932543,1.0609756097560497,0.0,0.9976438267263625,0
96,92.06944444444444,0.9666666666666686,0.9083333333333314,0.9111111111111541,1.0609756097560497,0.021221406720308058,1.0094729670220948,36.111111111111114,0.9999999999723078,0.996951219512146,0.0,0.994951257619447,0
97,92.97777777777777,0.9083333333333314,0.9444444444444429,0.9111111111111541,0.996951219512146,0.025735976649479124,1.224224814592494,38.888888888888886,1.0769230768932543,1.036585365853608,0.0,0.9988675079912304,0
98,93.92222222222222,0.9444444444444429,0.9722222222222285,0.9111111111111541,1.036585365853608,0.018119005030006435,0.8618960094490541,33.333333333333336,0.923076923051361,1.0670731707316639,0.0,0.9910831060076306,0
99,94.89444444444445,0.9722222222222285,0.9666666666666686,0.9111111111111541,1.0670731707316639,0.020937060821281647,0.9959470258753153,36.111111111111114,0.9999999999723078,1.0609756097560497,0.0,0.9945960312291977,0
100,95.86111111111111,0.9666666666666686,0.8833333333333258,0.9111111111111541,1.0609756097560497,0.02503673498144293,1.1909628555432623,38.888888888888886,1.0769230768932543,0.9695121951218972,0.0,0.999636876875118,0
101,96.74444444444444,0.8833333333333258,1.0250000000000057,0.9111111111111541,0.9695121951218972,0.025820746705673494,1.2282572089228505,38.888888888888886,1.0769230768932543,1.1249999999999531,0.0,0.9994669639705155,0
102,97.76944444444445,1.0250000000000057,0.9583333333333286,0.9111111111111541,1.1249999999999531,0.025715400025599876,1.2232460130534422,38.888888888888886,1.0769230768932543,1.0518292682926282,0.0,0.9996119758995912,0
103,98.72777777777777,0.9583333333333286,0.9000000000000057,0.9111111111111541,1.0518292682926282,0.02066874880585119,0.9831837943952331,36.111111111111114,0.9999999999723078,0.9878048780487402,0.0,0.9943002198721407,0
104,99.62777777777778,0.9000000000000057,1.0222222222222257,0.9111111111111541,0.9878048780487402,0.022656084062936052,1.0777185839536112,38.888888888888886,1.0769230768932543,1.1219512195121462,0.0,0.9980445235382058,0
105,100.65,1.0222222222222257,1.0444444444444372,0.9111111111111541,1.1219512195121462,0.02277236520418516,1.083249917018027,38.888888888888886,1.0769230768932543,1.146341463414572,0.0,0.9979057815439014,0
106,101.69444444444444,1.0444444444444372,0.87222222222222,0.9111111111111541,1.146341463414572,0.018068695773427068,0.8595028676947306,33.333333333333336,0.923076923051361,0.9573170731706842,0.0,0.9897756877148935,0
107,102.56666666666666,0.87222222222222,0.9083333333333314,0.9111111111111541,0.9573170731706842,0.020557006175069264,0.9778683519966697,33.333333333333336,0.923076923051361,0.996951219512146,0.0,0.9921454211697408,0
108,103.475,0.9083333333333314,1.063888888888897,0.9111111111111541,0.996951219512146,0.025195588822320935,1.1985193130480571,38.888888888888886,1.0769230768932543,1.1676829268292224,0.0,0.9993437564042786,0
109,104.53888888888889,1.063888888888897,1.0472222222222172,0.9111111111111541,1.1676829268292224,0.022556544273207378,1.0729836138265838,38.888888888888886,1.0769230768932543,1.1493902439023793,0.0,0.9962089917190124,0
110,105.58611111111111,1.0472222222222172,0.9000000000000057,0.9111111111111541,1.1493902439023793,0.017524223278167876,0.8336030641381057,33.333333333333336,0.923076923051361,0.9878048780487402,0.0,0.9890079193782345,0
111,106.48611111111111,0.9000000000000057,1.0222222222222257,0.9111111111111541,0.9878048780487402,0.02069162507686197,0.9842719869677621,33.333333333333336,0.923076923051361,1.1219512195121462,0.0,0.9950877797685379,0
112,107.50833333333334,1.0222222222222257,1.0944444444444343,0.9111111111111541,1.1219512195121462,0.021611475345067695,1.028027992010213,38.888888888888886,1.0769230768932543,1.2012195121950542,0.0,0.9957188577570326,0
113,108.60277777777777,1.0944444444444343,0.9416666666666771,0.9111111111111541,1.2012195121950542,0.02266428244941673,1.0781085698595656,38.888888888888886,1.0769230768932543,1.0335365853658163,0.0,0.9975475233704032,0
114,109.54444444444445,0.9416666666666771,0.9361111111111029,0.9111111111111541,1.0335365853658163,0.018603210300926407,0.8849289844975727,36.111111111111114,0.9999999999723078,1.0274390243901865,0.0,0.9924511112684978,0
115,110.48055555555555,0.9361111111111029,1.0111111111111057,0.9111111111111541,1.0274390243901865,0.02100803248835945,0.9993230499195165,36.111111111111114,0.9999999999723078,1.1097560975609173,0.0,0.995159852663856,0
116,111.49166666666666,1.0111111111111057,1.0138888888889,0.9111111111111541,1.1097560975609173,0.01687345346262655,0.8026468440721539,33.333333333333336,0.923076923051361,1.11280487804874,0.0,0.9884512971332184,0
117,112.50555555555556,1.0138888888889,0.8916666666666657,0.9111111111111541,1.11280487804874,0.02062674624926308,0.9811857908707572,36.111111111111114,0.9999999999723078,0.9786585365853187,0.0,0.9934475178797948,0
118,113.39722222222223,0.8916666666666657,0.9249999999999972,0.9111111111111541,0.9786585365853187,0.025370774129334087,1.2068526358093616,36.111111111111114,0.9999999999723078,1.0152439024389734,0.0,0.9991488929280488,0
119,114.32222222222222,0.9249999999999972,0.99444444444444,0.9111111111111541,1.0152439024389734,0.025515511566083497,1.2137375954937157,38.888888888888886,1.0769230768932543,1.09146341463409,0.0,0.9985541211628937,0
120,115.31666666666666,0.99444444444444,0.9166666666666714,0.9111111111111541,1.09146341463409,0.024401370716511498,1.1607394562128888,38.888888888888886,1.0769230768932543,1.0060975609755676,0.0,0.9990549932433157,0
121,116.23333333333333,0.9166666666666714,0.8416666666666686,0.9111111111111541,1.0060975609755676,0.024240759150827386,1.1530993861701215,36.111111111111114,0.9999999999723078,0.9237804878048366,0.0,0.9971912471929817,0
122,117.075,0.8416666666666686,0.8805555555555458,0.9111111111111541,0.9237804878048366,0.025326129084564247,1.2047289327768236,38.888888888888886,1.0769230768932543,0.96646341463409,0.0,0.9989135737342145,0
123,117.95555555555555,0.8805555555555458,0.9583333333333428,0.9111111111111541,0.96646341463409,0.025407681284715405,1.2086082581457205,38.888888888888886,1.0769230768932543,1.0518292682926438,0.0,0.9992413973311598,0
124,118.91388888888889,0.9583333333333428,0.9027777777777715,0.9111111111111541,1.0518292682926438,0.021902874467935516,1.0418894452600354,38.888888888888886,1.0769230768932543,0.9908536585365317,0.0,0.9966961027407409,0
125,119.81666666666666,0.9027777777777715,0.8888888888888857,0.9111111111111541,0.9908536585365317,0.022606345744829243,1.0753526009527803,38.888888888888886,1.0769230768932543,0.9756097560975115,0.0,0.9971222877575159,0
126,120.70555555555555,0.8888888888888857,0.9666666666666686,0.9111111111111541,0.9756097560975115,0.018008202485094316,0.856625285635114,33.333333333333336,0.923076923051361,1.0609756097560497,0.0,0.9896979442091097,0
127,121.67222222222222,0.9666666666666686,0.9805555555555543,0.9111111111111541,1.0609756097560497,0.018185393462457615,0.8650540153609951,36.111111111111114,0.9999999999723078,1.0762195121950697,0.0,0.9913121804571621,0
128,122.65277777777777,0.9805555555555543,0.8972222222222257,0.9111111111111541,1.0762195121950697,0.022546608910940076,1.0725110023848166,38.888888888888886,1.0769230768932543,0.984756097560933,0.0,0.9981368610714284,0
129,123.55,0.8972222222222257,0.9527777777777828,0.9111111111111541,0.984756097560933,0.018114679336229872,0.8616902421788345,33.333333333333336,0.923076923051361,1.0457317073170294,0.0,0.9914164414426824,0
130,124.50277777777778,0.9527777777777828,1.0249999999999915,0.9111111111111541,1.0457317073170294,0.02344398590322249,1.1151979847736797,38.888888888888886,1.0769230768932543,1.1249999999999376,0.0,0.997908632336505,0
131,125.52777777777777,1.0249999999999915,0.9305555555555571,0.9111111111111541,1.1249999999999376,0.022392949971168613,1.065201659140755,38.888888888888886,1.0769230768932543,1.0213414634145876,0.0,0.9975191265533163,0
132,126.45833333333333,0.9305555555555571,0.9333333333333371,0.9111111111111541,1.0213414634145876,0.017759328792901506,0.8447867083069107,36.111111111111114,0.9999999999723078,1.0243902439023949,0.0,0.9908784238816791,0
133,127.39166666666667,0.9333333333333371,1.066666666666677,0.9111111111111541,1.0243902439023949,0.026268357890985302,1.2495494539311225,36.111111111111114,0.9999999999723078,1.1707317073170294,0.0,0.997360280536011,0
134,128.45833333333334,1.066666666666677,1.0083333333333258,0.9111111111111541,1.1707317073170294,0.02184176881793631,1.0389827340028837,38.888888888888886,1.0769230768932543,1.1067073170731103,0.0,0.9969029522674314,0
135,129.46666666666667,1.0083333333333258,0.8777777777777658,0.9111111111111541,1.1067073170731103,0.02220735129355716,1.056372986742496,38.888888888888886,1.0769230768932543,0.9634146341462829,0.0,0.9973948012161099,0
136,130.34444444444443,0.8777777777777658,0.8694444444444684,0.9111111111111541,0.9634146341462829,0.021344235663342048,1.0153157699613575,38.888888888888886,1.0769230768932543,0.9542682926829081,0.0,0.9956931957870452,0
137,131.2138888888889,0.8694444444444684,0.9111111111110972,0.9111111111111541,0.9542682926829081,0.01829077867084077,0.8700670439688009,36.111111111111114,0.9999999999723078,0.9999999999999376,0.0,0.9912430711278324,0
138,132.125,0.9111111111110972,0.8666666666666742,0.9111111111111541,0.9999999999999376,0.021144891949963773,1.0058332652219995,38.888888888888886,1.0769230768932543,0.9512195121950854,0.0,0.9953350272174928,0
139,132.99166666666667,0.8666666666666742,0.875,0.9111111111111541,0.9512195121950854,0.025540907137216646,1.2149456276887005,38.888888888888886,1.0769230768932543,0.9603658536584914,0.0,0.9988821610180496,0
140,133.86666666666667,0.875,0.919444444444423,0.9111111111111541,0.9603658536584914,0.021097816664678463,1.00359395900933,36.111111111111114,0.9999999999723078,1.0091463414633435,0.0,0.9957023464628771,0
141,134.7861111111111,0.919444444444423,0.9361111111111313,0.9111111111111541,1.0091463414633435,0.021744236150768852,1.034343239920105,38.888888888888886,1.0769230768932543,1.0274390243902176,0.0,0.9970853118759274,0
142,135.72222222222223,0.9361111111111313,0.9194444444444514,0.9111111111111541,1.0274390243902176,0.025274001604487124,1.2022493006454398,38.888888888888886,1.0769230768932543,1.0091463414633748,0.0,0.9997657345018489,0
143,136.64166666666668,0.9194444444444514,0.9666666666666401,0.9111111111111541,1.0091463414633748,0.02223113271644804,1.057504236138074,38.888888888888886,1.0769230768932543,1.0609756097560183,0.0,0.9965130956985683,0
144,137.60833333333332,0.9666666666666401,0.9805555555555827,0.9111111111111541,1.0609756097560183,0.020553836454929336,0.977717572793554,33.333333333333336,0.923076923051361,1.076219512195101,0.0,0.9955416830335544,0
145,138.5888888888889,0.9805555555555827,0.924999999999983,0.9111111111111541,1.076219512195101,0.020348636628951335,0.9679565008772327,33.333333333333336,0.923076923051361,1.015243902438958,0.0,0.9936900527020001,0
146,139.51388888888889,0.924999999999983,0.8916666666666799,0.9111111111111541,1.015243902438958,0.018134211496014144,0.8626193600054539,36.111111111111114,0.9999999999723078,0.9786585365853343,0.0,0.9914668922055464,0
147,140.40555555555557,0.8916666666666799,1.0277777777777715,0.9111111111111541,0.9786585365853343,0.025587443110690833,1.2171592795844202,38.888888888888886,1.0769230768932543,1.1280487804877448,0.0,0.9994610752967186,0
148,141.43333333333334,1.0277777777777715,0.9916666666666742,0.9111111111111541,1.1280487804877448,0.0176906421360552,0.8415193790390958,33.333333333333336,0.923076923051361,1.0884146341462986,0.0,0.9913654318031566,0
149,142.425,0.9916666666666742,0.9083333333333314,0.9111111111111541,1.0884146341462986,0.02483412861653187,1.1813251509829608,36.111111111111114,0.9999999999723078,0.996951219512146,0.0,0.9968527173999855,0
150,143.33333333333334,0.9083333333333314,0.9638888888888744,0.9111111111111541,0.996951219512146,0.02508677776171775,1.1933433213883335,38.888888888888886,1.0769230768932543,1.057926829268227,0.0,0.9997180873910115,0
151,144.29722222222222,0.9638888888888744,1.02222222222224,0.9111111111111541,1.057926829268227,0.019341538822327954,0.9200502511015916,33.333333333333336,0.923076923051361,1.1219512195121617,0.0,0.9912434572416466,0
152,145.31944444444446,1.02222222222224,0.9083333333333314,0.9111111111111541,1.1219512195121617,0.024807514068444555,1.180059133740195,36.111111111111114,0.9999999999723078,0.996951219512146,0.0,0.9980580370414613,0
153,146.2277777777778,0.9083333333333314,0.8666666666666458,0.9111111111111541,0.996951219512146,0.02638046085567134,1.254882036915138,38.888888888888886,1.0769230768932543,0.9512195121950542,0.0,0.9991641431543055,0
154,147.09444444444443,0.8666666666666458,0.9194444444444514,0.9111111111111541,0.9512195121950542,0.020622753879169127,0.98099587934711,33.333333333333336,0.923076923051361,1.0091463414633748,0.0,0.9955694103409489,0
155,148.01388888888889,0.9194444444444514,0.9083333333333314,0.9111111111111541,1.0091463414633748,0.021760004093610535,1.035093299152936,36.111111111111114,0.9999999999723078,0.996951219512146,0.0,0.9962008593175924,0
156,148.92222222222222,0.9083333333333314,0.8388888888889028,0.9111111111111541,0.996951219512146,0.02075652128439304,0.9873590098041031,33.333333333333336,0.923076923051361,0.920731707317045,0.0,0.994620981680511,0
157,149.76111111111112,0.8388888888889028,0.86388888888888,0.9111111111111541,0.920731707317045,0.025473386624772918,1.2117337702972584,36.111111111111114,0.9999999999723078,0.9481707317072626,0.0,0.9988707749801251,0
158,150.625,0.86388888888888,0.9222222222222172,0.9111111111111541,0.9481707317072626,0.021883178054237094,1.0409525141018943,36.111111111111114,0.9999999999723078,1.0121951219511662,0.0,0.9944101938668177,0
159,151.54722222222222,0.9222222222222172,0.9138888888888914,0.9111111111111541,1.0121951219511662,0.02454797162977223,1.1677130588975704,38.888888888888886,1.0769230768932543,1.0030487804877604,0.0,0.9992372412596779,0
160,152.4611111111111,0.9138888888888914,0.86388888888888,0.9111111111111541,1.0030487804877604,0.025302013626348572,1.2035817937828388,36.111111111111114,0.9999999999723078,0.9481707317072626,0.0,0.9995896939346904,0
161,153.325,0.86388888888888,0.9166666666666856,0.9111111111111541,0.9481707317072626,0.021329813803396307,1.0146297420301615,36.111111111111114,0.9999999999723078,1.0060975609755831,0.0,0.9955347230821648,0
162,154.24166666666667,0.9166666666666856,1.1111111111111143,0.9111111111111541,1.0060975609755831,0.025631753127764747,1.2192670458128296,38.888888888888886,1.0769230768932543,1.2195121951218972,0.0,0.9995638180473486,0
163,155.3527777777778,1.1111111111111143,0.9833333333333201,0.9111111111111541,1.2195121951218972,0.01815991072561503,0.8638418368137686,36.111111111111114,0.9999999999723078,1.0792682926828614,0.0,0.9906751659430615,0
164,156.3361111111111,0.9833333333333201,0.9222222222222172,0.9111111111111541,1.0792682926828614,0.0184099373878912,0.8757352593342004,36.111111111111114,0.9999999999723078,1.0121951219511662,0.0,0.9916377266476475,0
165,157.25833333333333,0.9222222222222172,1.0305555555555657,0.9111111111111541,1.0121951219511662,0.025261284101722185,1.2016443466280913,38.888888888888886,1.0769230768932543,1.1310975609755676,0.0,0.9997647974228607,0
166,158.2888888888889,1.0305555555555657,0.9638888888888744,0.9111111111111541,1.1310975609755676,0.025657362989359188,1.2204852715086796,36.111111111111114,0.9999999999723078,1.057926829268227,0.0,0.9982411492652645,0
167,159.25277777777777,0.9638888888888744,0.8555555555555543,0.9111111111111541,1.057926829268227,0.01806627934207187,0.8593879213972543,33.333333333333336,0.923076923051361,0.9390243902438568,0.0,0.9904898227863003,0
168,160.10833333333332,0.8555555555555543,0.955555555555577,0.9111111111111541,0.9390243902438568,0.019717805320546025,0.9379487280194165,33.333333333333336,0.923076923051361,1.0487804878048521,0.0,0.9913794932188649,0
169,161.0638888888889,0.955555555555577,1.10277777777776,0.9111111111111541,1.0487804878048521,0.018381244959830456,0.8743704002149494,36.111111111111114,0.9999999999723078,1.21036585365846,0.0,0.9908645742318729,0
170,162.16666666666666,1.10277777777776,0.9638888888889028,0.9111111111111541,1.21036585365846,0.02486387278174263,1.1827400397838133,38.888888888888886,1.0769230768932543,1.057926829268258,0.0,0.9989613414598129,0
171,163.13055555555556,0.9638888888889028,0.9472222222222229,0.9111111111111541,1.057926829268258,0.01817988353880766,0.8647919159135695,36.111111111111114,0.9999999999723078,1.0396341463414152,0.0,0.991369528445705,0
172,164.07777777777778,0.9472222222222229,1.00555555555556,0.9111111111111541,1.0396341463414152,0.018108251002998035,0.8613844552578224,36.111111111111114,0.9999999999723078,1.1036585365853187,0.0,0.9911664474343322,0
173,165.08333333333334,1.00555555555556,0.9805555555555543,0.9111111111111541,1.1036585365853187,0.021720224521145498,1.0332010399086549,36.111111111111114,0.9999999999723078,1.0762195121950697,0.0,0.9961243311101269,0
174,166.0638888888889,0.9805555555555543,0.8583333333333201,0.9111111111111541,1.0762195121950697,0.020231721648320176,0.9623950169500564,33.333333333333336,0.923076923051361,0.9420731707316483,0.0,0.9943322293925738,0
175,166.92222222222222,0.8583333333333201,0.9388888888888971,0.9111111111111541,0.9420731707316483,0.025024646824809028,1.1903878386509386,36.111111111111114,0.9999999999723078,1.0304878048780093,0.0,0.9994478641740798,0
176,167.86111111111111,0.9388888888888971,0.9694444444444343,0.9111111111111541,1.0304878048780093,0.0179212523393131,0.8524891874583248,33.333333333333336,0.923076923051361,1.064024390243841,0.0,0.9914762795609353,0
177,168.83055555555555,0.9694444444444343,0.9611111111111086,0.9111111111111541,1.064024390243841,0.017977075433195794,0.8551446148271519,36.111111111111114,0.9999999999723078,1.0548780487804352,0.0,0.990169083597115,0
178,169.79166666666666,0.9611111111111086,0.875,0.9111111111111541,1.0548780487804352,0.021602807631629684,1.0276156808700099,36.111111111111114,0.9999999999723078,0.9603658536584914,0.0,0.9968509099703805,0
179,170.66666666666666,0.875,0.9305555555555713,0.9111111111111541,0.9603658536584914,0.026087977088687077,1.2409689886448338,38.888888888888886,1.0769230768932543,1.0213414634146034,0.0,0.9992635241590312,0
180,171.59722222222223,0.9305555555555713,1.0250000000000057,0.9111111111111541,1.0213414634146034,0.0179182317640463,0.8523455028705462,36.111111111111114,0.9999999999723078,1.1249999999999531,0.0,0.9900570709625305,0
181,172.62222222222223,1.0250000000000057,0.924999999999983,0.9111111111111541,1.1249999999999531,0.017241890831598144,0.8201729001399474,33.333333333333336,0.923076923051361,1.015243902438958,0.0,0.9896526745160616,0
182,173.54722222222222,0.924999999999983,0.8388888888889028,0.9111111111111541,1.015243902438958,0.017422786544430226,0.8287778590081749,33.333333333333336,0.923076923051361,0.920731707317045,0.0,0.9904217324295675,0
183,174.38611111111112,0.8388888888889028,0.98888888888888,0.9111111111111541,0.920731707317045,0.02089171370413309,0.9937899262307359,36.111111111111114,0.9999999999723078,1.0853658536584758,0.0,0.9941628032153071,0
184,175.375,0.98888888888888,1.055555555555543,0.9111111111111541,1.0853658536584758,0.01744219325904175,0.8297010095814261,36.111111111111114,0.9999999999723078,1.1585365853657852,0.0,0.9894435152606847,0
185,176.43055555555554,1.055555555555543,0.9194444444444514,0.9111111111111541,1.1585365853657852,0.01720651301287835,0.8184900262333998,33.333333333333336,0.923076923051361,1.0091463414633748,0.0,0.9894401320018307,0
186,177.35,0.9194444444444514,0.9527777777777828,0.9111111111111541,1.0091463414633748,0.025341719424093936,1.2054705436657405,38.888888888888886,1.0769230768932543,1.0457317073170294,0.0,0.9986720823834557,0
187,178.30277777777778,0.9527777777777828,1.0527777777777771,0.9111111111111541,1.0457317073170294,0.0178923486626924,0.8511142795372479,36.111111111111114,0.9999999999723078,1.1554878048779935,0.0,0.9914245230097629,0
188,179.35555555555555,1.0527777777777771,0.99444444444444,0.9111111111111541,1.1554878048779935,0.018742835762194834,0.8915707745785095,36.111111111111114,0.9999999999723078,1.09146341463409,0.0,0.9909292486322772,0
189,180.35,0.99444444444444,0.8722222222222342,0.9111111111111541,1.09146341463409,0.019653862339593473,0.9349070488530378,33.333333333333336,0.923076923051361,0.9573170731706998,0.0,0.9952632777579669,0
190,181.22222222222223,0.8722222222222342,0.8583333333333201,0.9111111111111541,0.9573170731706998,0.01950398889443843,0.9277777763522802,36.111111111111114,0.9999999999723078,0.9420731707316483,0.0,0.9927304656099121,0
191,182.08055555555555,0.8583333333333201,0.8722222222222342,0.9111111111111541,0.9420731707316483,0.02532038808676263,1.204455841451595,36.111111111111114,0.9999999999723078,0.9573170731706998,0.0,0.9986841420047736,0
192,182.95277777777778,0.8722222222222342,0.875,0.9111111111111541,0.9573170731706998,0.022372230740606156,1.0642160739990176,38.888888888888886,1.0769230768932543,0.9603658536584914,0.0,0.9963347515124579,0
193,183.82777777777778,0.875,0.8333333333333144,0.9111111111111541,0.9603658536584914,0.025520095755978932,1.2139556590667921,38.888888888888886,1.0769230768932543,0.9146341463413995,0.0,0.9988059302889205,0
194,184.6611111111111,0.8333333333333144,0.8777777777777942,0.9111111111111541,0.9146341463413995,0.018056738774068375,0.8589340897725889,36.111111111111114,0.9999999999723078,0.9634146341463141,0.0,0.9909263485154595,0
195,185.5388888888889,0.8777777777777942,0.9583333333333428,0.9111111111111541,0.9634146341463141,0.02510320673686426,1.194124825013652,36.111111111111114,0.9999999999723078,1.0518292682926438,0.0,0.9987990602321457,0
196,186.49722222222223,0.9583333333333428,0.9083333333333314,0.9111111111111541,1.0518292682926438,0.022025707318305412,1.0477324340658631,38.888888888888886,1.0769230768932543,0.996951219512146,0.0,0.9977480136160679,0
197,187.40555555555557,0.9083333333333314,0.9277777777777771,0.9111111111111541,0.996951219512146,0.017550185865654096,0.8348380685167835,33.333333333333336,0.923076923051361,1.0182926829267807,0.0,0.9922577556461416,0
198,188.33333333333334,0.9277777777777771,1.2027777777777544,0.9111111111111541,1.0182926829267807,0.026426757249081684,1.2570842923185763,38.888888888888886,1.0769230768932543,1.3201219512194242,0.0,0.9988601405803765,0
199,189.5361111111111,1.2027777777777544,1.0277777777777999,0.9111111111111541,1.3201219512194242,0.018175015912064784,0.864560369641673,36.111111111111114,0.9999999999723078,1.128048780487776,0.0,0.9902205701616136,0
200,190.5638888888889,1.0277777777777999,1.0361111111110972,0.9111111111111541,1.128048780487776,0.021011662166550545,0.9994957086909727,36.111111111111114,0.9999999999723078,1.1371951219511507,0.0,0.9952040384108944,0
201,191.6,1.0361111111110972,1.0583333333333371,0.9111111111111541,1.1371951219511507,0.018404328891760337,0.8754684709301906,36.111111111111114,0.9999999999723078,1.161585365853608,0.0,0.9906694773617024,0
202,192.65833333333333,1.0583333333333371,1.0583333333333371,0.9111111111111541,1.161585365853608,0.0196511792333241,0.934779417198724,33.333333333333336,0.923076923051361,1.161585365853608,0.0,0.9903930039571733,0
203,193.71666666666667,1.0583333333333371,0.99444444444444,0.9111111111111541,1.161585365853608,0.02175998858408195,1.035092561386112,36.111111111111114,0.9999999999723078,1.09146341463409,0.0,0.9967136537896504,0
204,194.7111111111111,0.99444444444444,1.0416666666666572,0.9111111111111541,1.09146341463409,0.017442969090688314,0.8297379148198246,33.333333333333336,0.923076923051361,1.143292682926765,0.0,0.9904216668571434,0
205,195.75277777777777,1.0416666666666572,1.0277777777777999,0.9111111111111541,1.143292682926765,0.021315281597055594,1.0139384650735732,36.111111111111114,0.9999999999723078,1.128048780487776,0.0,0.9959512740495648,0
206,196.78055555555557,1.0277777777777999,0.9805555555555543,0.9111111111111541,1.128048780487776,0.024885429117994785,1.183765444885435,36.111111111111114,0.9999999999723078,1.0762195121950697,0.0,0.9992936368635084,0
207,197.76111111111112,0.9805555555555543,1.0416666666666572,0.9111111111111541,1.0762195121950697,0.024990378033684136,1.188757719653219,38.888888888888886,1.0769230768932543,1.143292682926765,0.0,0.9997905882714158,0
208,198.80277777777778,1.0416666666666572,1.0277777777777715,0.9111111111111541,1.143292682926765,0.016795708369377913,0.7989486175131196,33.333333333333336,0.923076923051361,1.1280487804877448,0.0,0.9887987818109343,0
209,199.83055555555555,1.0277777777777715,1.0250000000000057,0.9111111111111541,1.1280487804877448,0.017426402338086653,0.8289498573115203,33.333333333333336,0.923076923051361,1.1249999999999531,0.0,0.991740725505972,0
210,200.85555555555555,1.0250000000000057,0.9749999999999943,0.9111111111111541,1.1249999999999531,0.02052701443068599,0.9764416861969997,36.111111111111114,0.9999999999723078,1.0701219512194555,0.0,0.995080885529258,0
211,201.83055555555555,0.9749999999999943,0.9972222222222342,0.9111111111111541,1.0701219512194555,0.02026849986932805,0.9641445060565953,33.333333333333336,0.923076923051361,1.0945121951219128,0.0,0.9948910236602901,0
212,202.82777777777778,0.9972222222222342,1.00555555555556,0.9111111111111541,1.0945121951219128,0.019374106356072007,0.9215994436386603,33.333333333333336,0.923076923051361,1.1036585365853187,0.0,0.9891355107848145,0
213,203.83333333333334,1.00555555555556,0.9583333333333144,0.9111111111111541,1.1036585365853187,0.023788881981222962,1.131604214189199,33.333333333333336,0.923076923051361,1.0518292682926125,0.0,0.9948371862020243,0
214,204.79166666666666,0.9583333333333144,0.9833333333333485,0.9111111111111541,1.0518292682926125,0.0250462553125344,1.191415724526012,38.888888888888886,1.0769230768932543,1.0792682926828925,0.0,0.9994094267311462,0
215,205.775,0.9833333333333485,0.98888888888888,0.9111111111111541,1.0792682926828925,0.017297356057846762,0.822811304240377,33.333333333333336,0.923076923051361,1.0853658536584758,0.0,0.9907791654815183,0
216,206.76388888888889,0.98888888888888,1.0083333333333258,0.9111111111111541,1.0853658536584758,0.02465252217472356,1.172686383720321,36.111111111111114,0.9999999999723078,1.1067073170731103,0.0,0.9990375360574083,0
217,207.7722222222222,1.0083333333333258,0.9305555555555713,0.9111111111111541,1.1067073170731103,0.025187501213972566,1.198134596704643,38.888888888888886,1.0769230768932543,1.0213414634146034,0.0,0.9983109480127319,0
218,208.70277777777778,0.9305555555555713,0.9361111111111029,0.9111111111111541,1.0213414634146034,0.025154009216711456,1.1965414287166645,36.111111111111114,0.9999999999723078,1.0274390243901865,0.0,0.9991063657636443,0
219,209.63888888888889,0.9361111111111029,1.0083333333333258,0.9111111111111541,1.0274390243901865,0.01732793250131321,0.8242657833667546,33.333333333333336,0.923076923051361,1.1067073170731103,0.0,0.9918082249995203,0
220,210.6472222222222,1.0083333333333258,1.0027777777777942,0.9111111111111541,1.1067073170731103,0.024891377142371836,1.184048384178525,38.888888888888886,1.0769230768932543,1.1006097560975272,0.0,0.9995026649520767,0
221,211.65,1.0027777777777942,0.924999999999983,0.9111111111111541,1.1006097560975272,0.02513471096193327,1.195623437427678,38.888888888888886,1.0769230768932543,1.015243902438958,0.0,0.9996666938003729,0
222,212.575,0.924999999999983,0.9472222222222229,0.9111111111111541,1.015243902438958,0.02513580615490538,1.1956755342426342,36.111111111111114,0.9999999999723078,1.0396341463414152,0.0,0.9991890557467102,0
223,213.5222222222222,0.9472222222222229,1.01666666666668,0.9111111111111541,1.0396341463414152,0.01781301585766522,0.8473405277248229,33.333333333333336,0.923076923051361,1.1158536585365473,0.0,0.9898148707119258,0
224,214.5388888888889,1.01666666666668,0.9861111111111143,0.9111111111111541,1.1158536585365473,0.022032072552301215,1.0480352194434879,38.888888888888886,1.0769230768932543,1.0823170731706842,0.0,0.9966003820640235,0
225,215.525,0.9861111111111143,0.8972222222222115,0.9111111111111541,1.0823170731706842,0.024716511723709634,1.1757302780636476,36.111111111111114,0.9999999999723078,0.9847560975609174,0.0,0.9992368990953898,0
226,216.42222222222222,0.8972222222222115,0.8944444444444457,0.9111111111111541,0.9847560975609174,0.018231445938700984,0.8672446679621547,36.111111111111114,0.9999999999723078,0.9817073170731259,0.0,0.9913139610383457,0
227,217.31666666666666,0.8944444444444457,0.9166666666666572,0.9111111111111541,0.9817073170731259,0.01769116474812535,0.8415442389724643,33.333333333333336,0.923076923051361,1.006097560975552,0.0,0.9915148161254335,0
228,218.23333333333332,0.9166666666666572,0.8638888888889085,0.9111111111111541,1.006097560975552,0.025555747065871808,1.2156515425701861,38.888888888888886,1.0769230768932543,0.9481707317072938,0.0,0.9996044571610547,0
229,219.09722222222223,0.8638888888889085,0.8777777777777658,0.9111111111111541,0.9481707317072938,0.020928936208233037,0.9955605492694908,38.888888888888886,1.0769230768932543,0.9634146341462829,0.0,0.9953211554565524,0
230,219.975,0.8777777777777658,0.8777777777777942,0.9111111111111541,0.9634146341462829,0.026001557547526755,1.236858130595998,38.888888888888886,1.0769230768932543,0.9634146341463141,0.0,0.9992975800581996,0
231,220.8527777777778,0.8777777777777942,0.8944444444444457,0.9111111111111541,0.9634146341463141,0.01827977547056719,0.8695436369499684,36.111111111111114,0.9999999999723078,0.9817073170731259,0.0,0.99018170731229,0
232,221.74722222222223,0.8944444444444457,0.8805555555555316,0.9111111111111541,0.9817073170731259,0.02083686546368053,0.9911808712912911,36.111111111111114,0.9999999999723078,0.9664634146340745,0.0,0.9952442574621414,0
233,222.62777777777777,0.8805555555555316,0.9444444444444571,0.9111111111111541,0.9664634146340745,0.01850917880457772,0.8804560362682832,36.111111111111114,0.9999999999723078,1.0365853658536235,0.0,0.9919521462374159,0
234,223.57222222222222,0.9444444444444571,0.9916666666666742,0.9111111111111541,1.0365853658536235,0.025291685943536046,1.2030905201953415,38.888888888888886,1.0769230768932543,1.0884146341462986,0.0,0.9997956539080419,0
235,224.5638888888889,0.9916666666666742,0.9861111111111143,0.9111111111111541,1.0884146341462986,0.02067499178538782,0.9834807642973212,36.111111111111114,0.9999999999723078,1.0823170731706842,0.0,0.9933410690101299,0
236,225.55,0.9861111111111143,0.8861111111110915,0.9111111111111541,1.0823170731706842,0.01804623058105084,0.8584342295642974,36.111111111111114,0.9999999999723078,0.9725609756096888,0.0,0.9917316988282188,0
237,226.4361111111111,0.8861111111110915,0.9333333333333371,0.9111111111111541,0.9725609756096888,0.025087452971517654,1.1933754401846535,33.333333333333336,0.923076923051361,1.0243902439023949,0.0,0.994269018768948,0
238,227.36944444444444,0.9333333333333371,0.8916666666666799,0.9111111111111541,1.0243902439023949,0.020695751515145997,0.9844682759297857,36.111111111111114,0.9999999999723078,0.9786585365853343,0.0,0.9916581230522454,0
239,228.26111111111112,0.8916666666666799,0.8416666666666686,0.9111111111111541,0.9786585365853343,0.01931356923639592,0.9187197765826629,33.333333333333336,0.923076923051361,0.9237804878048366,0.0,0.9891154326867273,0
240,229.1027777777778,0.8416666666666686,0.8805555555555316,0.9111111111111541,0.9237804878048366,0.02446690408495797,1.163856787912738,36.111111111111114,0.9999999999723078,0.9664634146340745,0.0,0.9994985266447318,0
241,229.98333333333332,0.8805555555555316,0.88055555555556,0.9111111111111541,0.9664634146340745,0.021814605972969872,1.0376906350359103,38.888888888888886,1.0769230768932543,0.9664634146341057,0.0,0.9971785285525439,0
242,230.86388888888888,0.88055555555556,0.8222222222222229,0.9111111111111541,0.9664634146341057,0.022306805640040436,1.0611038924525138,38.888888888888886,1.0769230768932543,0.9024390243902021,0.0,0.9967301883556229,0
243,231.6861111111111,0.8222222222222229,0.8361111111111086,0.9111111111111541,0.9024390243902021,0.024679086711886577,1.1739500220125865,36.111111111111114,0.9999999999723078,0.9176829268292223,0.0,0.9978092527966733,0
244,232.5222222222222,0.8361111111111086,0.8722222222222342,0.9111111111111541,0.9176829268292223,0.017574667866523196,0.836002643437838,33.333333333333336,0.923076923051361,0.9573170731706998,0.0,0.9898243568398535,0
245,233.39444444444445,0.8722222222222342,0.8388888888888744,0.9111111111111541,0.9573170731706998,0.02571753341994867,1.2233474956719834,38.888888888888886,1.0769230768932543,0.9207317073170138,0.0,0.9991099550944813,0
246,234.23333333333332,0.8388888888888744,0.8055555555555713,0.9111111111111541,0.9207317073170138,0.018447649978756496,0.8775291951225593,36.111111111111114,0.9999999999723078,0.8841463414633903,0.0,0.9903241439806088,0
247,235.0388888888889,0.8055555555555713,0.8333333333333428,0.9111111111111541,0.8841463414633903,0.018408853376969965,0.8756836944339389,36.111111111111114,0.9999999999723078,0.9146341463414307,0.0,0.9907987110348204,0
248,235.87222222222223,0.8333333333333428,0.8666666666666458,0.9111111111111541,0.9146341463414307,0.017661051942249553,0.8401118144450314,33.333333333333336,0.923076923051361,0.9512195121950542,0.0,0.9906802669099748,0
249,236.73888888888888,0.8666666666666458,0.8555555555555543,0.9111111111111541,0.9512195121950542,0.018781873367192555,0.8934277394565623,36.111111111111114,0.9999999999723078,0.9390243902438568,0.0,0.991250192681002,0
250,237.59444444444443,0.8555555555555543,0.9472222222222229,0.9111111111111541,0.9390243902438568,0.01817758899188094,0.8646827674897816,36.111111111111114,0.9999999999723078,1.0396341463414152,0.0,0.9913738918145056,0
251,238.54166666666666,0.9472222222222229,0.9972222222222342,0.9111111111111541,1.0396341463414152,0.025381423777701945,1.2073592248530256,38.888888888888886,1.0769230768932543,1.0945121951219128,0.0,0.9992970264883108,0
252,239.5388888888889,0.9972222222222342,0.9638888888888744,0.9111111111111541,1.0945121951219128,0.02186871151907604,1.0402643610324946,38.888888888888886,1.0769230768932543,1.057926829268227,0.0,0.9975307076757991,0
253,240.50277777777777,0.9638888888888744,1.0472222222222456,0.9111111111111541,1.057926829268227,0.020647671442218008,0.9821811733586442,33.333333333333336,0.923076923051361,1.1493902439024104,0.0,0.9956915556522855,0
254,241.55,1.0472222222222456,1.0083333333333258,0.9111111111111541,1.1493902439024104,0.02165184418105527,1.0299482817052694,38.888888888888886,1.0769230768932543,1.1067073170731103,0.0,0.9969013640222257,0
255,242.55833333333334,1.0083333333333258,0.924999999999983,0.9111111111111541,1.1067073170731103,0.017903362281570717,0.8516381821546982,36.111111111111114,0.9999999999723078,1.015243902438958,0.0,0.9899909577086929,0
256,243.48333333333332,0.924999999999983,0.9777777777777885,0.9111111111111541,1.015243902438958,0.02036519779021783,0.9687442924134565,36.111111111111114,0.9999999999723078,1.0731707317072783,0.0,0.9932781772177854,0
257,244.4611111111111,0.9777777777777885,0.9055555555555657,0.9111111111111541,1.0731707317072783,0.02562617545194191,1.219001723488246,38.888888888888886,1.0769230768932543,0.9939024390243545,0.0,0.9990302622401201,0
258,245.36666666666667,0.9055555555555657,0.8499999999999943,0.9111111111111541,0.9939024390243545,0.020385880299526853,0.9697281307759559,33.333333333333336,0.923076923051361,0.9329268292682424,0.0,0.992876589014944,0
259,246.21666666666667,0.8499999999999943,0.8333333333333428,0.9111111111111541,0.9329268292682424,0.02512042124890769,1.1949436955427055,36.111111111111114,0.9999999999723078,0.9146341463414307,0.0,0.9997377294661902,0
260,247.05,0.8333333333333428,0.8861111111110915,0.9111111111111541,0.9146341463414307,0.02014120107991294,0.9580890787070869,36.111111111111114,0.9999999999723078,0.9725609756096888,0.0,0.9920806752753717,0
261,247.9361111111111,0.8861111111110915,0.9916666666666742,0.9111111111111541,0.9725609756096888,0.02108174769142755,1.0028295801762774,38.888888888888886,1.0769230768932543,1.0884146341462986,0.0,0.9950004004764991,0
262,248.92777777777778,0.9916666666666742,0.9638888888889028,0.9111111111111541,1.0884146341462986,0.02473410036155621,1.1765669452397152,36.111111111111114,0.9999999999723078,1.057926829268258,0.0,0.9997436868503191,0
263,249.89166666666668,0.9638888888889028,0.9583333333333144,0.9111111111111541,1.057926829268258,0.019594731116569546,0.9320942583563321,33.333333333333336,0.923076923051361,1.0518292682926125,0.0,0.9902204617956827,0
264,250.85,0.9583333333333144,1.0944444444444628,0.9111111111111541,1.0518292682926125,0.017457206170008517,0.8304151529922282,33.333333333333336,0.923076923051361,1.2012195121950855,0.0,0.9893864470348064,0
265,251.94444444444446,1.0944444444444628,1.11388888888888,0.9111111111111541,1.2012195121950855,0.02498093032631812,1.1883083052806458,36.111111111111114,0.9999999999723078,1.2225609756096887,0.0,0.9989618572686702,0
266,253.05833333333334,1.11388888888888,1.0166666666666515,0.9111111111111541,1.2225609756096887,0.016599370512004875,0.7896090971866253,33.333333333333336,0.923076923051361,1.1158536585365162,0.0,0.9878577510371633,0
267,254.075,1.0166666666666515,1.0250000000000057,0.9111111111111541,1.1158536585365162,0.017050347466884854,0.8110614471981646,33.333333333333336,0.923076923051361,1.1249999999999531,0.0,0.989168492339707,0
268,255.1,1.0250000000000057,1.0583333333333655,0.9111111111111541,1.1249999999999531,0.025097130444456786,1.1938357841877583,36.111111111111114,0.9999999999723078,1.161585365853639,0.0,0.9997201813324924,0
269,256.15833333333336,1.0583333333333655,0.9861111111110858,0.9111111111111541,1.161585365853639,0.016909978717739905,0.8043842999409598,33.333333333333336,0.923076923051361,1.082317073170653,0.0,0.9881158794011808,0
270,257.14444444444445,0.9861111111110858,0.8999999999999773,0.9111111111111541,1.082317073170653,0.018548362272374094,0.8823199396379297,33.333333333333336,0.923076923051361,0.987804878048709,0.0,0.983812147163007,0
271,258.0444444444444,0.8999999999999773,1.01111111111112,0.9111111111111541,0.987804878048709,0.019628112045187683,0.93368214296258,33.333333333333336,0.923076923051361,1.109756097560933,0.0,0.9949883028902571,0
272,259.05555555555554,1.01111111111112,1.0388888888888914,0.9111111111111541,1.109756097560933,0.021709449567519738,1.0326884902671782,36.111111111111114,0.9999999999723078,1.1402439024389734,0.0,0.996684481135321,0
273,260.09444444444443,1.0388888888888914,0.9416666666666629,0.9111111111111541,1.1402439024389734,0.017036515031049408,0.8104034573566812,33.333333333333336,0.923076923051361,1.0335365853658007,0.0,0.9903875501859893,0
274,261.0361111111111,0.9416666666666629,0.8833333333333258,0.9111111111111541,1.0335365853658007,0.02077322977295671,0.9881538094960896,36.111111111111114,0.9999999999723078,0.9695121951218972,0.0,0.9951935192607602,0
275,261.9194444444444,0.8833333333333258,1.0055555555555884,0.9111111111111541,0.9695121951218972,0.02219250738805146,1.0556668826877305,38.888888888888886,1.0769230768932543,1.10365853658535,0.0,0.9974446050867364,0
276,262.925,1.0055555555555884,0.9944444444444116,0.9111111111111541,1.10365853658535,0.021005105864499538,0.9991838344702223,36.111111111111114,0.9999999999723078,1.091463414634059,0.0,0.9942375560864689,0
277,263.9194444444444,0.9944444444444116,0.8944444444444457,0.9111111111111541,1.091463414634059,0.025242300342910008,1.2007413154772384,38.888888888888886,1.0769230768932543,0.9817073170731259,0.0,0.9991472878591516,0
278,264.81388888888887,0.8944444444444457,0.9194444444444798,0.9111111111111541,0.9817073170731259,0.019666423057937976,0.9355045448523497,33.333333333333336,0.923076923051361,1.0091463414634059,0.0,0.9898586347022615,0
279,265.73333333333335,0.9194444444444798,0.9666666666666401,0.9111111111111541,1.0091463414634059,0.02623007346932761,1.2477283169428506,38.888888888888886,1.0769230768932543,1.0609756097560183,0.0,0.9989031957438879,0
280,266.7,0.9666666666666401,0.8972222222222399,0.9111111111111541,1.0609756097560183,0.017556735520930143,0.8351496265596421,33.333333333333336,0.923076923051361,0.9847560975609486,0.0,0.9903582012162271,0
281,267.59722222222223,0.8972222222222399,0.8472222222222285,0.9111111111111541,0.9847560975609486,0.017661416045981523,0.8401291343559807,33.333333333333336,0.923076923051361,0.9298780487804509,0.0,0.9893729098853987,0
282,268.44444444444446,0.8472222222222285,0.9472222222221944,0.9111111111111541,0.9298780487804509,0.020463385250998823,0.9734149341228066,36.111111111111114,0.9999999999723078,1.0396341463413838,0.0,0.9951299111802947,0
283,269.39166666666665,0.9472222222221944,1.025000000000034,0.9111111111111541,1.0396341463413838,0.020745363459712365,0.9868282475160811,36.111111111111114,0.9999999999723078,1.1249999999999845,0.0,0.9947654686685222,0
284,270.4166666666667,1.025000000000034,0.9138888888888914,0.9111111111111541,1.1249999999999845,0.01700758665775569,0.809027374649026,33.333333333333336,0.923076923051361,1.0030487804877604,0.0,0.9897382321271376,0
285,271.3305555555556,0.9138888888888914,1.0027777777777374,0.9111111111111541,1.0030487804877604,0.025387841409027036,1.2076645026991353,36.111111111111114,0.9999999999723078,1.1006097560974648,0.0,0.9986947589380766,0
286,272.3333333333333,1.0027777777777374,1.036111111111154,0.9111111111111541,1.1006097560974648,0.01895321518287238,0.9015782326509529,36.111111111111114,0.9999999999723078,1.137195121951213,0.0,0.9903485439897237,0
287,273.36944444444447,1.036111111111154,0.875,0.9111111111111541,1.137195121951213,0.024990856934168547,1.1887805002869103,36.111111111111114,0.9999999999723078,0.9603658536584914,0.0,0.9996749107627168,0
288,274.24444444444447,0.875,0.8611111111110858,0.9111111111111541,0.9603658536584914,0.020309855929971053,0.9661117566631108,33.333333333333336,0.923076923051361,0.9451219512194399,0.0,0.9925101809262875,0
289,275.10555555555555,0.8611111111110858,0.9305555555555429,0.9111111111111541,0.9451219512194399,0.02538005631408998,1.2072941765003007,38.888888888888886,1.0769230768932543,1.021341463414572,0.0,0.9981545713314528,0
290,276.0361111111111,0.9305555555555429,0.9111111111110972,0.9111111111111541,1.021341463414572,0.021043254279518735,1.0009985018108076,33.333333333333336,0.923076923051361,0.9999999999999376,0.0,0.9926427291032619,0
291,276.9472222222222,0.9111111111110972,0.8583333333333485,0.9111111111111541,0.9999999999999376,0.021651043851303016,1.0299102111258656,38.888888888888886,1.0769230768932543,0.9420731707316795,0.0,0.9961429991466184,0
292,277.80555555555554,0.8583333333333485,0.88611111111112,0.9111111111111541,0.9420731707316795,0.024620513102917897,1.1711637564452702,36.111111111111114,0.9999999999723078,0.97256097560972,0.0,0.9982908519244578,0
293,278.69166666666666,0.88611111111112,0.9333333333333371,0.9111111111111541,0.97256097560972,0.019216572928481813,0.9141057963677444,33.333333333333336,0.923076923051361,1.0243902439023949,0.0,0.9905859144516209,0
294,279.625,0.9333333333333371,0.8944444444444457,0.9111111111111541,1.0243902439023949,0.018467502975925323,0.8784735747398219,36.111111111111114,0.9999999999723078,0.9817073170731259,0.0,0.9922363996887225,0
295,280.51944444444445,0.8944444444444457,0.9750000000000227,0.9111111111111541,0.9817073170731259,0.0212174443392153,1.0092844820337574,36.111111111111114,0.9999999999723078,1.0701219512194866,0.0,0.9950555052704542,0
296,281.49444444444447,0.9750000000000227,1.0916666666666401,0.9111111111111541,1.0701219512194866,0.025325447549903766,1.2046965131156337,36.111111111111114,0.9999999999723078,1.1981707317072314,0.0,0.9986752797627254,0
297,282.5861111111111,1.0916666666666401,0.9861111111110858,0.9111111111111541,1.1981707317072314,0.0251881673962775,1.198166286075513,38.888888888888886,1.0769230768932543,1.082317073170653,0.0,0.9997790103559452,0
298,283.5722222222222,0.9861111111110858,0.9194444444444798,0.9111111111111541,1.082317073170653,0.02076140185872456,0.9875911719748839,33.333333333333336,0.923076923051361,1.0091463414634059,0.0,0.9947235638120705,0
299,284.4916666666667,0.9194444444444798,0.9972222222222058,0.9111111111111541,1.0091463414634059,0.025415810345242165,1.2089949463119294,36.111111111111114,0.9999999999723078,1.0945121951218817,0.0,0.99976282946335,0
300,285.4888888888889,0.9972222222222058,1.055555555555543,0.9111111111111541,1.0945121951218817,0.017135657090340765,0.815119507996894,33.333333333333336,0.923076923051361,1.1585365853657852,0.0,0.9894995072630899,0
301,286.5444444444444,1.055555555555543,0.9583333333333712,0.9111111111111541,1.1585365853657852,0.021967291750317697,1.04495368628943,38.888888888888886,1.0769230768932543,1.0518292682926749,0.0,0.9959579674472359,0
302,287.5027777777778,0.9583333333333712,0.9444444444444002,0.9111111111111541,1.0518292682926749,0.01798804837042584,0.8556665822748593,33.333333333333336,0.923076923051361,1.036585365853561,0.0,0.9903479432541218,0
303,288.4472222222222,0.9444444444444002,0.9916666666666742,0.9111111111111541,1.036585365853561,0.017931595574369148,0.8529812008445365,36.111111111111114,0.9999999999723078,1.0884146341462986,0.0,0.9901562260564318,0
304,289.43888888888887,0.9916666666666742,0.9305555555555998,0.9111111111111541,1.0884146341462986,0.024528253131394184,1.1667750772017642,36.111111111111114,0.9999999999723078,1.0213414634146345,0.0,0.9975798241407784,0
305,290.36944444444447,0.9305555555555998,0.8833333333333258,0.9111111111111541,1.0213414634146345,0.024913146522423723,1.1850839234790456,38.888888888888886,1.0769230768932543,0.9695121951218972,0.0,0.9994231577568199,0
306,291.2527777777778,0.8833333333333258,0.9388888888888687,0.9111111111111541,0.9695121951218972,0.019113405381500706,0.909198258845656,36.111111111111114,0.9999999999723078,1.030487804877978,0.0,0.9912878180511522,0
307,292.19166666666666,0.9388888888888687,1.0722222222222513,0.9111111111111541,1.030487804877978,0.021375315085436365,1.016794175085409,36.111111111111114,0.9999999999723078,1.1768292682926593,0.0,0.9954193357440873,0
308,293.2638888888889,1.0722222222222513,1.0638888888888687,0.9111111111111541,1.1768292682926593,0.017978081538688476,0.8551924738739257,36.111111111111114,0.9999999999723078,1.167682926829191,0.0,0.9891407235474321,0
309,294.3277777777778,1.0638888888888687,0.9666666666666401,0.9111111111111541,1.167682926829191,0.017749643147019187,0.8443259755282023,36.111111111111114,0.9999999999723078,1.0609756097560183,0.0,0.9892928902027105,0
310,295.2944444444444,0.9666666666666401,0.955555555555577,0.9111111111111541,1.0609756097560183,0.025229228335485913,1.2001194981635581,38.888888888888886,1.0769230768932543,1.0487804878048521,0.0,0.9996826304836202,0
311,296.25,0.955555555555577,0.9361111111111313,0.9111111111111541,1.0487804878048521,0.02520638926635386,1.1990330752329474,36.111111111111114,0.9999999999723078,1.0274390243902176,0.0,0.9995718664919726,0
312,297.18611111111113,0.9361111111111313,0.875,0.9111111111111541,1.0274390243902176,0.01989498928074494,0.946377123948493,33.333333333333336,0.923076923051361,0.9603658536584914,0.0,0.9917659498554757,0
313,298.06111111111113,0.875,0.8805555555555316,0.9111111111111541,0.9603658536584914,0.01779116307257625,0.8463010209620432,33.333333333333336,0.923076923051361,0.9664634146340745,0.0,0.9900769303430725,0
314,298.94166666666666,0.8805555555555316,0.8555555555555543,0.9111111111111541,0.9664634146340745,0.01808309276156378,0.8601877125083707,36.111111111111114,0.9999999999723078,0.9390243902438568,0.0,0.9905250477522471,0
315,299.7972222222222,0.8555555555555543,0.9305555555555429,0.9111111111111541,0.9390243902438568,0.01819825036297133,0.8656656003364561,36.111111111111114,0.9999999999723078,1.021341463414572,0.0,0.9903101144608579,0
316,300.72777777777776,0.9305555555555429,0.9083333333333599,0.9111111111111541,1.021341463414572,0.02512160917020013,1.1950002033156104,36.111111111111114,0.9999999999723078,0.9969512195121772,0.0,0.9993215715756805,0
317,301.6361111111111,0.9083333333333599,0.9222222222222172,0.9111111111111541,0.9969512195121772,0.0212084931488845,1.008858686289832,38.888888888888886,1.0769230768932543,1.0121951219511662,0.0,0.9955214920113855,0
318,302.55833333333334,0.9222222222222172,1.0083333333333258,0.9111111111111541,1.0121951219511662,0.02507909032198308,1.1929776405124124,38.888888888888886,1.0769230768932543,1.1067073170731103,0.0,0.9993186119477224,0
319,303.56666666666666,1.0083333333333258,1.0277777777777715,0.9111111111111541,1.1067073170731103,0.021400058923781957,1.017971205253081,38.888888888888886,1.0769230768932543,1.1280487804877448,0.0,0.9954913850004394,0
320,304.59444444444443,1.0277777777777715,0.9361111111111313,0.9111111111111541,1.1280487804877448,0.024591418212614197,1.1697797527537548,38.888888888888886,1.0769230768932543,1.0274390243902176,0.0,0.9994634098358344,0
321,305.53055555555557,0.9361111111111313,1.01111111111112,0.9111111111111541,1.0274390243902176,0.025567994720443826,1.2162341465588296,38.888888888888886,1.0769230768932543,1.109756097560933,0.0,0.9989338666582829,0
322,306.5416666666667,1.01111111111112,1.0777777777777828,0.9111111111111541,1.109756097560933,0.02468127081977093,1.174053917003874,36.111111111111114,0.9999999999723078,1.1829268292682424,0.0,0.9967038051739778,0
323,307.61944444444447,1.0777777777777828,1.0277777777777715,0.9111111111111541,1.1829268292682424,0.017461594844231088,0.8306239161551581,36.111111111111114,0.9999999999723078,1.1280487804877448,0.0,0.9894335489106754,0
324,308.64722222222224,1.0277777777777715,0.9249999999999545,0.9111111111111541,1.1280487804877448,0.018452311092002644,0.8777509178330388,36.111111111111114,0.9999999999723078,1.0152439024389266,0.0,0.9915944564932299,0
325,309.5722222222222,0.9249999999999545,0.9833333333333485,0.9111111111111541,1.0152439024389266,0.018592852956043536,0.8844362999264138,36.111111111111114,0.9999999999723078,1.0792682926828925,0.0,0.9911186277845789,0
326,310.55555555555554,0.9833333333333485,1.0749999999999886,0.9111111111111541,1.0792682926828925,0.022113192476575734,1.0518939820468,38.888888888888886,1.0769230768932543,1.1798780487804197,0.0,0.9968921925735047,0
327,311.63055555555553,1.0749999999999886,0.9750000000000227,0.9111111111111541,1.1798780487804197,0.01936780844104607,0.9212998605313255,33.333333333333336,0.923076923051361,1.0701219512194866,0.0,0.9913410739813076,0
328,312.60555555555555,0.9750000000000227,0.8972222222222399,0.9111111111111541,1.0701219512194866,0.020488527968783206,0.9746109384337042,36.111111111111114,0.9999999999723078,0.9847560975609486,0.0,0.9934849534187863,0
329,313.5027777777778,0.8972222222222399,0.9444444444444002,0.9111111111111541,0.9847560975609486,0.017082125705344026,0.8125730940501812,33.333333333333336,0.923076923051361,1.036585365853561,0.0,0.9889908934386562,0
330,314.4472222222222,0.9444444444444002,0.9861111111111427,0.9111111111111541,1.036585365853561,0.01912273746107313,0.9096421729640092,33.333333333333336,0.923076923051361,1.0823170731707155,0.0,0.9904225299643629,0
331,315.43333333333334,0.9861111111111427,0.9055555555555657,0.9111111111111541,1.0823170731707155,0.018151179641972038,0.8634265112405597,36.111111111111114,0.9999999999723078,0.9939024390243545,0.0,0.9917134662570037,0
332,316.3388888888889,0.9055555555555657,0.8944444444444457,0.9111111111111541,0.9939024390243545,0.020693639586755342,0.9843678144171842,36.111111111111114,0.9999999999723078,0.9817073170731259,0.0,0.9941710345446836,0
333,317.23333333333335,0.8944444444444457,0.9416666666666629,0.9111111111111541,0.9817073170731259,0.020357035264462732,0.9683560123526201,36.111111111111114,0.9999999999723078,1.0335365853658007,0.0,0.991799983897295,0
334,318.175,0.9416666666666629,0.9305555555555429,0.9111111111111541,1.0335365853658007,0.02488289780736858,1.1836450339399227,36.111111111111114,0.9999999999723078,1.021341463414572,0.0,0.999388424929019,0
335,319.10555555555555,0.9305555555555429,0.8916666666666515,0.9111111111111541,1.021341463414572,0.02097177476763969,0.9975983202917954,36.111111111111114,0.9999999999723078,0.9786585365853031,0.0,0.9943960954760438,0
336,319.9972222222222,0.8916666666666515,0.9250000000000114,0.9111111111111541,0.9786585365853031,0.017640028542663177,0.8391117604035129,33.333333333333336,0.923076923051361,1.015243902438989,0.0,0.9901985297304788,0
337,320.9222222222222,0.9250000000000114,0.9499999999999886,0.9111111111111541,1.015243902438989,0.025108066764796055,1.1943560098206152,38.888888888888886,1.0769230768932543,1.0426829268292066,0.0,0.9994988398520812,0
338,321.8722222222222,0.9499999999999886,0.9027777777777715,0.9111111111111541,1.0426829268292066,0.0181100686363227,0.861470917561165,36.111111111111114,0.9999999999723078,0.9908536585365317,0.0,0.9906458325009534,0
339,322.775,0.9027777777777715,0.9138888888888914,0.9111111111111541,0.9908536585365317,0.017432997061534537,0.8292635591849806,33.333333333333336,0.923076923051361,1.0030487804877604,0.0,0.9907570973246396,0
340,323.68888888888887,0.9138888888888914,1.0055555555555884,0.9111111111111541,1.0030487804877604,0.018085372426780884,0.8602961530298148,36.111111111111114,0.9999999999723078,1.10365853658535,0.0,0.9900110460427427,0
341,324.69444444444446,1.0055555555555884,1.0361111111110972,0.9111111111111541,1.10365853658535,0.02426308742142827,1.154161511121074,36.111111111111114,0.9999999999723078,1.1371951219511507,0.0,0.9976776124902857,0
342,325.73055555555555,1.0361111111110972,0.8999999999999773,0.9111111111111541,1.1371951219511507,0.018456625174110713,0.8779561327522478,36.111111111111114,0.9999999999723078,0.987804878048709,0.0,0.9919328633334457,0
343,326.63055555555553,0.8999999999999773,0.9444444444444571,0.9111111111111541,0.987804878048709,0.021382548601216352,1.017138263426614,38.888888888888886,1.0769230768932543,1.0365853658536235,0.0,0.9959725109417711,0
344,327.575,0.9444444444444571,1.0666666666666629,0.9111111111111541,1.0365853658536235,0.022091719765432557,1.0508725548759534,38.888888888888886,1.0769230768932543,1.1707317073170138,0.0,0.9973592093013846,0
345,328.64166666666665,1.0666666666666629,0.9055555555555657,0.9111111111111541,1.1707317073170138,0.017615684407455912,0.8379537435613142,36.111111111111114,0.9999999999723078,0.9939024390243545,0.0,0.9915062174968641,0
346,329.5472222222222,0.9055555555555657,0.9166666666666856,0.9111111111111541,0.9939024390243545,0.020995744805621934,0.998738541846402,36.111111111111114,0.9999999999723078,1.0060975609755831,0.0,0.9950326062768975,0
347,330.4638888888889,0.9166666666666856,0.9499999999999886,0.9111111111111541,1.0060975609755831,0.018182045892694506,0.8648947760972829,36.111111111111114,0.9999999999723078,1.0426829268292066,0.0,0.9912302426683823,0
348,331.4138888888889,0.9499999999999886,0.9777777777777601,0.9111111111111541,1.0426829268292066,0.017627684950917974,0.8385245928162287,33.333333333333336,0.923076923051361,1.073170731707247,0.0,0.9901070057330783,0
349,332.39166666666665,0.9777777777777601,0.8944444444444457,0.9111111111111541,1.073170731707247,0.020535989922590658,0.9768686379331829,33.333333333333336,0.923076923051361,0.9817073170731259,0.0,0.9945423262862562,0
350,333.2861111111111,0.8944444444444457,0.9194444444444798,0.9111111111111541,0.9817073170731259,0.02512739929119798,1.195275631363343,36.111111111111114,0.9999999999723078,1.0091463414634059,0.0,0.9990510878422751,0
351,334.2055555555556,0.9194444444444798,0.9638888888888459,0.9111111111111541,1.0091463414634059,0.02487648628606532,1.1833400467391009,36.111111111111114,0.9999999999723078,1.0579268292681956,0.0,0.996832867915602,0
352,335.1694444444444,0.9638888888888459,0.9916666666666742,0.9111111111111541,1.0579268292681956,0.02067178354434832,0.9833281527082899,36.111111111111114,0.9999999999723078,1.0884146341462986,0.0,0.9955259136072929,0
353,336.1611111111111,0.9916666666666742,0.8833333333333258,0.9111111111111541,1.0884146341462986,0.02571376349027717,1.2231681653315818,38.888888888888886,1.0769230768932543,0.9695121951218972,0.0,0.9997067648693099,0
354,337.0444444444444,0.8833333333333258,0.966666666666697,0.9111111111111541,0.9695121951218972,0.018017868217395774,0.8570850711523228,36.111111111111114,0.9999999999723078,1.0609756097560807,0.0,0.9907292062854225,0
355,338.0111111111111,0.966666666666697,0.9916666666666742,0.9111111111111541,1.0609756097560807,0.024855017042260178,1.182318784504729,36.111111111111114,0.9999999999723078,1.0884146341462986,0.0,0.9983658419084349,0
356,339.0027777777778,0.9916666666666742,0.88611111111112,0.9111111111111541,1.0884146341462986,0.01740228754776198,0.8278027500881868,33.333333333333336,0.923076923051361,0.97256097560972,0.0,0.9909210265950446,0
357,339.8888888888889,0.88611111111112,0.8527777777777601,0.9111111111111541,0.97256097560972,0.017277442615343884,0.8218640493221737,33.333333333333336,0.923076923051361,0.935975609756034,0.0,0.9909124149504781,0
358,340.7416666666667,0.8527777777777601,0.9305555555555429,0.9111111111111541,0.935975609756034,0.024908837494436013,1.1848789489773517,36.111111111111114,0.9999999999723078,1.021341463414572,0.0,0.9996796498662903,0
359,341.6722222222222,0.9305555555555429,0.9777777777777601,0.9111111111111541,1.021341463414572,0.025780792188366833,1.2263566277944142,38.888888888888886,1.0769230768932543,1.073170731707247,0.0,0.9988684294963803,0
360,342.65,0.9777777777777601,0.8916666666667084,0.9111111111111541,1.073170731707247,0.024879987488466183,1.1835065940949065,38.888888888888886,1.0769230768932543,0.9786585365853655,0.0,0.9996907462877909,0
361,343.5416666666667,0.8916666666667084,0.8916666666666515,0.9111111111111541,0.9786585365853655,0.019315620144881893,0.9188173354627934,33.333333333333336,0.923076923051361,0.9786585365853031,0.0,0.9869143608768177,0
362,344.43333333333334,0.8916666666666515,1.0638888888888687,0.9111111111111541,0.9786585365853031,0.025997750269109353,1.2366770236274096,38.888888888888886,1.0769230768932543,1.167682926829191,0.0,0.9995496406012392,0
363,345.4972222222222,1.0638888888888687,1.0444444444444798,0.9111111111111541,1.167682926829191,0.025536973137920537,1.2147584927831758,38.888888888888886,1.0769230768932543,1.146341463414619,0.0,0.9992713231965074,0
364,346.5416666666667,1.0444444444444798,0.9111111111110972,0.9111111111111541,1.146341463414619,0.025197741800668003,1.1986217272503104,36.111111111111114,0.9999999999723078,0.9999999999999376,0.0,0.9991641074850603,0
365,347.4527777777778,0.9111111111110972,0.9444444444444571,0.9111111111111541,0.9999999999999376,0.02524505427698616,1.200872316312361,36.111111111111114,0.9999999999723078,1.0365853658536235,0.0,0.9983796948173211,0
366,348.39722222222224,0.9444444444444571,0.9499999999999886,0.9111111111111541,1.0365853658536235,0.02606728613097079,1.2399847484032855,38.888888888888886,1.0769230768932543,1.0426829268292066,0.0,0.9992936499330278,0
367,349.34722222222223,0.9499999999999886,0.9250000000000114,0.9111111111111541,1.0426829268292066,0.024860851277828364,1.1825963110215592,38.888888888888886,1.0769230768932543,1.015243902438989,0.0,0.999434420460303,0
368,350.27222222222224,0.9250000000000114,0.8333333333333144,0.9111111111111541,1.015243902438989,0.019189000418887808,0.9127942102210319,33.333333333333336,0.923076923051361,0.9146341463413995,0.0,0.9895739761734569,0
369,351.10555555555555,0.8333333333333144,0.9305555555555429,0.9111111111111541,0.9146341463413995,0.02526601918646786,1.2018695880604957,36.111111111111114,0.9999999999723078,1.021341463414572,0.0,0.9995468061057275,0
370,352.0361111111111,0.9305555555555429,1.1000000000000227,0.9111111111111541,1.021341463414572,0.02565408557968254,1.2203293696632442,38.888888888888886,1.0769230768932543,1.2073170731706997,0.0,0.9994416672996267,0
371,353.1361111111111,1.1000000000000227,0.9499999999999886,0.9111111111111541,1.2073170731706997,0.020588230631969268,0.9793536562258345,36.111111111111114,0.9999999999723078,1.0426829268292066,0.0,0.9934098593160161,0
372,354.0861111111111,0.9499999999999886,0.8833333333333258,0.9111111111111541,1.0426829268292066,0.020614535399273305,0.9806049376251879,36.111111111111114,0.9999999999723078,0.9695121951218972,0.0,0.9945758760686205,0
373,354.96944444444443,0.8833333333333258,0.9611111111111086,0.9111111111111541,0.9695121951218972,0.017855636661886155,0.8493679404341133,33.333333333333336,0.923076923051361,1.0548780487804352,0.0,0.991494928691907,0
374,355.93055555555554,0.9611111111111086,1.02222222222224,0.9111111111111541,1.0548780487804352,0.020729682805941205,0.9860823405036082,38.888888888888886,1.0769230768932543,1.1219512195121617,0.0,0.9953472976133813,0
375,356.9527777777778,1.02222222222224,0.8694444444444116,0.9111111111111541,1.1219512195121617,0.019837515563006954,0.943643178685796,36.111111111111114,0.9999999999723078,0.9542682926828459,0.0,0.9912668421118078,0
376,357.8222222222222,0.8694444444444116,0.8777777777777942,0.9111111111111541,0.9542682926828459,0.017054430326329435,0.8112556631750683,33.333333333333336,0.923076923051361,0.9634146341463141,0.0,0.9877530201964346,0
377,358.7,0.8777777777777942,0.966666666666697,0.9111111111111541,0.9634146341463141,0.025549224980528164,1.215341295990881,38.888888888888886,1.0769230768932543,1.0609756097560807,0.0,0.9984818691605112,0
378,359.6666666666667,0.966666666666697,0.9527777777777828,0.9111111111111541,1.0609756097560807,0.02068617315766337,0.9840126467118634,36.111111111111114,0.9999999999723078,1.0457317073170294,0.0,0.99432362548261,0
379,360.61944444444447,0.9527777777777828,0.8499999999999659,0.9111111111111541,1.0457317073170294,0.018720840892013934,0.8905245090244202,33.333333333333336,0.923076923051361,0.9329268292682112,0.0,0.9881457352588159,0
380,361.46944444444443,0.8499999999999659,0.8833333333333258,0.9111111111111541,0.9329268292682112,0.019473627809519348,0.926333541534145,33.333333333333336,0.923076923051361,0.9695121951218972,0.0,0.9910611077672988,0
381,362.35277777777776,0.8833333333333258,0.9638888888889028,0.9111111111111541,0.9695121951218972,0.022206112287450112,1.0563140489356142,38.888888888888886,1.0769230768932543,1.057926829268258,0.0,0.9969912776665009,0
382,363.31666666666666,0.9638888888889028,0.88611111111112,0.9111111111111541,1.057926829268258,0.01737650776801637,0.8265764416208939,33.333333333333336,0.923076923051361,0.97256097560972,0.0,0.9879813349766895,0
383,364.2027777777778,0.88611111111112,0.8388888888889028,0.9111111111111541,0.97256097560972,0.017197080630421944,0.8180413408455813,33.333333333333336,0.923076923051361,0.920731707317045,0.0,0.9905810586298839,0
384,365.0416666666667,0.8388888888889028,0.9027777777777715,0.9111111111111541,0.920731707317045,0.022407687206227007,1.0659026890298744,38.888888888888886,1.0769230768932543,0.9908536585365317,0.0,0.9969431938597877,0
385,365.94444444444446,0.9027777777777715,0.9555555555555202,0.9111111111111541,0.9908536585365317,0.018117681179582713,0.8618330357153737,33.333333333333336,0.923076923051361,1.0487804878047897,0.0,0.9898412087672204,0
386,366.9,0.9555555555555202,0.8972222222222399,0.9111111111111541,1.0487804878047897,0.01765480830238418,0.8398148131320183,36.111111111111114,0.9999999999723078,0.9847560975609486,0.0,0.9903088374559659,0
387,367.7972222222222,0.8972222222222399,0.8527777777777601,0.9111111111111541,0.9847560975609486,0.024416615949945892,1.161464650882158,36.111111111111114,0.9999999999723078,0.935975609756034,0.0,0.9978256446060159,0
388,368.65,0.8527777777777601,0.9166666666666856,0.9111111111111541,0.935975609756034,0.021034764708179592,1.0005946646438648,36.111111111111114,0.9999999999723078,1.0060975609755831,0.0,0.994970742482471,0
389,369.56666666666666,0.9166666666666856,1.0388888888888914,0.9111111111111541,1.0060975609755831,0.021034804559155913,1.0005965602996916,36.111111111111114,0.9999999999723078,1.1402439024389734,0.0,0.9946724632276377,0
390,370.60555555555555,1.0388888888888914,1.0,0.9111111111111541,1.1402439024389734,0.02479444758589986,1.1794375792373866,38.888888888888886,1.0769230768932543,1.0975609756097044,0.0,0.9997442266970289,0
391,371.60555555555555,1.0,0.9083333333333599,0.9111111111111541,1.0975609756097044,0.024743216895677485,1.1770006061590714,36.111111111111114,0.9999999999723078,0.9969512195121772,0.0,0.9992403499701803,0
392,372.5138888888889,0.9083333333333599,1.0722222222221944,0.9111111111111541,0.9969512195121772,0.026222619273218315,1.2473737311435966,38.888888888888886,1.0769230768932543,1.176829268292597,0.0,0.9992084667526329,0
393,373.5861111111111,1.0722222222221944,1.0277777777777715,0.9111111111111541,1.176829268292597,0.024744752378851202,1.1770736469699663,38.888888888888886,1.0769230768932543,1.1280487804877448,0.0,0.9996267680019593,0
394,374.6138888888889,1.0277777777777715,0.9138888888888914,0.9111111111111541,1.1280487804877448,0.024085404879651294,1.1457093983559015,36.111111111111114,0.9999999999723078,1.0030487804877604,0.0,0.9980320654677532,0
395,375.52777777777777,0.9138888888888914,0.9472222222222513,0.9111111111111541,1.0030487804877604,0.024470178171384083,1.164012531675742,36.111111111111114,0.9999999999723078,1.0396341463414462,0.0,0.9971936814255937,0
396,376.475,0.9472222222222513,1.022222222222183,0.9111111111111541,1.0396341463414462,0.019819000467082463,0.9427624411803173,33.333333333333336,0.923076923051361,1.1219512195120993,0.0,0.9909026790140975,0
397,377.4972222222222,1.022222222222183,0.9111111111111541,0.9111111111111541,1.1219512195120993,0.018057756467711718,0.8589825000516625,36.111111111111114,0.9999999999723078,1.0,0.0,0.9908341273422656,0
398,378.40833333333336,0.9111111111111541,0.8388888888888459,0.9111111111111541,1.0,0.020583594931610542,0.9791331423712619,33.333333333333336,0.923076923051361,0.9207317073169826,0.0,0.9942943644113351,0
399,379.2472222222222,0.8388888888888459,0.9083333333333599,0.9111111111111541,0.9207317073169826,0.017785890760740792,0.8460502243799998,36.111111111111114,0.9999999999723078,0.9969512195121772,0.0,0.9903302644647001,0
400,380.15555555555557,0.9083333333333599,0.9861111111110858,0.9111111111111541,0.9969512195121772,0.01696968390163152,0.8072243929623141,33.333333333333336,0.923076923051361,1.082317073170653,0.0,0.9894873222479156,0
401,381.14166666666665,0.9861111111110858,0.8805555555555884,0.9111111111111541,1.082317073170653,0.020852650047875964,0.9919317221303038,38.888888888888886,1.0769230768932543,0.9664634146341369,0.0,0.9950899471549305,0
402,382.02222222222224,0.8805555555555884,0.8694444444444116,0.9111111111111541,0.9664634146341369,0.020824235662988,0.9905800891402292,36.111111111111114,0.9999999999723078,0.9542682926828459,0.0,0.994856903706253,0
403,382.89166666666665,0.8694444444444116,1.0055555555555884,0.9111111111111541,0.9542682926828459,0.025414643419809833,1.2089394372830513,38.888888888888886,1.0769230768932543,1.10365853658535,0.0,0.9985795422943944,0
404,383.89722222222224,1.0055555555555884,1.0611111111110745,0.9111111111111541,1.10365853658535,0.0185358500483222,0.8817247504450462,36.111111111111114,0.9999999999723078,1.1646341463413683,0.0,0.9913280628963119,0
405,384.9583333333333,1.0611111111110745,0.9138888888888914,0.9111111111111541,1.1646341463413683,0.017840960085559035,0.8486697959969453,36.111111111111114,0.9999999999723078,1.0030487804877604,0.0,0.9910646270099526,0
406,385.8722222222222,0.9138888888888914,0.966666666666697,0.9111111111111541,1.0030487804877604,0.02541424404865849,1.2089204397497397,36.111111111111114,0.9999999999723078,1.0609756097560807,0.0,0.996307504824075,0
407,386.8388888888889,0.966666666666697,1.1111111111110858,0.9111111111111541,1.0609756097560807,0.02062492744913229,0.9810992730640611,36.111111111111114,0.9999999999723078,1.219512195121866,0.0,0.9928380315147525,0
408,387.95,1.1111111111110858,0.9527777777777828,0.9111111111111541,1.219512195121866,0.01737477397497218,0.8264939674837367,33.333333333333336,0.923076923051361,1.0457317073170294,0.0,0.9888538824695483,0
409,388.90277777777777,0.9527777777777828,0.8666666666666742,0.9111111111111541,1.0457317073170294,0.024840326616281,1.1816199812587675,36.111111111111114,0.9999999999723078,0.9512195121950854,0.0,0.9974770496188006,0
410,389.76944444444445,0.8666666666666742,0.98888888888888,0.9111111111111541,0.9512195121950854,0.025142611801165022,1.1959992694225292,38.888888888888886,1.0769230768932543,1.0853658536584758,0.0,0.9997576663316761,0
411,390.7583333333333,0.98888888888888,1.0666666666666629,0.9111111111111541,1.0853658536584758,0.017558207365830768,0.8352196401859022,36.111111111111114,0.9999999999723078,1.1707317073170138,0.0,0.9910761352914177,0
412,391.825,1.0666666666666629,0.9250000000000114,0.9111111111111541,1.1707317073170138,0.021928708136477112,1.0431183171428213,38.888888888888886,1.0769230768932543,1.015243902438989,0.0,0.9969413781200746,0
413,392.75,0.9250000000000114,0.8472222222222285,0.9111111111111541,1.015243902438989,0.0244733868088542,1.1641651621224294,33.333333333333336,0.923076923051361,0.9298780487804509,0.0,0.9993530906589303,0
414,393.59722222222223,0.8472222222222285,0.9833333333333485,0.9111111111111541,0.9298780487804509,0.025026884555401252,1.1904942844002755,36.111111111111114,0.9999999999723078,1.0792682926828925,0.0,0.9968532710589684,0
415,394.5805555555556,0.9833333333333485,1.022222222222183,0.9111111111111541,1.0792682926828925,0.020499250766765554,0.9751210071033585,36.111111111111114,0.9999999999723078,1.1219512195120993,0.0,0.994686853573263,0
416,395.60277777777776,1.022222222222183,0.9916666666666742,0.9111111111111541,1.1219512195120993,0.01728190922339304,0.8220765196894464,33.333333333333336,0.923076923051361,1.0884146341462986,0.0,0.9926011347101895,0
417,396.59444444444443,0.9916666666666742,0.9361111111111313,0.9111111111111541,1.0884146341462986,0.02190779847325433,1.0421236733828139,38.888888888888886,1.0769230768932543,1.0274390243902176,0.0,0.9976388888117896,0
418,397.53055555555557,0.9361111111111313,1.033333333333303,0.9111111111111541,1.0274390243902176,0.025349771554468627,1.2058535723710153,36.111111111111114,0.9999999999723078,1.134146341463328,0.0,0.9988116966671572,0
419,398.56388888888887,1.033333333333303,1.1055555555555543,0.9111111111111541,1.134146341463328,0.017487783114845917,0.8318696559681286,33.333333333333336,0.923076923051361,1.2134146341462828,0.0,0.991748077212524,0
420,399.6694444444444,1.1055555555555543,0.9805555555555543,0.9111111111111541,1.2134146341462828,0.024959005028879253,1.187265349205671,36.111111111111114,0.9999999999723078,1.0762195121950697,0.0,0.9991852354600995,0
421,400.65,0.9805555555555543,0.8944444444444457,0.9111111111111541,1.0762195121950697,0.01799689260346697,0.8560872902084442,33.333333333333336,0.923076923051361,0.9817073170731259,0.0,0.9901182876378081,0
422,401.5444444444444,0.8944444444444457,0.9972222222222626,0.9111111111111541,0.9817073170731259,0.024781975188397424,1.1788442845383782,36.111111111111114,0.9999999999723078,1.094512195121944,0.0,0.9975930896263678,0
423,402.5416666666667,0.9972222222222626,0.9583333333333144,0.9111111111111541,1.094512195121944,0.024321132976576093,1.1569226578984666,36.111111111111114,0.9999999999723078,1.0518292682926125,0.0,0.9979250965325531,0
424,403.5,0.9583333333333144,0.8833333333333258,0.9111111111111541,1.0518292682926125,0.024814994311531294,1.1804149585581412,38.888888888888886,1.0769230768932543,0.9695121951218972,0.0,0.9997281799892868,0
425,404.3833333333333,0.8833333333333258,0.8611111111111427,0.9111111111111541,0.9695121951218972,0.02071347739974246,0.9853114717439235,36.111111111111114,0.9999999999723078,0.9451219512195023,0.0,0.9947955233874799,0
426,405.24444444444447,0.8611111111111427,0.9361111111110745,0.9111111111111541,0.9451219512195023,0.02185303854907954,1.039518819526555,36.111111111111114,0.9999999999723078,1.0274390243901552,0.0,0.9969764705598485,0
427,406.18055555555554,0.9361111111110745,0.9583333333333712,0.9111111111111541,1.0274390243901552,0.019388740563225933,0.922295572632859,33.333333333333336,0.923076923051361,1.0518292682926749,0.0,0.9903933932449707,0
428,407.1388888888889,0.9583333333333712,0.875,0.9111111111111541,1.0518292682926749,0.017836437179626297,0.8484546476172145,36.111111111111114,0.9999999999723078,0.9603658536584914,0.0,0.9901219869422511,0
429,408.0138888888889,0.875,0.8944444444444457,0.9111111111111541,0.9603658536584914,0.019176611254913618,0.9122048748258443,33.333333333333336,0.923076923051361,0.9817073170731259,0.0,0.9899215115597291,0
430,408.90833333333336,0.8944444444444457,0.9833333333332916,0.9111111111111541,0.9817073170731259,0.022010462729127288,1.0470072700429736,36.111111111111114,0.9999999999723078,1.0792682926828303,0.0,0.9969577664602373,0
431,409.89166666666665,0.9833333333332916,1.0472222222222172,0.9111111111111541,1.0792682926828303,0.024733858290970814,1.176555430276768,36.111111111111114,0.9999999999723078,1.1493902439023793,0.0,0.9995282128915025,0
432,410.93888888888887,1.0472222222222172,0.9416666666666629,0.9111111111111541,1.1493902439023793,0.025173116022433852,1.1974503130388543,38.888888888888886,1.0769230768932543,1.0335365853658007,0.0,0.9991781465580135,0
433,411.88055555555553,0.9416666666666629,1.0388888888888914,0.9111111111111541,1.0335365853658007,0.020567143510004993,0.9783505709989319,36.111111111111114,0.9999999999723078,1.1402439024389734,0.0,0.9937349042051679,0
434,412.9194444444444,1.0388888888888914,1.0666666666666629,0.9111111111111541,1.1402439024389734,0.024976383644707847,1.188092025924818,36.111111111111114,0.9999999999723078,1.1707317073170138,0.0,0.9986476468235659,0
435,413.9861111111111,1.0666666666666629,0.922222222222274,0.9111111111111541,1.1707317073170138,0.017185945153181968,0.8175116415944055,33.333333333333336,0.923076923051361,1.0121951219512286,0.0,0.9885804144996899,0
436,414.90833333333336,0.922222222222274,0.875,0.9111111111111541,1.0121951219512286,0.02467473396567472,1.1737429678954354,36.111111111111114,0.9999999999723078,0.9603658536584914,0.0,0.9956306074586538,0
437,415.78333333333336,0.875,0.8944444444444457,0.9111111111111541,0.9603658536584914,0.019694824787828222,0.9368555758616857,33.333333333333336,0.923076923051361,0.9817073170731259,0.0,0.9911726293223282,0
438,416.6777777777778,0.8944444444444457,0.9111111111110972,0.9111111111111541,0.9817073170731259,0.01812534671433686,0.8621976746016675,36.111111111111114,0.9999999999723078,0.9999999999999376,0.0,0.9905045061492042,0
439,417.5888888888889,0.9111111111110972,0.8499999999999659,0.9111111111111541,0.9999999999999376,0.02046880898059276,0.9736729334381997,36.111111111111114,0.9999999999723078,0.9329268292682112,0.0,0.993584295268141,0
440,418.43888888888887,0.8499999999999659,0.8805555555555884,0.9111111111111541,0.9329268292682112,0.025051228265624545,1.1916522810265744,36.111111111111114,0.9999999999723078,0.9664634146341369,0.0,0.9967508696999345,0
441,419.31944444444446,0.8805555555555884,0.9250000000000114,0.9111111111111541,0.9664634146341369,0.017876556838153083,0.8503630842850906,33.333333333333336,0.923076923051361,1.015243902438989,0.0,0.990870808246311,0
442,420.24444444444447,0.9250000000000114,0.952777777777726,0.9111111111111541,1.015243902438989,0.025070183879769326,1.1925539733745254,36.111111111111114,0.9999999999723078,1.045731707316967,0.0,0.9988672668612923,0
443,421.1972222222222,0.952777777777726,0.8527777777778169,0.9111111111111541,1.045731707316967,0.025101747223301593,1.1940553979720836,36.111111111111114,0.9999999999723078,0.9359756097560964,0.0,0.9990647077295713,0
444,422.05,0.8527777777778169,0.8694444444444116,0.9111111111111541,0.9359756097560964,0.020271282527945318,0.9642768732784107,33.333333333333336,0.923076923051361,0.9542682926828459,0.0,0.9918743715417153,0
445,422.9194444444444,0.8694444444444116,0.9222222222222172,0.9111111111111541,0.9542682926828459,0.02532285288866163,1.2045730886689399,36.111111111111114,0.9999999999723078,1.0121951219511662,0.0,0.9995971020113668,0
446,423.84166666666664,0.9222222222222172,0.9416666666667197,0.9111111111111541,1.0121951219511662,0.02537962984796915,1.2072738900967646,38.888888888888886,1.0769230768932543,1.0335365853658631,0.0,0.9997973532426956,0
447,424.78333333333336,0.9416666666667197,0.8416666666666401,0.9111111111111541,1.0335365853658631,0.017276483332706486,0.8218184175738664,33.333333333333336,0.923076923051361,0.9237804878048054,0.0,0.9900564364404187,0
448,425.625,0.8416666666666401,0.9388888888888687,0.9111111111111541,0.9237804878048054,0.020880438319446047,0.9932535717758046,36.111111111111114,0.9999999999723078,1.030487804877978,0.0,0.9951225065692095,0
449,426.56388888888887,0.9388888888888687,1.036111111111154,0.9111111111111541,1.030487804877978,0.02054057324255458,0.9770866601248205,36.111111111111114,0.9999999999723078,1.137195121951213,0.0,0.9943321966492682,0
450,427.6,1.036111111111154,1.0,0.9111111111111541,1.137195121951213,0.021869319721801946,1.04029329239498,38.888888888888886,1.0769230768932543,1.0975609756097044,0.0,0.9974433648120046,0
451,428.6,1.0,0.9166666666666288,0.9111111111111541,1.0975609756097044,0.023939002928820275,1.1387452600388226,36.111111111111114,0.9999999999723078,1.0060975609755207,0.0,0.9981745205316839,0
452,429.51666666666665,0.9166666666666288,0.9416666666666629,0.9111111111111541,1.0060975609755207,0.026199899465591005,1.2462929813178198,38.888888888888886,1.0769230768932543,1.0335365853658007,0.0,0.9985858101033855,0
453,430.4583333333333,0.9416666666666629,0.9250000000000114,0.9111111111111541,1.0335365853658007,0.021923880169642695,1.0428886574379177,38.888888888888886,1.0769230768932543,1.015243902438989,0.0,0.996434955007927,0
454,431.3833333333333,0.9250000000000114,0.8611111111111427,0.9111111111111541,1.015243902438989,0.025235410941372872,1.2004135961746323,36.111111111111114,0.9999999999723078,0.9451219512195023,0.0,0.9994760376151939,0
455,432.24444444444447,0.8611111111111427,0.8333333333333144,0.9111111111111541,0.9451219512195023,0.01968041546270737,0.936170144194773,33.333333333333336,0.923076923051361,0.9146341463413995,0.0,0.9902282684917317,0
456,433.0777777777778,0.8333333333333144,0.9138888888888914,0.9111111111111541,0.9146341463413995,0.02161647041512047,1.0282656005840987,36.111111111111114,0.9999999999723078,1.0030487804877604,0.0,0.9968236547031031,0
457,433.9916666666667,0.9138888888888914,0.9833333333333485,0.9111111111111541,1.0030487804877604,0.021724467228169623,1.0334028596138372,36.111111111111114,0.9999999999723078,1.0792682926828925,0.0,0.9939228574548725,0
458,434.975,0.9833333333333485,0.8888888888888573,0.9111111111111541,1.0792682926828925,0.018155488989797363,0.8636315009564864,36.111111111111114,0.9999999999723078,0.9756097560974804,0.0,0.9912127724224801,0
459,435.8638888888889,0.8888888888888573,0.8444444444444343,0.9111111111111541,0.9756097560974804,0.02547467038083249,1.2117948367974893,36.111111111111114,0.9999999999723078,0.9268292682926281,0.0,0.9983259062853097,0
460,436.7083333333333,0.8444444444444343,0.9111111111111541,0.9111111111111541,0.9268292682926281,0.021454331119294935,1.0205528585314596,38.888888888888886,1.0769230768932543,1.0,0.0,0.9958436337905534,0
461,437.61944444444447,0.9111111111111541,0.8611111111110858,0.9111111111111541,1.0,0.0207785054440328,0.9884047658725638,36.111111111111114,0.9999999999723078,0.9451219512194399,0.0,0.995805205215849,0
462,438.48055555555555,0.8611111111110858,0.8194444444444571,0.9111111111111541,0.9451219512194399,0.017450075177562672,0.8300759415442316,33.333333333333336,0.923076923051361,0.8993902439024105,0.0,0.9911754763611346,0
463,439.3,0.8194444444444571,0.8361111111111086,0.9111111111111541,0.8993902439024105,0.025243367735833442,1.2007920898823283,36.111111111111114,0.9999999999723078,0.9176829268292223,0.0,0.9989101140331441,0
464,440.1361111111111,0.8361111111111086,0.9805555555555543,0.9111111111111541,0.9176829268292223,0.024913455520441715,1.1850986220873958,36.111111111111114,0.9999999999723078,1.0762195121950697,0.0,0.9966316690966275,0
465,441.1166666666667,0.9805555555555543,0.9722222222222285,0.9111111111111541,1.0762195121950697,0.018544638965564124,0.8821428270825683,36.111111111111114,0.9999999999723078,1.0670731707316639,0.0,0.990545549402864,0
466,442.0888888888889,0.9722222222222285,0.8972222222221831,0.9111111111111541,1.0670731707316639,0.018245596911813978,0.8679178101813722,36.111111111111114,0.9999999999723078,0.9847560975608862,0.0,0.9915213775399115,0
467,442.9861111111111,0.8972222222221831,1.0833333333333712,0.9111111111111541,0.9847560975608862,0.020395051665914675,0.9701643999903949,33.333333333333336,0.923076923051361,1.189024390243888,0.0,0.9914259456712071,0
468,444.06944444444446,1.0833333333333712,1.0944444444444343,0.9111111111111541,1.189024390243888,0.024724017197544523,1.1760873030733874,38.888888888888886,1.0769230768932543,1.2012195121950542,0.0,0.999606944928108,0
469,445.1638888888889,1.0944444444444343,0.9166666666666856,0.9111111111111541,1.2012195121950542,0.018184425171956824,0.8650079551210847,36.111111111111114,0.9999999999723078,1.0060975609755831,0.0,0.9901609926639755,0
470,446.0805555555556,0.9166666666666856,0.9444444444444002,0.9111111111111541,1.0060975609755831,0.018220033823656345,0.8667018094332201,33.333333333333336,0.923076923051361,1.036585365853561,0.0,0.9912315451631144,0
471,447.025,0.9444444444444002,0.9944444444444684,0.9111111111111541,1.036585365853561,0.02156889186051177,1.0260023545457715,36.111111111111114,0.9999999999723078,1.0914634146341213,0.0,0.9935386516240672,0
472,448.01944444444445,0.9944444444444684,0.9250000000000114,0.9111111111111541,1.0914634146341213,0.018192762114747428,0.8654045319590693,36.111111111111114,0.9999999999723078,1.015243902438989,0.0,0.99135061890222,0
473,448.94444444444446,0.9250000000000114,0.875,0.9111111111111541,1.015243902438989,0.019859924546445827,0.9447091430348201,33.333333333333336,0.923076923051361,0.9603658536584914,0.0,0.9910231776080078,0
474,449.81944444444446,0.875,0.8805555555555316,0.9111111111111541,0.9603658536584914,0.01796448183268901,0.8545455546688585,36.111111111111114,0.9999999999723078,0.9664634146340745,0.0,0.991188979377396,0
475,450.7,0.8805555555555316,0.9388888888889255,0.9111111111111541,0.9664634146340745,0.026158837610329444,1.244339725654393,38.888888888888886,1.0769230768932543,1.0304878048780404,0.0,0.9992565917358884,0
476,451.6388888888889,0.9388888888889255,0.9111111111110972,0.9111111111111541,1.0304878048780404,0.017730131551485596,0.843397835914546,36.111111111111114,0.9999999999723078,0.9999999999999376,0.0,0.9920316515214396,0
477,452.55,0.9111111111110972,0.8333333333333144,0.9111111111111541,0.9999999999999376,0.017520976284004782,0.8334486091165831,33.333333333333336,0.923076923051361,0.9146341463413995,0.0,0.9914799930271865,0
478,453.3833333333333,0.8333333333333144,0.8527777777777601,0.9111111111111541,0.9146341463413995,0.021619993644304208,1.0284331957235011,38.888888888888886,1.0769230768932543,0.935975609756034,0.0,0.9958865121218108,0
479,454.2361111111111,0.8527777777777601,0.9250000000000114,0.9111111111111541,0.935975609756034,0.0179102879058428,0.8519676245227071,33.333333333333336,0.923076923051361,1.015243902438989,0.0,0.9896126133522264,0
480,455.1611111111111,0.9250000000000114,0.86388888888888,0.9111111111111541,1.015243902438989,0.025716117862192505,1.2232801595473362,36.111111111111114,0.9999999999723078,0.9481707317072626,0.0,0.9984023807125695,0
481,456.025,0.86388888888888,0.8694444444444684,0.9111111111111541,0.9481707317072626,0.019749354187716946,0.9394494639964872,33.333333333333336,0.923076923051361,0.9542682926829081,0.0,0.991411457079371,0
482,456.89444444444445,0.8694444444444684,0.9111111111110972,0.9111111111111541,0.9542682926829081,0.01847329516112825,0.8787491009789352,36.111111111111114,0.9999999999723078,0.9999999999999376,0.0,0.9917312479782608,0
483,457.80555555555554,0.9111111111110972,1.0361111111110972,0.9111111111111541,0.9999999999999376,0.02610222589076847,1.2416467844527739,38.888888888888886,1.0769230768932543,1.1371951219511507,0.0,0.9980383397822699,0
484,458.84166666666664,1.0361111111110972,0.9916666666666742,0.9111111111111541,1.1371951219511507,0.020530040333064745,0.9765856241881262,36.111111111111114,0.9999999999723078,1.0884146341462986,0.0,0.9933969220328406,0
485,459.8333333333333,0.9916666666666742,0.875,0.9111111111111541,1.0884146341462986,0.018310298675109395,0.8709955835743528,33.333333333333336,0.923076923051361,0.9603658536584914,0.0,0.9905578010994263,0
486,460.7083333333333,0.875,0.8916666666667084,0.9111111111111541,0.9603658536584914,0.018200905451536922,0.8657918992273516,36.111111111111114,0.9999999999723078,0.9786585365853655,0.0,0.9899561128016492,0
487,461.6,0.8916666666667084,0.9249999999999545,0.9111111111111541,0.9786585365853655,0.025264891586805074,1.2018159497040848,36.111111111111114,0.9999999999723078,1.0152439024389266,0.0,0.9993455662039716,0
488,462.525,0.9249999999999545,0.8777777777777942,0.9111111111111541,1.0152439024389266,0.016709113555864186,0.7948294220008459,33.333333333333336,0.923076923051361,0.9634146341463141,0.0,0.9882734130036344,0
489,463.40277777777777,0.8777777777777942,0.8444444444444343,0.9111111111111541,0.9634146341463141,0.02243448661695911,1.067177499932975,38.888888888888886,1.0769230768932543,0.9268292682926281,0.0,0.9964998428463072,0
490,464.2472222222222,0.8444444444444343,0.8166666666666629,0.9111111111111541,0.9268292682926281,0.025498931684701628,1.212948913467495,36.111111111111114,0.9999999999723078,0.8963414634145878,0.0,0.9974623262021352,0
491,465.06388888888887,0.8166666666666629,0.8111111111111313,0.9111111111111541,0.8963414634145878,0.024676176285430385,1.173811577051385,36.111111111111114,0.9999999999723078,0.8902439024390046,0.0,0.9991078417720449,0
492,465.875,0.8111111111111313,0.830555555555577,0.9111111111111541,0.8902439024390046,0.018288611592614974,0.8699639590548178,36.111111111111114,0.9999999999723078,0.9115853658536391,0.0,0.9906534937231536,0
493,466.7055555555556,0.830555555555577,0.8555555555555543,0.9111111111111541,0.9115853658536391,0.020723667270499666,0.9857961898025528,33.333333333333336,0.923076923051361,0.9390243902438568,0.0,0.9956142065448416,0
494,467.56111111111113,0.8555555555555543,0.8416666666666401,0.9111111111111541,0.9390243902438568,0.018079394150042637,0.8600117746737436,36.111111111111114,0.9999999999723078,0.9237804878048054,0.0,0.9912086596619378,0
495,468.40277777777777,0.8416666666666401,0.8555555555555543,0.9111111111111541,0.9237804878048054,0.025457045896218465,1.2109564644402728,38.888888888888886,1.0769230768932543,0.9390243902438568,0.0,0.99936674569537,0
496,469.2583333333333,0.8555555555555543,0.8388888888889028,0.9111111111111541,0.9390243902438568,0.024778604824893236,1.178683961007928,36.111111111111114,0.9999999999723078,0.920731707317045,0.0,0.99968300610638,0
497,470.09722222222223,0.8388888888889028,1.2305555555555543,0.9111111111111541,0.920731707317045,0.0254594553178103,1.2110710772930011,38.888888888888886,1.0769230768932543,1.350609756097496,0.0,0.9997214675878161,0
498,471.3277777777778,1.2305555555555543,1.158333333333303,0.9111111111111541,1.350609756097496,0.02487884923473701,1.1834524489392928,38.888888888888886,1.0769230768932543,1.271341463414541,0.0,0.9996830002038384,0
499,472.4861111111111,1.158333333333303,1.0166666666667084,0.9111111111111541,1.271341463414541,0.020096983206935176,0.95598569564589,36.111111111111114,0.9999999999723078,1.1158536585365786,0.0,0.993010897342307,0
500,473.5027777777778,1.0166666666667084,1.0138888888888573,0.9111111111111541,1.1158536585365786,0.024189772652252653,1.1506740289507507,36.111111111111114,0.9999999999723078,1.1128048780486934,0.0,0.9976829826391924,0
501,474.51666666666665,1.0138888888888573,1.0388888888888914,0.9111111111111541,1.1128048780486934,0.02552142294719841,1.214018791717506,38.888888888888886,1.0769230768932543,1.1402439024389734,0.0,0.999824876993484,0
502,475.55555555555554,1.0388888888888914,1.0583333333333371,0.9111111111111541,1.1402439024389734,0.024808852049085887,1.180122779628784,36.111111111111114,0.9999999999723078,1.161585365853608,0.0,0.9979011877972095,0
503,476.6138888888889,1.0583333333333371,0.9944444444444684,0.9111111111111541,1.161585365853608,0.019619105917201556,0.9332537339103735,33.333333333333336,0.923076923051361,1.0914634146341213,0.0,0.9902634804631383,0
504,477.60833333333335,0.9944444444444684,1.0472222222222172,0.9111111111111541,1.0914634146341213,0.017112586405982018,0.8140220674502894,33.333333333333336,0.923076923051361,1.1493902439023793,0.0,0.9908216453942684,0
505,478.65555555555557,1.0472222222222172,1.0388888888888914,0.9111111111111541,1.1493902439023793,0.018029265288389395,0.8576272140565574,33.333333333333336,0.923076923051361,1.1402439024389734,0.0,0.9916922231948981,0
506,479.69444444444446,1.0388888888888914,1.0138888888888573,0.9111111111111541,1.1402439024389734,0.018062797594894018,0.8592222994994995,36.111111111111114,0.9999999999723078,1.1128048780486934,0.0,0.9908013073688031,0
507,480.7083333333333,1.0138888888888573,0.9916666666666742,0.9111111111111541,1.1128048780486934,0.02213821648717603,1.053084339621131,38.888888888888886,1.0769230768932543,1.0884146341462986,0.0,0.9973269291870075,0
508,481.7,0.9916666666666742,1.0083333333333258,0.9111111111111541,1.0884146341462986,0.01867896233241798,0.8885324038653647,36.111111111111114,0.9999999999723078,1.1067073170731103,0.0,0.9922941491430284,0
509,482.7083333333333,1.0083333333333258,0.98888888888888,0.9111111111111541,1.1067073170731103,0.017801777864622646,0.8468059519387038,33.333333333333336,0.923076923051361,1.0853658536584758,0.0,0.9895499151162128,0
510,483.6972222222222,0.98888888888888,0.8944444444444457,0.9111111111111541,1.0853658536584758,0.02004177725944943,0.95335962507761,36.111111111111114,0.9999999999723078,0.9817073170731259,0.0,0.9919211204270848,0
511,484.59166666666664,0.8944444444444457,0.9361111111111313,0.9111111111111541,0.9817073170731259,0.01749107857486005,0.8320264164431533,33.333333333333336,0.923076923051361,1.0274390243902176,0.0,0.9899771529660619,0
512,485.52777777777777,0.9361111111111313,1.0666666666666629,0.9111111111111541,1.0274390243902176,0.0172061271571684,0.8184716716109425,33.333333333333336,0.923076923051361,1.1707317073170138,0.0,0.9889507402356649,0
513,486.59444444444443,1.0666666666666629,0.9777777777777601,0.9111111111111541,1.1707317073170138,0.02544468154334383,1.2103683092747757,38.888888888888886,1.0769230768932543,1.073170731707247,0.0,0.999742052296042,0
514,487.5722222222222,0.9777777777777601,0.9138888888888914,0.9111111111111541,1.073170731707247,0.024398342584001146,1.1605954121374866,36.111111111111114,0.9999999999723078,1.0030487804877604,0.0,0.9994146908909197,0
515,488.4861111111111,0.9138888888888914,1.0277777777778283,0.9111111111111541,1.0030487804877604,0.020573014133779443,0.9786298284524066,36.111111111111114,0.9999999999723078,1.1280487804878072,0.0,0.9951163833860223,0
516,489.5138888888889,1.0277777777778283,1.022222222222183,0.9111111111111541,1.1280487804878072,0.017903834390208616,0.8516606397096443,36.111111111111114,0.9999999999723078,1.1219512195120993,0.0,0.9904842061316632,0
517,490.5361111111111,1.022222222222183,0.9027777777777715,0.9111111111111541,1.1219512195120993,0.020933547513648128,0.9957799026903345,36.111111111111114,0.9999999999723078,0.9908536585365317,0.0,0.9954932579726192,0
518,491.43888888888887,0.9027777777777715,0.8944444444444457,0.9111111111111541,0.9908536585365317,0.024891061717088457,1.1840333798340494,36.111111111111114,0.9999999999723078,0.9817073170731259,0.0,0.9979125743003885,0
519,492.3333333333333,0.8944444444444457,0.9750000000000227,0.9111111111111541,0.9817073170731259,0.026304451583610174,1.251266380969232,38.888888888888886,1.0769230768932543,1.0701219512194866,0.0,0.9989790101883064,0
520,493.30833333333334,0.9750000000000227,0.9805555555555543,0.9111111111111541,1.0701219512194866,0.02541271770620964,1.2088478337504844,36.111111111111114,0.9999999999723078,1.0762195121950697,0.0,0.9990212958874183,0
521,494.2888888888889,0.9805555555555543,0.9638888888889028,0.9111111111111541,1.0762195121950697,0.02503135307948185,1.190706845910514,38.888888888888886,1.0769230768932543,1.057926829268258,0.0,0.9994280765752082,0
522,495.2527777777778,0.9638888888889028,0.8722222222222058,0.9111111111111541,1.057926829268258,0.01749741943922483,0.8323280425911351,33.333333333333336,0.923076923051361,0.9573170731706686,0.0,0.9907779648347576,0
523,496.125,0.8722222222222058,0.9777777777777601,0.9111111111111541,0.9573170731706686,0.02527132178802947,1.2021218254829193,38.888888888888886,1.0769230768932543,1.073170731707247,0.0,0.9998526331200668,0
524,497.10277777777776,0.9777777777777601,1.0333333333333599,0.9111111111111541,1.073170731707247,0.020444506653643477,0.9725169053570095,36.111111111111114,0.9999999999723078,1.1341463414633903,0.0,0.9937749995782955,0
525,498.1361111111111,1.0333333333333599,1.0527777777777487,0.9111111111111541,1.1341463414633903,0.02533974590368908,1.2053766660295957,36.111111111111114,0.9999999999723078,1.1554878048779624,0.0,0.9990728818204508,0
526,499.18888888888887,1.0527777777777487,0.9000000000000341,0.9111111111111541,1.1554878048779624,0.024833703397405846,1.181304923897243,36.111111111111114,0.9999999999723078,0.9878048780487714,0.0,0.9987068653517224,0
527,500.0888888888889,0.9000000000000341,0.8972222222221831,0.9111111111111541,0.9878048780487714,0.024963177224950117,1.1874638148023284,36.111111111111114,0.9999999999723078,0.9847560975608862,0.0,0.9990897096535194,0
528,500.9861111111111,0.8972222222221831,0.9277777777778056,0.9111111111111541,0.9847560975608862,0.024995084727105748,1.188981610549605,36.111111111111114,0.9999999999723078,1.0182926829268117,0.0,0.9970925825727788,0
529,501.9138888888889,0.9277777777778056,0.9388888888888687,0.9111111111111541,1.0182926829268117,0.02251251642879707,1.070889270161518,38.888888888888886,1.0769230768932543,1.030487804877978,0.0,0.9976889804241967,0
530,502.85277777777776,0.9388888888888687,0.8472222222222285,0.9111111111111541,1.030487804877978,0.017389943851371305,0.8272155775230622,33.333333333333336,0.923076923051361,0.9298780487804509,0.0,0.9893287557387584,0
531,503.7,0.8472222222222285,0.8694444444444684,0.9111111111111541,0.9298780487804509,0.01939913031464406,0.9227897987380795,33.333333333333336,0.923076923051361,0.9542682926829081,0.0,0.9881889746443502,0
532,504.56944444444446,0.8694444444444684,0.9722222222222285,0.9111111111111541,0.9542682926829081,0.025869484382625072,1.2305755928078825,38.888888888888886,1.0769230768932543,1.0670731707316639,0.0,0.9990600506841243,0
533,505.5416666666667,0.9722222222222285,0.9861111111110858,0.9111111111111541,1.0670731707316639,0.02060561754461493,0.9801807276130943,36.111111111111114,0.9999999999723078,1.082317073170653,0.0,0.9939662375981804,0
534,506.52777777777777,0.9861111111110858,0.8888888888889142,0.9111111111111541,1.082317073170653,0.025411524881998857,1.2087910927525352,38.888888888888886,1.0769230768932543,0.9756097560975427,0.0,0.9989113173542554,0
535,507.4166666666667,0.8888888888889142,0.9305555555555429,0.9111111111111541,0.9756097560975427,0.02258818227188736,1.0744885896662655,38.888888888888886,1.0769230768932543,1.021341463414572,0.0,0.993633206571648,0
536,508.34722222222223,0.9305555555555429,1.0416666666666856,0.9111111111111541,1.021341463414572,0.02547529006980093,1.2118243145446457,38.888888888888886,1.0769230768932543,1.1432926829267962,0.0,0.9995090510292547,0
537,509.3888888888889,1.0416666666666856,0.9833333333332916,0.9111111111111541,1.1432926829267962,0.01798465744951583,0.8555052808570466,36.111111111111114,0.9999999999723078,1.0792682926828303,0.0,0.9900527757879971,0
538,510.3722222222222,0.9833333333332916,0.8527777777778169,0.9111111111111541,1.0792682926828303,0.019864603224868393,0.9449317012964479,33.333333333333336,0.923076923051361,0.9359756097560964,0.0,0.9951234913083895,0
539,511.225,0.8527777777778169,0.9527777777777828,0.9111111111111541,0.9359756097560964,0.025704895082386176,1.2227463074338245,38.888888888888886,1.0769230768932543,1.0457317073170294,0.0,0.9998064088076244,0
540,512.1777777777778,0.9527777777777828,1.0472222222222172,0.9111111111111541,1.0457317073170294,0.025320571192467344,1.2044645515367203,36.111111111111114,0.9999999999723078,1.1493902439023793,0.0,0.9995232266650267,0
541,513.225,1.0472222222222172,0.9305555555555429,0.9111111111111541,1.1493902439023793,0.017070689316343132,0.8120290808427201,33.333333333333336,0.923076923051361,1.021341463414572,0.0,0.9899497094887582,0
542,514.1555555555556,0.9305555555555429,0.8833333333333258,0.9111111111111541,1.021341463414572,0.0248280959601361,1.181038185861792,38.888888888888886,1.0769230768932543,0.9695121951218972,0.0,0.9994304965189493,0
543,515.0388888888889,0.8833333333333258,0.9333333333332803,0.9111111111111541,0.9695121951218972,0.017879552675048576,0.850505592102761,33.333333333333336,0.923076923051361,1.0243902439023325,0.0,0.9918251652410258,0
544,515.9722222222222,0.9333333333332803,0.9222222222222172,0.9111111111111541,1.0243902439023325,0.020072211792790586,0.9548073537355989,33.333333333333336,0.923076923051361,1.0121951219511662,0.0,0.9905666940884919,0
545,516.8944444444444,0.9222222222222172,0.8472222222222854,0.9111111111111541,1.0121951219511662,0.02512495321754272,1.19515927502265,36.111111111111114,0.9999999999723078,0.9298780487805133,0.0,0.9990285129053528,0
546,517.7416666666667,0.8472222222222854,0.875,0.9111111111111541,0.9298780487805133,0.02547533676347292,1.2118265356980418,38.888888888888886,1.0769230768932543,0.9603658536584914,0.0,0.9997321219881616,0
547,518.6166666666667,0.875,0.9111111111111541,0.9111111111111541,0.9603658536584914,0.018039266556400497,0.858102960543405,33.333333333333336,0.923076923051361,1.0,0.0,0.9912888688380252,0
548,519.5277777777778,0.9111111111111541,0.8888888888888005,0.9111111111111541,1.0,0.02581403838894497,1.2279381035741375,36.111111111111114,0.9999999999723078,0.975609756097418,0.0,0.9992466101854096,0
549,520.4166666666666,0.8888888888888005,0.8666666666666742,0.9111111111111541,0.975609756097418,0.02572119532855754,1.2235216875998363,38.888888888888886,1.0769230768932543,0.9512195121950854,0.0,0.999224572750153,0
550,521.2833333333333,0.8666666666666742,0.9083333333334167,0.9111111111111541,0.9512195121950854,0.018271487854317273,0.8691494065073022,36.111111111111114,0.9999999999723078,0.9969512195122396,0.0,0.9918612830810274,0
551,522.1916666666667,0.9083333333334167,0.9638888888888459,0.9111111111111541,0.9969512195122396,0.018818250768939764,0.8951581621452321,36.111111111111114,0.9999999999723078,1.0579268292681956,0.0,0.9910053271970788,0
552,523.1555555555556,0.9638888888888459,0.9722222222221717,0.9111111111111541,1.0579268292681956,0.021105566974677345,1.0039626305367657,36.111111111111114,0.9999999999723078,1.0670731707316015,0.0,0.9956713441406241,0
553,524.1277777777777,0.9722222222221717,0.8916666666666515,0.9111111111111541,1.0670731707316015,0.02564685343032906,1.2199853463210586,36.111111111111114,0.9999999999723078,0.9786585365853031,0.0,0.9989158692019762,0
