beat_index,peak_time_s,rr_prev_s,rr_next_s,rr_baseline_s,prematurity_index,aa_ratio,morph_index,qrs_width_ms,width_index,pause_index,pvc_score,morphology_score,is_pvc_candidate
0,0.044444444444444446,,0.7444444444444445,0.7472222222222626,,0.026483754501878207,1.0185336229564952,41.666666666666664,0.9374999999789063,0.996282527880987,4.2345870333316947e-17,,0
1,0.7888888888888889,0.7444444444444445,0.7722222222222223,0.7472222222222626,0.996282527880987,0.024104455924429766,0.9270286363802176,44.44444444444444,0.9999999999775001,1.033457249070576,1.4615819857030194e-17,0.9936931642259602,0
2,1.5611111111111111,0.7722222222222223,0.7666666666666668,0.7472222222222626,1.033457249070576,0.02850976124092605,1.0964514266391387,50.0,1.1249999999746876,1.0260223048326584,1.5055055184280686e-14,0.9978240542156366,0
3,2.327777777777778,0.7666666666666668,0.7416666666666667,0.7472222222222626,1.0260223048326584,0.02929220948572668,1.126543453262336,50.0,1.1249999999746876,0.9925650557620281,1.3717179518993317e-13,0.9959277723932719,0
4,3.0694444444444446,0.7416666666666667,0.7361111111111107,0.7472222222222626,0.9925650557620281,0.024540044441001763,0.9437808513983283,41.666666666666664,0.9374999999789063,0.9851301115241098,6.997217995308036e-19,0.9976581982280648,0
5,3.8055555555555554,0.7361111111111107,0.75,0.7444444444444445,0.9888059701492532,0.024009476855638773,0.9233758546330578,44.44444444444444,0.9999999999775001,1.007462686567164,2.1685892198379145e-18,0.9985229151950279,0
6,4.555555555555555,0.75,0.7472222222222227,0.7472222222222222,1.003717472118959,0.026658711116002078,1.0252622457441423,44.44444444444444,0.9999999999775001,1.0000000000000007,5.633828552169655e-17,0.999452921534106,0
7,5.302777777777778,0.7472222222222227,0.7555555555555555,0.7472222222222227,1.0,0.029711773942605952,1.142679402049307,47.22222222222222,1.0624999999760938,1.0111524163568766,9.266472680326265e-14,0.9979537392228566,0
8,6.058333333333334,0.7555555555555555,0.7416666666666663,0.7486111111111113,1.009276437847866,0.026835570898392846,1.032064062114287,47.22222222222222,1.0624999999760938,0.9907235621521328,2.6655210995718613e-16,0.9991351848046846,0
9,6.8,0.7416666666666663,0.7555555555555555,0.7472222222222227,0.9925650557620807,0.0261597704791303,1.0060735837106987,44.44444444444444,0.9999999999775001,1.0111524163568766,8.300413339834811e-17,0.9978962425766864,0
10,7.555555555555555,0.7555555555555555,0.7444444444444454,0.7486111111111113,1.009276437847866,0.025396691393997445,0.9767264718754951,44.44444444444444,0.9999999999775001,0.994434137291281,2.2408026663402226e-17,0.9949424013852108,0
11,8.3,0.7444444444444454,0.7444444444444436,0.7486111111111113,0.994434137291281,0.025986126720398312,0.9993954517761751,44.44444444444444,0.9999999999775001,0.9944341372912787,2.1868081209835787e-17,0.9996318623715998,0
12,9.044444444444444,0.7444444444444436,0.7611111111111111,0.745833333333334,0.9981378026070743,0.02798011494672481,1.0760818616335421,44.44444444444444,0.9999999999775001,1.020484171322159,6.856189183420845e-15,0.9942315185809766,0
13,9.805555555555555,0.7611111111111111,0.7416666666666671,0.745833333333334,1.020484171322159,0.026940767743921488,1.0361098073726596,44.44444444444444,0.9999999999775001,0.9944134078212288,4.023260253925627e-17,0.999604066059538,0
14,10.547222222222222,0.7416666666666671,0.7527777777777782,0.745833333333334,0.9944134078212288,0.0259861652530772,0.9993969336970646,44.44444444444444,0.9999999999775001,1.009310986964618,3.8608016507479676e-17,0.9990918826191376,0
15,11.3,0.7527777777777782,0.7666666666666657,0.7486111111111113,1.00556586270872,0.029759681777905927,1.144521880276955,50.0,1.1249999999746876,1.0241187384044512,4.1042015164020895e-13,0.9973889879126661,0
16,12.066666666666666,0.7666666666666657,0.7527777777777782,0.7500000000000004,1.0222222222222204,0.03420300164702469,1.3154066649069875,50.0,1.1249999999746876,1.0037037037037038,2.2725109294352563e-10,0.9963861959180615,0
17,12.819444444444445,0.7527777777777782,0.7527777777777782,0.7527777777777782,1.0,0.028129929268780614,1.0818435418440822,47.22222222222222,1.0624999999760938,1.0,5.281747634470601e-15,0.9977608005601113,0
18,13.572222222222223,0.7527777777777782,0.7749999999999986,0.7527777777777782,1.0,0.030379765484750215,1.168369560349039,50.0,1.1249999999746876,1.0295202952029496,1.8433687735963655e-12,0.996068884534921,0
19,14.347222222222221,0.7749999999999986,0.75,0.7527777777777782,1.0295202952029496,0.026073735358855262,1.0027647755600635,44.44444444444444,0.9999999999775001,0.9963099630996304,4.110332842079593e-18,0.9998226501157423,0
20,15.097222222222221,0.75,0.7555555555555564,0.7527777777777782,0.9963099630996304,0.026479424146898047,1.0183670826668125,41.666666666666664,0.9374999999789063,1.0036900369003696,1.9975475424702208e-17,0.9971935762721007,0
21,15.852777777777778,0.7555555555555564,0.7527777777777764,0.7527777777777782,1.0036900369003696,0.025315865358969642,0.9736179989329506,44.44444444444444,0.9999999999775001,0.9999999999999977,5.372287442806311e-18,0.9988760878154725,0
22,16.605555555555554,0.7527777777777764,0.7722222222222221,0.7527777777777782,0.9999999999999977,0.029180002001094184,1.1222280871824448,50.0,1.1249999999746876,1.0258302583025822,1.4233063241452654e-13,0.9978114130183573,0
23,17.377777777777776,0.7722222222222221,0.7666666666666693,0.7527777777777782,1.0258302583025822,0.029271333343587447,1.125740581725186,47.22222222222222,1.0624999999760938,1.0184501845018479,2.2232917411399086e-14,0.9967147700276511,0
24,18.144444444444446,0.7666666666666693,0.7555555555555529,0.7541666666666673,1.0165745856353616,0.030422015215014333,1.1699944346028686,47.22222222222222,1.0624999999760938,1.0018416206261467,9.657888638131551e-14,0.9976357589743886,0
25,18.9,0.7555555555555529,0.783333333333335,0.7555555555555546,0.9999999999999977,0.024570223346584565,0.9449414961263232,41.666666666666664,0.9374999999789063,1.0367647058823564,8.20057295009239e-19,0.9979583192034978,0
26,19.683333333333334,0.783333333333335,0.7638888888888893,0.7555555555555546,1.0367647058823564,0.027211650408343006,1.0465276316871763,47.22222222222222,1.0624999999760938,1.0110294117647076,1.6724559664417753e-16,0.9986685677262697,0
27,20.447222222222223,0.7638888888888893,0.7583333333333329,0.7597222222222229,1.005484460694698,0.025603558868286327,0.9846823482994504,44.44444444444444,0.9999999999775001,0.998171846435099,4.856364968589637e-18,0.9992389551891006,0
28,21.205555555555556,0.7583333333333329,0.7694444444444457,0.7611111111111111,0.996350364963503,0.025271039746330243,0.9718940593140566,44.44444444444444,0.9999999999775001,1.0109489051094909,7.365967254168357e-18,0.9980042672552595,0
29,21.975,0.7694444444444457,0.7583333333333329,0.7611111111111111,1.0109489051094909,0.027176019760968322,1.0451573194696904,47.22222222222222,1.0624999999760938,0.996350364963503,2.464009843837695e-16,0.9991863982520854,0
30,22.733333333333334,0.7583333333333329,0.7638888888888893,0.7611111111111111,0.996350364963503,0.026689477600382278,1.0264454880521456,47.22222222222222,1.0624999999760938,1.003649635036497,5.000541589828119e-16,0.9967992944288566,0
31,23.497222222222224,0.7638888888888893,0.777777777777775,0.7638888888888893,1.0,0.026018741195780352,1.000649765614847,47.22222222222222,1.0624999999760938,1.018181818181814,6.689724604093595e-17,0.9991114755318468,0
32,24.275,0.777777777777775,0.7555555555555564,0.7652777777777793,1.0163339382940053,0.025893774135112443,0.9958436814532042,44.44444444444444,0.9999999999775001,0.987295825771324,4.050268362669974e-18,0.998512379539357,0
33,25.030555555555555,0.7555555555555564,0.7583333333333329,0.7638888888888893,0.9890909090909097,0.02727024437483368,1.0487810857799074,47.22222222222222,1.0624999999760938,0.9927272727272716,5.978862526324468e-16,0.9992722713086959,0
34,25.788888888888888,0.7583333333333329,0.7722222222222221,0.7611111111111111,0.996350364963503,0.02766859733163554,1.0641012655632556,47.22222222222222,1.0624999999760938,1.0145985401459854,2.205071765982937e-15,0.9977862995336075,0
35,26.56111111111111,0.7722222222222221,0.75,0.7638888888888893,1.0109090909090903,0.02694241076587143,1.0361729960379658,44.44444444444444,0.9999999999775001,0.9818181818181813,2.2858181661476034e-17,0.9992951104684178,0
36,27.31111111111111,0.75,0.75,0.7611111111111111,0.9854014598540146,0.02804179997334956,1.0784541942137214,47.22222222222222,1.0624999999760938,0.9854014598540146,3.033260983017908e-15,0.9989317333035796,0
37,28.06111111111111,0.75,0.7555555555555564,0.7583333333333329,0.9890109890109896,0.030774921560384555,1.1835667918941575,50.0,1.1249999999746876,0.9963369963369981,2.1563952880276904e-12,0.9969897254481597,0
38,28.816666666666666,0.7555555555555564,0.75,0.7583333333333329,0.9963369963369981,0.029238569776691335,1.1244805340046367,47.22222222222222,1.0624999999760938,0.9890109890109896,2.0391139135284703e-14,0.9984663836909662,0
39,29.566666666666666,0.75,0.7638888888888893,0.7569444444444446,0.9908256880733942,0.02717834527857181,1.0452467561041283,44.44444444444444,0.9999999999775001,1.0091743119266057,1.6859461572668821e-16,0.9994928640932195,0
40,30.330555555555556,0.7638888888888893,0.7527777777777764,0.7569444444444446,1.0091743119266057,0.02884424538788537,1.1093152881433612,47.22222222222222,1.0624999999760938,0.9944954128440346,1.2431020805553274e-14,0.9969600015967266,0
41,31.083333333333332,0.7527777777777764,0.75277777777778,0.7555555555555564,0.9963235294117618,0.028707311490515832,1.104048973709603,47.22222222222222,1.0624999999760938,0.9963235294117665,8.628241824899623e-15,0.9990974769975466,0
42,31.836111111111112,0.75277777777778,0.7611111111111093,0.7541666666666682,0.9981583793738499,0.025630592240597383,0.9857220195680676,44.44444444444444,0.9999999999775001,1.0092081031307505,9.279896101132327e-18,0.9997216516196199,0
43,32.59722222222222,0.7611111111111093,0.7722222222222257,0.7541666666666682,1.0092081031307505,0.02999415880823139,1.1535395873086578,44.44444444444444,0.9999999999775001,1.0239410681399657,4.24858173815601e-14,0.9952042385262383,0
44,33.36944444444445,0.7722222222222257,0.7527777777777729,0.7541666666666682,1.0239410681399657,0.02764714934817039,1.063276401690487,44.44444444444444,0.9999999999775001,0.9981583793738404,8.781074097155084e-17,0.9993121339528577,0
45,34.12222222222222,0.7527777777777729,0.7416666666666671,0.7527777777777782,0.9999999999999929,0.027175396852426963,1.0451333631498507,44.44444444444444,0.9999999999775001,0.9852398523985241,1.0126444320547671e-16,0.999325202496522,0
46,34.86388888888889,0.7416666666666671,0.7666666666666657,0.7527777777777782,0.9852398523985241,0.026511935085930326,1.0196174146209134,44.44444444444444,0.9999999999775001,1.0184501845018432,2.8457900924778697e-16,0.9965888100213718,0
47,35.63055555555555,0.7666666666666657,0.7944444444444443,0.7541666666666682,1.0165745856353559,0.02256673672730658,0.8678897894004756,44.44444444444444,0.9999999999775001,1.053406998158377,1.1230297202460138e-18,0.9913831932320352,0
48,36.425,0.7944444444444443,0.7638888888888928,0.7569444444444446,1.0495412844036693,0.024933267813927046,0.9589037535015161,41.666666666666664,0.9374999999789063,1.0091743119266106,7.378334095464513e-20,0.99884618159181,0
49,37.18888888888889,0.7638888888888928,0.7777777777777786,0.7624999999999993,1.0018214936247785,0.025024092878548863,0.9623967772009299,44.44444444444444,0.9999999999775001,1.0200364298724975,2.863876090514515e-18,0.9989649199816864,0
50,37.96666666666667,0.7777777777777786,0.7861111111111114,0.7625000000000011,1.020036429872495,0.02792378343056532,1.0739154186831483,47.22222222222222,1.0624999999760938,1.0309653916211283,1.284216403364517e-15,0.9981194003127695,0
51,38.75277777777778,0.7861111111111114,0.7527777777777729,0.7652777777777793,1.0272232304900166,0.02654413985350925,1.0208559715859507,44.44444444444444,0.9999999999775001,0.9836660617059808,4.611791236105165e-18,0.9996929964890793,0
52,39.50555555555555,0.7527777777777729,0.7666666666666728,0.7652777777777793,0.9836660617059808,0.024474001585329596,0.9412409219085955,41.666666666666664,0.9374999999789063,1.001814882032674,3.847888337750007e-19,0.9984764377727955,0
53,40.272222222222226,0.7666666666666728,0.7638888888888857,0.7666666666666693,1.0000000000000047,0.02813824741812834,1.0821634479507043,47.22222222222222,1.0624999999760938,0.9963768115941954,1.4671808139273663e-15,0.9992924694863239,0
54,41.03611111111111,0.7638888888888857,0.7583333333333329,0.7652777777777793,0.998185117967326,0.02891198204507546,1.111920359220043,47.22222222222222,1.0624999999760938,0.990925589836658,1.080066957637009e-14,0.9976445521588294,0
55,41.794444444444444,0.7583333333333329,0.7611111111111128,0.7652777777777793,0.990925589836658,0.027121014790295658,1.0430418938771495,44.44444444444444,0.9999999999775001,0.9945553539019967,8.30446718658081e-17,0.9994074210737225,0
56,42.55555555555556,0.7611111111111128,0.7527777777777729,0.7652777777777793,0.9945553539019967,0.02531424053008456,0.9735555099512284,44.44444444444444,0.9999999999775001,0.9836660617059808,2.9069674441400056e-18,0.9992844336893635,0
57,43.30833333333333,0.7527777777777729,0.75833333333334,0.7638888888888893,0.9854545454545386,0.02700472442973527,1.0385695052568695,44.44444444444444,0.9999999999775001,0.9927272727272809,9.220830442312365e-17,0.9993709303301316,0
58,44.06666666666667,0.75833333333334,0.7611111111111057,0.7624999999999993,0.9945355191256927,0.028433118270958777,1.0935038293915742,47.22222222222222,1.0624999999760938,0.9981785063752215,4.14034956222175e-15,0.9991362708257759,0
59,44.827777777777776,0.7611111111111057,0.7722222222222257,0.7611111111111093,0.9999999999999953,0.030399097936630117,1.1691130633992757,47.22222222222222,1.0624999999760938,1.0145985401459925,1.522125795631185e-13,0.9973733751638583,0
60,45.6,0.7722222222222257,0.7555555555555529,0.7611111111111093,1.0145985401459925,0.027325895630690468,1.0509213667300978,44.44444444444444,0.9999999999775001,0.9927007299270061,5.001397026930397e-17,0.9993149685186828,0
61,46.355555555555554,0.7555555555555529,0.7416666666666671,0.7597222222222229,0.9945155393052972,0.030284202292822495,1.16469431392246,47.22222222222222,1.0624999999760938,0.976234003656307,1.6376314096022e-13,0.9968317440877728,0
62,47.09722222222222,0.7416666666666671,0.7638888888888928,0.7597222222222229,0.976234003656307,0.027493901825055386,1.057382684660435,44.44444444444444,0.9999999999775001,1.0054844606947027,5.579911596354469e-16,0.9989436777015772,0
63,47.861111111111114,0.7638888888888928,0.7861111111111114,0.7597222222222229,1.0054844606947027,0.02789255576572532,1.072714439924502,47.22222222222222,1.0624999999760938,1.0347349177330891,3.7932867059302464e-15,0.9971776084658172,0
64,48.647222222222226,0.7861111111111114,0.7694444444444386,0.7597222222222229,1.0347349177330891,0.026479011803083954,1.0183512244153383,44.44444444444444,0.9999999999775001,1.0127970749542876,8.99500103609865e-18,0.998610217052737,0
65,49.416666666666664,0.7694444444444386,0.7805555555555586,0.7611111111111093,1.0109489051094838,0.027104733119345775,1.0424157202241957,47.22222222222222,1.0624999999760938,1.025547445255481,6.347227625964707e-16,0.9972067658309882,0
66,50.19722222222222,0.7805555555555586,0.7805555555555515,0.7624999999999993,1.023679417122045,0.031134054813384153,1.197378628628858,50.0,1.1249999999746876,1.0236794171220356,1.0990223488216433e-12,0.996507546197226,0
67,50.977777777777774,0.7805555555555515,0.7805555555555586,0.7666666666666657,1.0181159420289814,0.029452691101443156,1.1327153848690128,47.22222222222222,1.0624999999760938,1.0181159420289907,2.1446005168675002e-14,0.9963329274238912,0
68,51.75833333333333,0.7805555555555586,0.7805555555555586,0.7708333333333321,1.012612612612618,0.025433476389130266,0.978141178931491,41.666666666666664,0.9374999999789063,1.012612612612618,5.924704401865789e-19,0.997835854067433,0
69,52.53888888888889,0.7805555555555586,0.7638888888888857,0.7763888888888886,1.0053667262969632,0.027504635733698053,1.057795497989358,47.22222222222222,1.0624999999760938,0.9838998211091198,2.560816709983797e-16,0.9985679491884929,0
70,53.30277777777778,0.7638888888888857,0.7805555555555586,0.774999999999995,0.9856630824372782,0.026424995663966017,1.0162738281054604,47.22222222222222,1.0624999999760938,1.0071684587813723,1.2676525682018408e-16,0.9990553284815309,0
71,54.083333333333336,0.7805555555555586,0.7888888888888843,0.780555555555555,1.0000000000000044,0.027417450609448273,1.0544424620569435,44.44444444444444,0.9999999999775001,1.0106761565836246,5.527685397711341e-17,0.9993418864238057,0
72,54.87222222222222,0.7888888888888843,0.7583333333333329,0.7805555555555586,1.0106761565836202,0.027183509301632734,1.0454453582742589,47.22222222222222,1.0624999999760938,0.9715302491103159,1.5059433179947688e-16,0.9966644088845211,0
73,55.63055555555555,0.7583333333333329,0.7750000000000057,0.7805555555555586,0.9715302491103159,0.027702713501767843,1.0654133327916309,47.22222222222222,1.0624999999760938,0.9928825622775835,1.1578363347770969e-15,0.999553337476685,0
74,56.40555555555556,0.7750000000000057,0.7861111111111114,0.780555555555555,0.9928825622775881,0.030234479542055447,1.1627820362097763,50.0,1.1249999999746876,1.007117437722421,4.3283985336900477e-13,0.9958203554673446,0
75,57.19166666666667,0.7861111111111114,0.7694444444444386,0.7805555555555586,1.0071174377224164,0.028284066582576314,1.087771479162863,47.22222222222222,1.0624999999760938,0.9857651245551489,9.174730541809152e-16,0.9979281523778241,0
76,57.96111111111111,0.7694444444444386,0.7777777777777786,0.780555555555555,0.9857651245551533,0.02774349709199246,1.0669818210475428,44.44444444444444,0.9999999999775001,0.9964412811387917,1.6691480380849513e-16,0.9990234762242602,0
77,58.73888888888889,0.7777777777777786,0.7666666666666657,0.7791666666666686,0.9982174688057027,0.02847806463972227,1.0952324131470297,47.22222222222222,1.0624999999760938,0.9839572192513333,3.817704124700746e-15,0.9960128990414663,0
78,59.50555555555555,0.7666666666666657,0.7722222222222257,0.7763888888888921,0.987477638640424,0.02752650865512421,1.0586367044694756,47.22222222222222,1.0624999999760938,0.9946332737030414,7.58415725037845e-16,0.9982939801153285,0
79,60.27777777777778,0.7722222222222257,0.7916666666666643,0.7736111111111157,0.9982046678635533,0.028344689431221107,1.090102961644312,47.22222222222222,1.0624999999760938,1.023339317773779,5.487164559124557e-15,0.9966087054226721,0
80,61.06944444444444,0.7916666666666643,0.7749999999999986,0.7763888888888921,1.0196779964221752,0.03262793099555971,1.254831325525432,47.22222222222222,1.0624999999760938,0.998211091234341,7.328807157501449e-13,0.99729725543112,0
81,61.84444444444444,0.7749999999999986,0.7944444444444443,0.7750000000000021,0.9999999999999954,0.026123803303383618,1.0046903290132507,41.666666666666664,0.9374999999789063,1.025089605734764,2.8682051402503113e-18,0.9982474907233381,0
82,62.638888888888886,0.7944444444444443,0.7666666666666728,0.7750000000000021,1.025089605734764,0.030485842931841915,1.1724491724936321,50.0,1.1249999999746876,0.9892473118279622,1.3973140678379126e-13,0.996629229419572,0
83,63.40555555555556,0.7666666666666728,0.7555555555555529,0.7750000000000021,0.9892473118279622,0.028534113062078474,1.0973879686472672,47.22222222222222,1.0624999999760938,0.9749103942652269,3.080980701683847e-15,0.9983388819302017,0
84,64.16111111111111,0.7555555555555529,0.7833333333333314,0.7736111111111121,0.976660682226207,0.031324310059580474,1.204695618566258,44.44444444444444,0.9999999999775001,1.0125673249551128,2.42104242469815e-13,0.9965293128877564,0
85,64.94444444444444,0.7833333333333314,0.7638888888888857,0.7736111111111121,1.0125673249551128,0.027174691568421398,1.0451062387678698,44.44444444444444,0.9999999999775001,0.9874326750448779,2.2592909802113953e-17,0.9990803313617531,0
86,65.70833333333333,0.7638888888888857,0.7666666666666657,0.7736111111111121,0.9874326750448779,0.0291759486643569,1.1220722006841086,47.22222222222222,1.0624999999760938,0.9910233393177712,1.0726638896780064e-14,0.9989175154560546,0
87,66.475,0.7666666666666657,0.7694444444444457,0.7694444444444493,0.9963898916967434,0.028550160713430903,1.098005142185512,50.0,1.1249999999746876,0.9999999999999953,1.0759382649422073e-14,0.9990610557524164,0
88,67.24444444444444,0.7694444444444457,0.7638888888888999,0.7708333333333357,0.9981981981981968,0.02818846458401539,1.084094740279438,47.22222222222222,1.0624999999760938,0.9909909909910023,2.5068270416840448e-15,0.9973474564304164,0
89,68.00833333333334,0.7638888888888999,0.7777777777777715,0.7680555555555593,0.9945750452079661,0.0300010936237213,1.1538062920443843,47.22222222222222,1.0624999999760938,1.0126582278480882,5.2046769536328794e-14,0.9982851331023268,0
90,68.78611111111111,0.7777777777777715,0.7805555555555515,0.7680555555555593,1.0126582278480882,0.028025083931368516,1.077811315168787,47.22222222222222,1.0624999999760938,1.01627486437612,1.017279369872363e-15,0.9987848551816998,0
91,69.56666666666666,0.7805555555555515,0.7444444444444542,0.7680555555555593,1.01627486437612,0.028687591361683848,1.103290561065996,47.22222222222222,1.0624999999760938,0.9692585895117621,3.97404184280842e-15,0.9958524309021332,0
92,70.31111111111112,0.7444444444444542,0.7777777777777715,0.7666666666666693,0.9710144927536326,0.0282129526629264,1.0850365225985086,50.0,1.1249999999746876,1.0144927536231767,4.236766983794528e-14,0.997829880722143,0
93,71.08888888888889,0.7777777777777715,0.7694444444444457,0.7680555555555557,1.012658227848093,0.028270510802540758,1.0872501400245382,47.22222222222222,1.0624999999760938,1.0018083182640158,1.32107557145988e-15,0.9986607134505725,0
94,71.85833333333333,0.7694444444444457,0.7833333333333314,0.7694444444444457,1.0,0.02980557823363755,1.146287003244466,50.0,1.1249999999746876,1.0180505415162413,1.286865850425728e-13,0.9981699406067865,0
95,72.64166666666667,0.7833333333333314,0.75555555555556,0.7694444444444457,1.0180505415162413,0.029581528623443345,1.1376703223589477,50.0,1.1249999999746876,0.9819494584837587,2.8793658538202316e-14,0.9986502774785138,0
96,73.39722222222223,0.75555555555556,0.7638888888888857,0.7694444444444457,0.9819494584837587,0.032193236953216756,1.2381135109197356,50.0,1.1249999999746876,0.992779783393496,2.205071888972121e-11,0.9961245186147493,0
97,74.16111111111111,0.7638888888888857,0.7888888888888914,0.7694444444444457,0.992779783393496,0.02826863783557089,1.0871781079479168,47.22222222222222,1.0624999999760938,1.0252707581227454,3.695379014590069e-15,0.9987997351593135,0
98,74.95,0.7888888888888914,0.7583333333333258,0.7736111111111086,1.0197486535009042,0.033699102613932795,1.2960273088665528,47.22222222222222,1.0624999999760938,0.9802513464990957,6.668746718035967e-12,0.9955436812168363,0
99,75.70833333333333,0.7583333333333258,0.75833333333334,0.7736111111111086,0.9802513464990957,0.02541726950508376,0.9775178814936766,44.44444444444444,0.9999999999775001,0.9802513464991142,4.033369889936128e-18,0.9993795099943172,0
100,76.46666666666667,0.75833333333334,0.7638888888888857,0.7666666666666657,0.9891304347826185,0.03358365120109208,1.2915871851753384,47.22222222222222,1.0624999999760938,0.9963768115942,2.4981974822146924e-11,0.9964093222768162,0
101,77.23055555555555,0.7638888888888857,0.7611111111111057,0.7638888888888857,1.0,0.026126354181365177,1.0047884327391439,44.44444444444444,0.9999999999775001,0.9963636363636335,9.444965782631571e-18,0.9998835836188782,0
102,77.99166666666666,0.7611111111111057,0.7750000000000057,0.7638888888888857,0.9963636363636335,0.03009101589099264,1.1572645952340563,50.0,1.1249999999746876,1.0145454545454662,3.2182251113142823e-13,0.9980125143391293,0
103,78.76666666666667,0.7750000000000057,0.75,0.7638888888888857,1.0145454545454662,0.030739454047703802,1.182202753642503,47.22222222222222,1.0624999999760938,0.9818181818181859,1.7317894893727898e-13,0.995864778698043,0
104,79.51666666666667,0.75,0.74722222222222,0.7624999999999957,0.9836065573770547,0.023298295281009185,0.8960246591771412,41.666666666666664,0.9374999999789063,0.9799635701275071,4.8019792650309534e-20,0.9977845691266028,0
105,80.26388888888889,0.74722222222222,0.7777777777777857,0.7597222222222229,0.9835466179159013,0.033004880155865106,1.2693283408141456,50.0,1.1249999999746876,1.0237659963437025,1.3626583195147646e-10,0.9963745242770858,0
106,81.04166666666667,0.7777777777777857,0.7583333333333258,0.7624999999999957,1.0200364298725115,0.025355601629175332,0.9751462085095992,44.44444444444444,0.9999999999775001,0.9945355191256787,1.17982890418758e-18,0.9996313357568163,0
107,81.8,0.7583333333333258,0.7444444444444542,0.7597222222222229,0.9981718464350897,0.02164785680490727,0.8325507631171373,41.666666666666664,0.9374999999789063,0.9798903107861181,1.529095384209983e-20,0.9912184563102191,0
108,82.54444444444445,0.7444444444444542,0.7555555555555458,0.7583333333333329,0.9816849816849952,0.028099176440524114,1.0806608247343146,47.22222222222222,1.0624999999760938,0.996336996336984,1.041638428072797e-14,0.9969392325656372,0
109,83.3,0.7555555555555458,0.75277777777778,0.7583333333333329,0.996336996336984,0.0333131946195497,1.2811857475003572,50.0,1.1249999999746876,0.9926739926739963,1.5743385761712858e-10,0.9953302154106827,0
110,84.05277777777778,0.75277777777778,0.7805555555555515,0.7569444444444358,0.9944954128440511,0.030985997866929158,1.1916845349886989,44.44444444444444,0.9999999999775001,1.031192660550465,2.421370395855327e-13,0.9959306148919119,0
111,84.83333333333333,0.7805555555555515,0.76111111111112,0.7569444444444358,1.031192660550465,0.028456072386461737,1.094386617306835,47.22222222222222,1.0624999999760938,1.0055045871559865,1.829198778056473e-15,0.9981679683492841,0
112,85.59444444444445,0.76111111111112,0.75277777777778,0.7569444444444358,1.0055045871559865,0.02886372001404305,1.1100642590468144,47.22222222222222,1.0624999999760938,0.9944954128440511,7.618609891991545e-15,0.9988463355785655,0
113,86.34722222222223,0.75277777777778,0.7805555555555515,0.7541666666666629,0.998158379373857,0.028328454280717494,1.089478577112258,47.22222222222222,1.0624999999760938,1.034990791896869,2.089593519646448e-14,0.996111071492832,0
114,87.12777777777778,0.7805555555555515,0.7694444444444457,0.7569444444444358,1.031192660550465,0.024486596047575655,0.9417252899108649,41.666666666666664,0.9374999999789063,1.0165137614679032,8.969294511557793e-20,0.9984144744587558,0
115,87.89722222222223,0.7694444444444457,0.75,0.7597222222222229,1.012797074954297,0.03235552452975216,1.2443548976263568,47.22222222222222,1.0624999999760938,0.9872029250457031,1.9481742608018493e-12,0.9967393630184928,0
116,88.64722222222223,0.75,0.7638888888888857,0.7569444444444358,0.9908256880734059,0.028027282017108402,1.077895850925681,50.0,1.1249999999746876,1.009174311926613,2.7730439065886195e-14,0.996706599699352,0
117,89.41111111111111,0.7638888888888857,0.75555555555556,0.7583333333333329,1.0073260073260037,0.028177636195945675,1.0836782933843936,47.22222222222222,1.0624999999760938,0.9963369963370028,2.4243671137194178e-15,0.9983565210338409,0
118,90.16666666666667,0.75555555555556,0.7777777777777715,0.75833333333334,0.9963369963369935,0.026919306153069332,1.0352844201760103,44.44444444444444,0.9999999999775001,1.0256410256410085,1.127826222153673e-16,0.9992001354241917,0
119,90.94444444444444,0.7777777777777715,0.74722222222222,0.7625000000000028,1.0200364298724833,0.02853630683667793,1.0974723386028402,47.22222222222222,1.0624999999760938,0.979963570127498,1.4522964333408585e-15,0.9987224416771187,0
120,91.69166666666666,0.74722222222222,0.75833333333334,0.7625000000000028,0.979963570127498,0.02604894200491263,1.0018112527272403,44.44444444444444,0.9999999999775001,0.994535519125688,2.559662759942061e-17,0.9993803758838905,0
121,92.45,0.75833333333334,0.7916666666666572,0.75972222222223,0.9981718464350992,0.028111447659560196,1.081132761188114,47.22222222222222,1.0624999999760938,1.0420475319926643,6.632103652609404e-15,0.9977937106400322,0
122,93.24166666666666,0.7916666666666572,0.7694444444444457,0.7611111111111128,1.040145985401445,0.028879008759258154,1.1106522459598216,47.22222222222222,1.0624999999760938,1.0109489051094884,3.4198580433313216e-15,0.9969562298494827,0
123,94.0111111111111,0.7694444444444457,0.7694444444444457,0.7666666666666657,1.0036231884058,0.025549239909751185,0.9825933059158225,44.44444444444444,0.9999999999775001,1.0036231884058,5.138430662338076e-18,0.9983188622023739,0
124,94.78055555555555,0.7694444444444457,0.7722222222222257,0.7666666666666657,1.0036231884058,0.029516149941316298,1.1351559361919012,47.22222222222222,1.0624999999760938,1.0072463768116,2.444641609641602e-14,0.9975381082089539,0
125,95.55277777777778,0.7722222222222257,0.7722222222222257,0.7666666666666657,1.0072463768116,0.031808402936618484,1.223313253458697,52.77777777777778,1.1874999999732814,1.0072463768116,2.7151628168020636e-11,0.9955627675416421,0
126,96.325,0.7722222222222257,0.7833333333333314,0.7694444444444457,1.003610108303252,0.029682543314867638,1.1415552269566294,50.0,1.1249999999746876,1.0180505415162413,1.933690973185756e-13,0.9961654114198745,0
127,97.10833333333333,0.7833333333333314,0.4833333333333343,0.7708333333333357,1.0162162162162107,0.027547178191006348,1.0594316301763036,47.22222222222222,1.0624999999760938,0.6270270270270263,2.3267796537728618e-17,0.9990549850189987,0
128,97.59166666666667,0.4833333333333343,1.0666666666666629,0.7708333333333357,0.6270270270270263,0.04835903475161017,1.859830820616594,116.66666666666667,2.624999999940938,1.3837837837837745,0.9994412064552307,0.8723497195047889,1
129,98.65833333333333,1.0666666666666629,0.7694444444444457,0.7708333333333357,1.3837837837837745,0.03310131391032248,1.2730370680376892,52.77777777777778,1.1874999999732814,0.9981981981981968,8.460932700784401e-16,0.993811301714002,0
130,99.42777777777778,0.7694444444444457,0.4833333333333343,0.7708333333333357,0.9981981981981968,0.027072287117588058,1.041167885680253,44.44444444444444,0.9999999999775001,0.6270270270270263,4.66359094042446e-18,0.9981747934572158,0
131,99.91111111111111,0.4833333333333343,1.0444444444444372,0.7708333333333357,0.6270270270270263,0.04765790613235343,1.8328662498387078,111.11111111111111,2.4999999999437503,1.3549549549549413,0.9993858337402344,0.8754739491249015,1
132,100.95555555555555,1.0444444444444372,0.76111111111112,0.7708333333333357,1.3549549549549413,0.02798808685676406,1.0763884517891633,47.22222222222222,1.0624999999760938,0.9873873873873958,4.586782735679028e-21,0.9974891331303886,0
133,101.71666666666667,0.76111111111112,0.75555555555556,0.7708333333333357,0.9873873873873958,0.024963234502951927,0.9600562366337079,44.44444444444444,0.9999999999775001,0.9801801801801829,1.7500912509871235e-18,0.99899529837626,0
134,102.47222222222223,0.75555555555556,0.7749999999999915,0.7708333333333357,0.9801801801801829,0.027510059884971613,1.0580041043804091,47.22222222222222,1.0624999999760938,1.0054054054053914,1.5601563382948002e-15,0.9983577142356671,0
135,103.24722222222222,0.7749999999999915,0.75833333333334,0.7708333333333357,1.0054054054053914,0.02532718476340387,0.9740533297319613,41.666666666666664,0.9374999999789063,0.9837837837837894,3.9731242579723594e-19,0.9981396155520572,0
136,104.00555555555556,0.75833333333334,0.7722222222222115,0.7652777777777828,0.9909255898366628,0.029512522700032497,1.1350164368166948,47.22222222222222,1.0624999999760938,1.0090744101633187,4.263794788701876e-14,0.9977029790109888,0
137,104.77777777777777,0.7722222222222115,0.7638888888888999,0.7652777777777828,1.0090744101633187,0.028384745815183497,1.0916434824143884,50.0,1.1249999999746876,0.99818511796734,9.666158729015363e-15,0.9976623503128699,0
138,105.54166666666667,0.7638888888888999,0.75277777777778,0.7666666666666728,0.9963768115942093,0.02629711028816205,1.0113555090230382,44.44444444444444,0.9999999999775001,0.9818840579710095,1.1268796462915041e-17,0.9996572083403712,0
139,106.29444444444445,0.75277777777778,0.7638888888888857,0.76250000000001,0.9872495446265839,0.025540957140492555,0.9822747604852451,41.666666666666664,0.9374999999789063,1.0018214936247551,3.127966529166717e-18,0.9976225960135,0
140,107.05833333333334,0.7638888888888857,0.7583333333333258,0.7625000000000028,1.0018214936247645,0.025728113440914902,0.9894725686628881,44.44444444444444,0.9999999999775001,0.9945355191256694,4.7349360954377716e-18,0.9998123294732295,0
141,107.81666666666666,0.7583333333333258,0.7666666666666657,0.7625000000000028,0.9945355191256694,0.02802977955974958,1.0779919034379724,47.22222222222222,1.0624999999760938,1.0054644808743118,2.2906038824472555e-15,0.9991433381560075,0
142,108.58333333333333,0.7666666666666657,0.7750000000000057,0.7625000000000028,1.0054644808743118,0.02964408948801754,1.1400763386224473,47.22222222222222,1.0624999999760938,1.0163934426229544,8.656334519628259e-14,0.9952490344876659,0
143,109.35833333333333,0.7750000000000057,0.7694444444444457,0.7638888888888928,1.0145454545454566,0.027173189876995903,1.0450484855060327,44.44444444444444,0.9999999999775001,1.0072727272727238,5.885874455281503e-17,0.9983726611761276,0
144,110.12777777777778,0.7694444444444457,0.7777777777777715,0.7652777777777828,1.0054446460979987,0.025358492891109197,0.9752574029964763,41.666666666666664,0.9374999999789063,1.016333938293996,7.163425463739847e-19,0.9987934502763425,0
145,110.90555555555555,0.7777777777777715,0.7694444444444457,0.7652777777777828,1.016333938293996,0.026054979911261825,1.0020434634067523,44.44444444444444,0.9999999999775001,1.0054446460979987,6.054873989152926e-18,0.9989186810420034,0
146,111.675,0.7694444444444457,0.7750000000000057,0.7680555555555557,1.0018083182640158,0.02596075053256178,0.9984195138466744,44.44444444444444,0.9999999999775001,1.0090415913200794,8.01956980544142e-18,0.9992832237656344,0
147,112.45,0.7750000000000057,0.7694444444444457,0.7680555555555557,1.0090415913200794,0.03020149302717388,1.1615134141755157,47.22222222222222,1.0624999999760938,1.0018083182640158,4.543134057431904e-14,0.9975136975543389,0
148,113.21944444444445,0.7694444444444457,0.7611111111111057,0.7694444444444457,1.0,0.023133166215571502,0.8896739921950962,41.666666666666664,0.9374999999789063,0.9891696750902441,1.5182783821137183e-20,0.9977112483295808,0
149,113.98055555555555,0.7611111111111057,0.7777777777777857,0.7694444444444457,0.9891696750902441,0.02701065894621577,1.038797739685298,44.44444444444444,0.9999999999775001,1.0108303249097559,7.566064229578404e-17,0.999475211752024,0
150,114.75833333333334,0.7777777777777857,0.7805555555555515,0.7694444444444457,1.0108303249097559,0.029207033184452984,1.123267674266568,50.0,1.1249999999746876,1.0144404332129895,3.469503194941312e-14,0.9978151815303644,0
151,115.53888888888889,0.7805555555555515,0.7638888888888857,0.7722222222222257,1.010791366906465,0.02582897267520426,0.9933514945645034,44.44444444444444,0.9999999999775001,0.9892086330935166,3.3563945232747668e-18,0.9985286387995111,0
152,116.30277777777778,0.7638888888888857,0.7694444444444457,0.7722222222222257,0.9892086330935166,0.027411684654516547,1.0542207103047136,44.44444444444444,0.9999999999775001,0.9964028776978389,1.1641068932158408e-16,0.9991727241653865,0
153,117.07222222222222,0.7694444444444457,0.7694444444444457,0.7694444444444457,1.0,0.027905988422055234,1.0732310438719017,50.0,1.1249999999746876,1.0,8.562892385986006e-15,0.9960024975402725,0
154,117.84166666666667,0.7694444444444457,0.75277777777778,0.7694444444444457,1.0,0.026266887333094388,1.0101931702043736,44.44444444444444,0.9999999999775001,0.9783393501805067,7.23314769039133e-18,0.9997525997385601,0
155,118.59444444444445,0.75277777777778,0.7611111111111057,0.7694444444444457,0.9783393501805067,0.03166454354691752,1.2177805928467722,47.22222222222222,1.0624999999760938,0.9891696750902441,1.938429668515984e-12,0.9966753593117659,0
156,119.35555555555555,0.7611111111111057,0.7638888888888857,0.7694444444444457,0.9891696750902441,0.026963965866096805,1.037001979493623,47.22222222222222,1.0624999999760938,0.992779783393496,7.724659899295441e-16,0.9960895082462777,0
157,120.11944444444444,0.7638888888888857,0.7666666666666657,0.7666666666666657,0.9963768115942,0.026990929604334073,1.0380389727187833,44.44444444444444,0.9999999999775001,1.0,6.05570919341742e-17,0.9990224948983919,0
158,120.8861111111111,0.7666666666666657,0.7888888888888914,0.7652777777777757,1.0018148820326693,0.03341375064872313,1.2850530124947095,47.22222222222222,1.0624999999760938,1.03085299455536,2.1835221131194515e-11,0.9956819619032173,0
159,121.675,0.7888888888888914,0.7666666666666657,0.7680555555555557,1.02712477396022,0.027971099635841466,1.0757351435254492,47.22222222222222,1.0624999999760938,0.998191681735984,1.2368765789754215e-15,0.9953721505766524,0
160,122.44166666666666,0.7666666666666657,0.7805555555555657,0.7666666666666657,1.0,0.02505096836489219,0.9634303763634673,44.44444444444444,0.9999999999775001,1.018115942029,2.3122673903110783e-18,0.9992518473597014,0
161,123.22222222222223,0.7805555555555657,0.7722222222222115,0.7666666666666657,1.018115942029,0.028536767513118518,1.097490055669505,44.44444444444444,0.9999999999775001,1.0072463768115814,3.612391173341066e-16,0.9989524302867847,0
162,123.99444444444444,0.7722222222222115,0.75833333333334,0.7680555555555557,1.0054249547920293,0.02778703810044671,1.068656356321042,47.22222222222222,1.0624999999760938,0.9873417721519072,1.4888365876524617e-15,0.9962016012627011,0
163,124.75277777777778,0.75833333333334,0.7694444444444457,0.7666666666666657,0.9891304347826185,0.029228672617285498,1.1240999010537502,47.22222222222222,1.0624999999760938,1.0036231884058,5.416396226930881e-14,0.9958072258553782,0
164,125.52222222222223,0.7694444444444457,0.7611111111111057,0.7666666666666657,1.0036231884058,0.03202635596184845,1.2316954669551279,47.22222222222222,1.0624999999760938,0.9927536231884,1.4629495531659487e-12,0.99641699474181,0
165,126.28333333333333,0.7611111111111057,0.7722222222222257,0.7666666666666657,0.9927536231884,0.02928199370685484,1.1261505665866602,50.0,1.1249999999746876,1.0072463768116,5.929444760709168e-14,0.9990816805764453,0
166,127.05555555555556,0.7722222222222257,0.7777777777777715,0.7680555555555557,1.0054249547920477,0.026563124497880758,1.021586098374087,44.44444444444444,0.9999999999775001,1.012658227848093,1.7457315955686628e-17,0.9996580719833346,0
167,127.83333333333333,0.7777777777777715,0.7638888888888999,0.7708333333333286,1.009009009009007,0.026484277789612366,1.0185537479788624,44.44444444444444,0.9999999999775001,0.9909909909910114,7.889577544998098e-18,0.9997373106883507,0
168,128.59722222222223,0.7638888888888999,0.7916666666666572,0.7708333333333286,0.9909909909910114,0.02667481423229572,1.0258815523978981,44.44444444444444,0.9999999999775001,1.027027027027021,4.969352711744583e-17,0.9993199706210629,0
169,129.38888888888889,0.7916666666666572,0.7750000000000057,0.7708333333333286,1.027027027027021,0.02818443093718018,1.0839396110312605,47.22222222222222,1.0624999999760938,1.005405405405419,4.661852818890527e-16,0.9991007969643917,0
170,130.1638888888889,0.7750000000000057,0.7666666666666515,0.7722222222222186,1.0035971223021705,0.032295252144023165,1.2420368935308108,47.22222222222222,1.0624999999760938,0.9928057553956685,1.3180497275208647e-12,0.9968421511957593,0
171,130.93055555555554,0.7666666666666515,0.7750000000000057,0.7708333333333286,0.994594594594581,0.026757159097403244,1.0290484377344875,44.44444444444444,0.9999999999775001,1.005405405405419,7.677622439198736e-17,0.9971386176720061,0
172,131.70555555555555,0.7750000000000057,0.7694444444444457,0.7708333333333357,1.0054054054054098,0.02813413951416223,1.0820054628618052,47.22222222222222,1.0624999999760938,0.9981981981981968,1.2148331817978387e-15,0.9985679764169231,0
173,132.475,0.7694444444444457,0.7777777777777715,0.7708333333333357,0.9981981981981968,0.027144105599557315,1.043929938871397,44.44444444444444,0.9999999999775001,1.0090090090089978,6.399520528452431e-17,0.9991604678831298,0
174,133.25277777777777,0.7777777777777715,0.7805555555555657,0.7736111111111157,1.0053859964093217,0.026237672163084882,1.0090695895975168,44.44444444444444,0.9999999999775001,1.0089766606822332,6.945285528500426e-18,0.9997551686069823,0
175,134.03333333333333,0.7805555555555657,0.7666666666666799,0.7750000000000057,1.0071684587813676,0.026989911698320764,1.0379998252671072,47.22222222222222,1.0624999999760938,0.9892473118279669,2.570241275010981e-16,0.9961474758752173,0
176,134.8,0.7666666666666799,0.7638888888888857,0.7750000000000057,0.9892473118279669,0.030313698844079057,1.1658287161166025,50.0,1.1249999999746876,0.9856630824372646,4.149919882560915e-13,0.9969961765121349,0
177,135.5638888888889,0.7638888888888857,0.7722222222222115,0.7722222222222257,0.9892086330935166,0.029989236380698774,1.1533502766145043,47.22222222222222,1.0624999999760938,0.9999999999999816,7.508585224934305e-14,0.9968878764348892,0
178,136.3361111111111,0.7722222222222115,0.75555555555556,0.7736111111111086,0.9982046678635441,0.02682774052686881,1.031762915361212,44.44444444444444,0.9999999999775001,0.9766606822262207,1.5922799966449705e-17,0.9997799676153599,0
179,137.09166666666667,0.75555555555556,0.75555555555556,0.7708333333333286,0.9801801801801919,0.028410107393528252,1.0926188584802534,44.44444444444444,0.9999999999775001,0.9801801801801919,8.103870726429679e-16,0.9991400549671428,0
180,137.84722222222223,0.75555555555556,0.7611111111110915,0.7680555555555628,0.9837251356238662,0.025983970833842806,0.9993125389496003,44.44444444444444,0.9999999999775001,0.9909584086798928,1.7083388959782032e-17,0.9988102699710901,0
181,138.60833333333332,0.7611111111110915,0.7583333333333542,0.7680555555555628,0.9909584086798928,0.029970515295130753,1.1526302859837225,47.22222222222222,1.0624999999760938,0.9873417721519165,1.3237403794635894e-13,0.9954816650832208,0
182,139.36666666666667,0.7583333333333542,0.7583333333333258,0.7652777777777828,0.9909255898366813,0.02713203829782917,1.043465844834141,47.22222222222222,1.0624999999760938,0.9909255898366441,8.0644286372407825e-16,0.997148847265372,0
183,140.125,0.7583333333333258,0.75,0.7624999999999886,0.9945355191256879,0.028298057785143594,1.0883095641326266,47.22222222222222,1.0624999999760938,0.9836065573770638,2.413856281876939e-15,0.9994403593192367,0
184,140.875,0.75,0.7861111111110972,0.7597222222222229,0.9872029250457031,0.029910595631189512,1.150325847147602,47.22222222222222,1.0624999999760938,1.0347349177330705,1.715061334053511e-13,0.9974525093262084,0
185,141.6611111111111,0.7861111111110972,0.75555555555556,0.7597222222222229,1.0347349177330705,0.031630950403059896,1.2164886405853441,47.22222222222222,1.0624999999760938,0.9945155393053067,3.8113127020719673e-13,0.9959947029442382,0
186,142.41666666666666,0.75555555555556,0.7388888888889085,0.75833333333334,0.9963369963369935,0.028462204477389588,1.0946224502129511,47.22222222222222,1.0624999999760938,0.9743589743589917,4.010255465918856e-15,0.9987970659486676,0
187,143.15555555555557,0.7388888888889085,0.7805555555555372,0.7569444444444429,0.9761467889908536,0.023885443254046755,0.9186056701945597,38.888888888888886,0.8749999999803125,1.0311926605504367,1.1653713380438017e-19,0.9981383117795062,0
188,143.9361111111111,0.7805555555555372,0.7416666666666742,0.7569444444444429,1.0311926605504367,0.028395860396451124,1.0920709359586114,50.0,1.1249999999746876,0.9798165137614799,3.6066235142449745e-15,0.9989135118474786,0
189,144.67777777777778,0.7416666666666742,0.7805555555555657,0.7569444444444429,0.9798165137614799,0.02943975304853174,1.132217802779399,47.22222222222222,1.0624999999760938,1.0311926605504742,1.912920641116908e-13,0.9964412252712657,0
190,145.45833333333334,0.7805555555555657,0.7749999999999773,0.75833333333334,1.0293040293040336,0.02826393371334606,1.0869971930156272,47.22222222222222,1.0624999999760938,1.021978021977983,1.8017261114452272e-15,0.9979468756220666,0
191,146.23333333333332,0.7749999999999773,0.7527777777777942,0.75833333333334,1.021978021977983,0.025174689456917684,0.9681885420566254,44.44444444444444,0.9999999999775001,0.9926739926740057,1.3184656156223863e-18,0.9987414729393359,0
192,146.98611111111111,0.7527777777777942,0.7861111111110972,0.7569444444444429,0.9944954128440605,0.025946795064506388,0.9978828031836335,44.44444444444444,0.9999999999775001,1.0385321100917269,3.1617625647357346e-17,0.9992741615588172,0
193,147.7722222222222,0.7861111111110972,0.7694444444444457,0.7652777777777686,1.0272232304900122,0.029541896086968885,1.136146102257926,50.0,1.1249999999746876,1.0054446460980173,2.9834235125772435e-14,0.9984117651122255,0
194,148.54166666666666,0.7694444444444457,0.47222222222222854,0.7722222222222115,0.9964028776978572,0.028013499218008643,1.0773657809048098,47.22222222222222,1.0624999999760938,0.6115107913669231,1.007635026265146e-16,0.998864357280313,0
195,149.01388888888889,0.47222222222222854,1.0277777777777715,0.7625000000000028,0.6193078324225925,0.04693576535441904,1.8050935764897698,105.55555555555556,2.3749999999465627,1.3479052823314985,0.9993302822113037,0.8779703028967955,1
196,150.04166666666666,1.0277777777777715,0.7638888888888857,0.7722222222222115,1.3309352517985715,0.027943656614636346,1.0746797176487692,47.22222222222222,1.0624999999760938,0.9892086330935348,5.162687850123467e-21,0.9988815991803588,0
197,150.80555555555554,0.7638888888888857,0.75,0.7722222222222115,0.9892086330935348,0.02643840774680585,1.0167896408209602,44.44444444444444,0.9999999999775001,0.9712230215827473,1.3394845024620272e-17,0.9995271076353445,0
198,151.55555555555554,0.75,0.75555555555556,0.7666666666666657,0.9782608695652186,0.026981831980683255,1.0376890889597903,47.22222222222222,1.0624999999760938,0.9855072463768185,4.303490119566178e-16,0.999593775930962,0
199,152.3111111111111,0.75555555555556,0.7527777777777942,0.7666666666666657,0.9855072463768185,0.028466718713686213,1.094796062358833,47.22222222222222,1.0624999999760938,0.9818840579710372,5.6306765043449055e-15,0.9982513418239805,0
200,153.0638888888889,0.7527777777777942,0.7666666666666515,0.7597222222222229,0.9908592321755235,0.02936965564956295,1.1295219403884964,50.0,1.1249999999746876,1.0091407678244764,1.1928744667391578e-13,0.9988233522539907,0
201,153.83055555555555,0.7666666666666515,0.75,0.7597222222222229,1.0091407678244764,0.02843850407380744,1.0937109609479247,47.22222222222222,1.0624999999760938,0.9872029250457031,2.9279167659173114e-15,0.9983011032323211,0
202,154.58055555555555,0.75,0.74444444444444,0.7597222222222229,0.9872029250457031,0.030575082525083074,1.17588122085402,44.44444444444444,0.9999999999775001,0.9798903107860994,4.426496942968629e-14,0.997387981953632,0
203,155.325,0.74444444444444,0.7416666666666742,0.7541666666666771,0.9871086556169234,0.030789962823354083,1.1841452609350598,47.22222222222222,1.0624999999760938,0.9834254143646374,1.2687945312450655e-12,0.9951454018259474,0
204,156.06666666666666,0.7416666666666742,0.7777777777777715,0.7513888888888971,0.9870609981515704,0.04583251159784859,1.7626637523634219,122.22222222222223,2.7499999999381255,1.035120147874287,0.9992490410804749,0.8774954200903384,1
205,156.84444444444443,0.7777777777777715,0.7694444444444457,0.7541666666666771,1.0313075506445446,0.02734702739667281,1.0517340692554868,44.44444444444444,0.9999999999775001,1.0202578268876488,5.0768064511654264e-17,0.9994300883839455,0
206,157.61388888888888,0.7694444444444457,0.5250000000000057,0.7541666666666771,1.0202578268876488,0.02935111791929467,1.128809001383938,50.0,1.1249999999746876,0.6961325966850808,2.4364999289525936e-14,0.9965143436887997,0
207,158.13888888888889,0.5250000000000057,0.9805555555555543,0.7513888888888971,0.6987060998151571,0.04867121792023018,1.8718370130821687,113.88888888888889,2.562499999942344,1.3049907578558066,0.9996108412742615,0.8738055149810352,1
208,159.11944444444444,0.9805555555555543,0.7722222222222399,0.7541666666666771,1.3001841620625953,0.029887612088186796,1.1494419274857857,47.22222222222222,1.0624999999760938,1.0239410681399725,2.5738101126766168e-18,0.9980266730450894,0
209,159.89166666666668,0.7722222222222399,0.7527777777777658,0.7597222222222229,1.0164533820841175,0.029620125741855914,1.1391547215157836,47.22222222222222,1.0624999999760938,0.9908592321754861,1.87367465699596e-14,0.9977889354034385,0
210,160.64444444444445,0.7527777777777658,0.7305555555555543,0.7597222222222086,0.9908592321755046,0.028526017976887953,1.0970766413221835,50.0,1.1249999999746876,0.9616087751371271,1.6818015350587162e-14,0.9991318895232572,0
211,161.375,0.7305555555555543,0.7416666666666742,0.7513888888888829,0.9722735674676586,0.027110405825435592,1.0426338857371413,44.44444444444444,0.9999999999775001,0.9870609981515891,3.002407013820782e-16,0.9997136310222339,0
212,162.11666666666667,0.7416666666666742,0.74444444444444,0.7486111111111029,0.9907235621521546,0.026147786886261043,1.0056127090163536,44.44444444444444,0.9999999999775001,0.9944341372912852,3.657383710614642e-17,0.9994259172020721,0
213,162.86111111111111,0.74444444444444,0.74444444444444,0.7486111111111029,0.9944341372912852,0.0290500736141573,1.1172311963276254,47.22222222222222,1.0624999999760938,0.9944341372912852,2.2865847534641812e-14,0.999167971213607,0
214,163.60555555555555,0.74444444444444,0.7361111111111143,0.7486111111111029,0.9944341372912852,0.026517717361796967,1.0198397940568416,44.44444444444444,0.9999999999775001,0.9833024118738555,6.175453844124067e-17,0.9987890847518297,0
215,164.34166666666667,0.7361111111111143,0.75,0.74444444444444,0.9888059701492639,0.02445444994604894,0.9404889891722513,41.666666666666664,0.9374999999789063,1.00746268656717,1.821390497476438e-18,0.996728179657247,0
216,165.09166666666667,0.75,0.7666666666666515,0.74444444444444,1.00746268656717,0.02765308699409164,1.0635047564734756,47.22222222222222,1.0624999999760938,1.0298507462686424,2.770943773099197e-15,0.9988453014168444,0
217,165.85833333333332,0.7666666666666515,0.7333333333333485,0.74722222222222,1.0260223048326964,0.030897245919540142,1.18827124090639,50.0,1.1249999999746876,0.9814126394052276,9.123562365667692e-13,0.9971872121492434,0
218,166.59166666666667,0.7333333333333485,0.7416666666666742,0.74444444444444,0.9850746268656978,0.02859124975646794,1.0995853777924143,47.22222222222222,1.0624999999760938,0.996268656716434,6.024956873467921e-14,0.9960715473961774,0
219,167.33333333333334,0.7416666666666742,0.7638888888888857,0.7430555555555571,0.9981308411215034,0.027552662244591235,1.05964254033883,44.44444444444444,0.9999999999775001,1.0280373831775638,6.25714778960658e-16,0.9995301630839156,0
220,168.09722222222223,0.7638888888888857,0.73888888888888,0.7430555555555571,1.0280373831775638,0.030225393223774016,1.1624325872418113,50.0,1.1249999999746876,0.9943925233644719,3.218237308588723e-13,0.9978714870019011,0
221,168.8361111111111,0.73888888888888,0.7694444444444457,0.7430555555555571,0.9943925233644719,0.027955346412030027,1.0751292933194003,47.22222222222222,1.0624999999760938,1.0355140186915883,8.001461160853963e-15,0.9994073143155425,0
222,169.60555555555555,0.7694444444444457,0.76111111111112,0.74444444444444,1.0335820895522467,0.027620914065282668,1.0622674239895713,44.44444444444444,0.9999999999775001,1.0223880597015105,1.292753463151436e-16,0.999322485220624,0
223,170.36666666666667,0.76111111111112,0.73888888888888,0.74722222222222,1.0185873605948104,0.027420693222492857,1.0545671690886413,47.22222222222222,1.0624999999760938,0.9888475836431138,9.011083776399621e-16,0.9974291022415444,0
224,171.10555555555555,0.73888888888888,0.7750000000000057,0.7458333333333371,0.9906890130353648,0.02473678369761396,0.951347208645779,44.44444444444444,0.9999999999775001,1.039106145251399,9.585910741565707e-18,0.9992176094842591,0
225,171.88055555555556,0.7750000000000057,0.7416666666666742,0.75555555555556,1.0257352941176485,0.03000864700090508,1.1540967859253788,47.22222222222222,1.0624999999760938,0.9816176470588278,2.7722825933756273e-14,0.9976859885243454,0
226,172.62222222222223,0.7416666666666742,0.7361111111110858,0.7513888888888971,0.9870609981515704,0.03103897130900908,1.1937218304136474,47.22222222222222,1.0624999999760938,0.9796672828095675,1.0517031039450342e-12,0.9969956924789949,0
227,173.35833333333332,0.7361111111110858,0.7527777777777942,0.7416666666666742,0.992509363295836,0.025692442132687236,0.9881006926774742,44.44444444444444,0.9999999999775001,1.0149812734082515,2.867604896638812e-17,0.9997116739532916,0
228,174.11111111111111,0.7527777777777942,0.7472222222222058,0.7472222222222342,1.007434944237924,0.027325983563218487,1.0509247485102882,44.44444444444444,0.9999999999775001,0.9999999999999619,1.346868677615839e-16,0.9997171124704933,0
229,174.85833333333332,0.7472222222222058,0.7416666666666742,0.75,0.9962962962962744,0.02756281978885547,1.0600331873809274,44.44444444444444,0.9999999999775001,0.988888888888899,2.814814362294576e-16,0.9993130556586121,0
230,175.6,0.7416666666666742,0.7472222222222342,0.74444444444444,0.996268656716434,0.028180428868901774,1.0837856962567283,47.22222222222222,1.0624999999760938,1.0037313432836041,9.561894055406042e-15,0.9981494598598352,0
231,176.34722222222223,0.7472222222222342,0.75555555555556,0.74722222222222,1.000000000000019,0.03378644075657257,1.2993862297038108,50.0,1.1249999999746876,1.0111524163568861,5.608257191980215e-10,0.9955497747132267,0
232,177.1027777777778,0.75555555555556,0.7666666666666515,0.74722222222222,1.0111524163568861,0.02693991023128796,1.0360768284591413,44.44444444444444,0.9999999999775001,1.0260223048326964,8.511428437586068e-17,0.999832997136757,0
233,177.86944444444444,0.7666666666666515,0.75,0.74722222222222,1.0260223048326964,0.026244283112381646,1.0093238388255836,47.22222222222222,1.0624999999760938,1.0037174721189621,6.534732794869329e-17,0.998902997897783,0
234,178.61944444444444,0.75,0.7361111111111143,0.7486111111111171,1.0018552875695652,0.02775255971484123,1.0673303587174185,47.22222222222222,1.0624999999760938,0.9833024118738368,1.3434877456068735e-15,0.9996182339200461,0
235,179.35555555555555,0.7361111111111143,0.7666666666666799,0.74722222222222,0.9851301115241707,0.0298727414988633,1.1488700223498245,47.22222222222222,1.0624999999760938,1.0260223048327346,7.136703879771777e-13,0.9951276218627119,0
236,180.12222222222223,0.7666666666666799,0.7472222222222058,0.7486111111111171,1.024118738404462,0.027344433197837276,1.051634299461199,47.22222222222222,1.0624999999760938,0.9981447124303968,1.614681013779862e-15,0.9948208117716852,0
237,180.86944444444444,0.7472222222222058,0.7666666666666799,0.7486111111111171,0.9981447124303968,0.03066708721232661,1.179419611433063,50.0,1.1249999999746876,1.024118738404462,1.850505859657403e-12,0.9979322472175669,0
238,181.63611111111112,0.7666666666666799,0.7583333333333258,0.7486111111111171,1.024118738404462,0.029490050688819935,1.1341521900576552,50.0,1.1249999999746876,1.0129870129869947,1.5723795150027892e-13,0.9967035824680248,0
239,182.39444444444445,0.7583333333333258,0.7472222222222342,0.75277777777778,1.007380073800725,0.025533540936613995,0.9819895421260251,44.44444444444444,0.9999999999775001,0.992619926199275,1.0572897685380304e-17,0.9972563887676005,0
240,183.14166666666668,0.7472222222222342,0.7777777777777715,0.75277777777778,0.992619926199275,0.025301602329140194,0.9730694598107694,44.44444444444444,0.9999999999775001,1.0332103321033097,1.81494808399363e-17,0.9984187255379507,0
241,183.91944444444445,0.7777777777777715,0.75,0.7569444444444429,1.0275229357798104,0.027764858530996576,1.0678033565235223,47.22222222222222,1.0624999999760938,0.9908256880733965,5.873675327956469e-16,0.9978618248931113,0
242,184.66944444444445,0.75,0.7416666666666458,0.7541666666666629,0.994475138121552,0.026973574093386875,1.0373715004598156,44.44444444444444,0.9999999999775001,0.9834254143646182,7.425187430326743e-17,0.9996523324740844,0
243,185.4111111111111,0.7416666666666458,0.7527777777777942,0.75,0.9888888888888611,0.032499762158064306,1.2499021048443137,44.44444444444444,0.9999999999775001,1.0037037037037255,1.692932361137267e-12,0.9973788560741863,0
244,186.1638888888889,0.7527777777777942,0.75,0.7513888888888971,1.0018484288355007,0.0307865528156232,1.1840141161033026,47.22222222222222,1.0624999999760938,0.9981515711644993,4.551670997575419e-13,0.9969484898786494,0
245,186.9138888888889,0.75,0.7583333333333258,0.7513888888888971,0.9981515711644993,0.026556932959105387,1.0213479791746318,44.44444444444444,0.9999999999775001,1.009242144177428,5.3311945988997794e-17,0.999622840287697,0
246,187.67222222222222,0.7583333333333258,0.75555555555556,0.7513888888888971,1.009242144177428,0.030854761304440197,1.1866373332618152,50.0,1.1249999999746876,1.0055452865064645,1.6443521891340573e-12,0.9970501145845574,0
247,188.42777777777778,0.75555555555556,0.75,0.7541666666666771,1.0018416206261431,0.027437323783277085,1.055206760628661,47.22222222222222,1.0624999999760938,0.9944751381215332,1.2150093646508676e-15,0.9979227358466274,0
248,189.17777777777778,0.75,0.7722222222222115,0.7513888888888971,0.9981515711644993,0.0293336069366609,1.1281355498692656,47.22222222222222,1.0624999999760938,1.0277264325323219,8.985536923897253e-14,0.99671426987505,0
249,189.95,0.7722222222222115,0.75,0.7513888888888971,1.0277264325323219,0.02729268234055602,1.0496440231899835,47.22222222222222,1.0624999999760938,0.9981515711644993,3.981748360320776e-16,0.9977773980339781,0
250,190.7,0.75,0.7361111111111143,0.7513888888888971,0.9981515711644993,0.03208951025226479,1.2341243056690059,50.0,1.1249999999746876,0.9796672828096054,2.7419386205984608e-11,0.9954315185767184,0
251,191.4361111111111,0.7361111111111143,0.7694444444444457,0.75,0.9814814814814857,0.027832745207050612,1.070414197146852,47.22222222222222,1.0624999999760938,1.0259259259259277,1.0957580735783054e-14,0.997924494625906,0
252,192.20555555555555,0.7694444444444457,0.7472222222222342,0.7513888888888971,1.0240295748613584,0.028998155627039363,1.1152344924421513,47.22222222222222,1.0624999999760938,0.9944547134935356,5.585962482092298e-15,0.998914629413312,0
253,192.95277777777778,0.7472222222222342,0.7638888888888857,0.7513888888888971,0.9944547134935356,0.03134821965740401,1.2056151531923969,50.0,1.1249999999746876,1.0166358595193932,6.027377381923049e-12,0.9974593091918011,0
254,193.71666666666667,0.7638888888888857,0.7583333333333258,0.75277777777778,1.014760147601469,0.03109858414461679,1.1960144689978756,52.77777777777778,1.1874999999732814,1.007380073800725,2.0397784156189758e-11,0.9945726818589088,0
255,194.475,0.7583333333333258,0.7472222222222342,0.7569444444444429,1.0018348623853133,0.02780532510195733,1.0693596525965117,47.22222222222222,1.0624999999760938,0.9871559633027702,1.5470470211283822e-15,0.9983327259222077,0
256,195.22222222222223,0.7472222222222342,0.7750000000000057,0.75277777777778,0.992619926199275,0.0264162218345081,1.0159363970850837,44.44444444444444,0.9999999999775001,1.0295202952029565,6.832032756677218e-17,0.9997182741152553,0
257,195.99722222222223,0.7750000000000057,0.7555555555555316,0.7541666666666629,1.027624309392278,0.027278535949551763,1.0490999698579568,44.44444444444444,0.9999999999775001,1.0018416206261243,3.8643231240517283e-17,0.9995496341296274,0
258,196.75277777777777,0.7555555555555316,0.7444444444444684,0.7569444444444287,0.998165137614668,0.028113940822971955,1.081228645280463,47.22222222222222,1.0624999999760938,0.9834862385321623,2.826026749175618e-15,0.9984228611748632,0
259,197.49722222222223,0.7444444444444684,0.7527777777777658,0.7527777777777658,0.9889298892989407,0.032528595985554465,1.2510110194725312,47.22222222222222,1.0624999999760938,1.0,9.56214534636457e-12,0.99701079717429,0
260,198.25,0.7527777777777658,0.74444444444444,0.7541666666666487,0.9981583793738569,0.028613328508206613,1.1004345002609508,47.22222222222222,1.0624999999760938,0.9871086556169606,2.0357562749255542e-14,0.9959132342559254,0
261,198.99444444444444,0.74444444444444,0.7527777777777942,0.7541666666666487,0.9871086556169606,0.027667748277008835,1.0640686119345955,44.44444444444444,0.9999999999775001,0.9981583793738946,4.4021342531144335e-16,0.9995190826999231,0
262,199.74722222222223,0.7527777777777942,0.7583333333333258,0.75277777777778,1.0000000000000189,0.029088024678521354,1.1186907490160114,47.22222222222222,1.0624999999760938,1.007380073800725,2.063118827253657e-14,0.9988081515250031,0
263,200.50555555555556,0.7583333333333258,0.74444444444444,0.7541666666666629,1.005524861878448,0.02704315374525554,1.04004745091453,47.22222222222222,1.0624999999760938,0.987108655616942,4.1021292121801493e-16,0.9983895101704409,0
264,201.25,0.74444444444444,0.75,0.75277777777778,0.9889298892988843,0.027943283634806495,1.0746653732891973,47.22222222222222,1.0624999999760938,0.996309963099628,3.4637491730756713e-15,0.9993120533129716,0
265,202.0,0.75,0.75,0.7513888888888829,0.9981515711645181,0.030217116407223146,1.1621142707452772,47.22222222222222,1.0624999999760938,0.9981515711645181,1.7005887258288166e-13,0.997657399049006,0
266,202.75,0.75,0.7472222222222342,0.7513888888888829,0.9981515711645181,0.02695935084920066,1.036824491446039,47.22222222222222,1.0624999999760938,0.9944547134935544,5.179685881798852e-16,0.998952966689939,0
267,203.49722222222223,0.7472222222222342,0.75,0.75,0.9962962962963123,0.025521406919012318,0.9815228822758146,44.44444444444444,0.9999999999775001,1.0,1.069169405623272e-17,0.9992388925489352,0
268,204.24722222222223,0.75,0.7305555555555543,0.75,1.0,0.029810031785448783,1.146458281537391,47.22222222222222,1.0624999999760938,0.9740740740740724,8.325429917948463e-14,0.99745967273036,0
269,204.9777777777778,0.7305555555555543,0.7583333333333258,0.75,0.9740740740740724,0.02756810906214775,1.0602366065256266,47.22222222222222,1.0624999999760938,1.011111111111101,6.0024727226962345e-15,0.9987542727074432,0
270,205.73611111111111,0.7583333333333258,0.76111111111112,0.75,1.011111111111101,0.03260054070024582,1.2537779274236662,47.22222222222222,1.0624999999760938,1.0148148148148266,7.011764866643455e-12,0.9964239578792282,0
271,206.49722222222223,0.76111111111112,0.7361111111110858,0.75,1.0148148148148266,0.033988290421268864,1.3071491271533053,50.0,1.1249999999746876,0.9814814814814478,2.858702996544338e-10,0.9954784920167994,0
272,207.23333333333332,0.7361111111110858,0.47222222222222854,0.75,0.9814814814814478,0.028555501343310738,1.0982105364433388,47.22222222222222,1.0624999999760938,0.6296296296296381,1.8210458741809137e-15,0.9983617112961496,0
273,207.70555555555555,0.47222222222222854,1.0333333333333314,0.7486111111111171,0.6307977736549198,0.046561547194855286,1.7907015922335514,113.88888888888889,2.562499999942344,1.3803339517625095,0.999470055103302,0.8712329130236236,1
274,208.73888888888888,1.0333333333333314,0.75555555555556,0.75,1.3777777777777753,0.033160044599246985,1.2752957803122185,47.22222222222222,1.0624999999760938,1.0074074074074133,1.5630744991469893e-16,0.9944714668102197,0
275,209.49444444444444,0.75555555555556,0.7361111111111143,0.75,1.0074074074074133,0.030602627431159074,1.1769405651013618,47.22222222222222,1.0624999999760938,0.9814814814814857,3.485775849822875e-13,0.9962494343882532,0
276,210.23055555555555,0.7361111111111143,0.74444444444444,0.7486111111111171,0.9833024118738368,0.027743518174913207,1.0669826318715387,47.22222222222222,1.0624999999760938,0.9944341372912663,8.439821886881745e-15,0.9969370536123288,0
277,210.975,0.74444444444444,0.7305555555555543,0.74722222222222,0.9962825278810379,0.02965844242708912,1.140628335546887,47.22222222222222,1.0624999999760938,0.9776951672862465,9.057790867177118e-14,0.9974805058117394,0
278,211.70555555555555,0.7305555555555543,0.7638888888888857,0.7402777777777771,0.9868667917448397,0.03244972770420625,1.2479778394023773,50.0,1.1249999999746876,1.0318949343339554,1.8680902658108067e-10,0.9959484753608614,0
279,212.46944444444443,0.7638888888888857,0.7388888888889085,0.75,1.0185185185185144,0.03028031122702518,1.1645446681710079,47.22222222222222,1.0624999999760938,0.9851851851852113,7.657846660394027e-14,0.9977853741861218,0
280,213.20833333333334,0.7388888888889085,0.7305555555555543,0.7416666666666742,0.9962546816479563,0.027016738229649794,1.039031541678161,47.22222222222222,1.0624999999760938,0.9850187265917485,7.156854010081481e-16,0.9995735376404948,0
281,213.9388888888889,0.7305555555555543,0.7666666666666515,0.7375000000000114,0.9905838041431092,0.026753056425359748,1.0288906538590945,44.44444444444444,0.9999999999775001,1.0395480225988334,3.637197327294796e-16,0.999705349936185,0
282,214.70555555555555,0.7666666666666515,0.7416666666666742,0.7416666666666742,1.0337078651685083,0.026200813434995942,1.0076520468599364,44.44444444444444,0.9999999999775001,1.0,7.849710748195493e-18,0.9998514132986116,0
283,215.44722222222222,0.7416666666666742,0.7333333333333201,0.7430555555555571,0.9981308411215034,0.025515446844955658,0.9812936649334779,44.44444444444444,0.9999999999775001,0.9869158878504474,1.069446759282661e-17,0.9993614103245223,0
284,216.18055555555554,0.7333333333333201,0.7388888888889085,0.7402777777777914,0.9906191369605643,0.029683231704349087,1.1415817015953553,50.0,1.1249999999746876,0.9981238273921282,5.444561902018252e-13,0.9986822765752514,0
285,216.91944444444445,0.7388888888889085,0.75,0.7388888888889085,1.0,0.02764674072640692,1.0632606865846421,47.22222222222222,1.0624999999760938,1.0150375939849354,3.287089228739236e-15,0.9994687223946184,0
286,217.66944444444445,0.75,0.75,0.7402777777777914,1.013133208255141,0.026585421485691606,1.022443613941768,44.44444444444444,0.9999999999775001,1.013133208255141,5.3018078495859755e-17,0.9996531698112977,0
287,218.41944444444445,0.75,0.7416666666666458,0.7402777777777914,1.013133208255141,0.02840791500884108,1.0925345419790498,47.22222222222222,1.0624999999760938,1.0018761726078333,1.3460970517767141e-14,0.9968125031047159,0
288,219.1611111111111,0.7416666666666458,0.7388888888889085,0.74166666666666,0.9999999999999808,0.026193838759260818,1.007383809146702,44.44444444444444,0.9999999999775001,0.9962546816479754,3.5482130751143836e-17,0.9996229293356106,0
289,219.9,0.7388888888889085,0.7638888888888857,0.7402777777777771,0.9981238273921473,0.02870849071058802,1.1040943251076574,47.22222222222222,1.0624999999760938,1.0318949343339554,8.429256506117463e-14,0.9960696301691772,0
290,220.6638888888889,0.7638888888888857,0.73888888888888,0.74166666666666,1.0299625468164844,0.029742916917310878,1.1438771237263297,50.0,1.1249999999746876,0.9962546816479371,1.3078318809867095e-13,0.9983533411436682,0
291,221.40277777777777,0.73888888888888,0.7277777777777885,0.74166666666666,0.9962546816479371,0.02811822949863486,1.081393582633296,47.22222222222222,1.0624999999760938,0.9812734082397236,7.2959538665587e-15,0.9981399676162157,0
292,222.13055555555556,0.7277777777777885,0.75555555555556,0.7402777777777771,0.983114446529096,0.02490949802998293,0.957989595950487,44.44444444444444,0.9999999999775001,1.020637898686686,1.7707217144906248e-17,0.99910555109366,0
293,222.88611111111112,0.75555555555556,0.7361111111111143,0.7402777777777771,1.020637898686686,0.03198393356821004,1.2300639522737806,47.22222222222222,1.0624999999760938,0.9943714821763653,1.8932516145098166e-12,0.9975357688938569,0
294,223.62222222222223,0.7361111111111143,0.7361111111110858,0.7402777777777771,0.9943714821763653,0.028525912966005137,1.0970726027288293,47.22222222222222,1.0624999999760938,0.994371482176327,2.5161069652475734e-14,0.997596941619387,0
295,224.35833333333332,0.7361111111110858,0.7527777777777942,0.7402777777777771,0.994371482176327,0.02867731488625184,1.1028953400729815,47.22222222222222,1.0624999999760938,1.0168855534709424,7.211493500882543e-14,0.9962353460516173,0
296,225.11111111111111,0.7527777777777942,0.7361111111111143,0.7402777777777771,1.0168855534709424,0.029334080655228998,1.128153768520605,50.0,1.1249999999746876,0.9943714821763653,1.7244754615172025e-13,0.9975110348551608,0
297,225.84722222222223,0.7361111111111143,0.75,0.7388888888888943,0.9962406015037565,0.032916818055509944,1.2659415774262905,47.22222222222222,1.0624999999760938,1.015037593984955,4.6119042612646766e-11,0.9961247596908613,0
298,226.59722222222223,0.75,0.75,0.7388888888888943,1.015037593984955,0.02938152334765746,1.1299783579079798,50.0,1.1249999999746876,1.015037593984955,2.7273262858187874e-13,0.9972347702011223,0
299,227.34722222222223,0.75,0.73888888888888,0.74444444444444,1.00746268656717,0.025353900273260874,0.9750807763895663,44.44444444444444,0.9999999999775001,0.9925373134328298,5.48485431646559e-18,0.9993836530877862,0
300,228.0861111111111,0.73888888888888,0.7416666666666742,0.73888888888888,1.0,0.029270643795449854,1.125714062525926,50.0,1.1249999999746876,1.003759398496263,3.1414570922892737e-13,0.997793074937245,0
301,228.82777777777778,0.7416666666666742,0.7472222222222058,0.7402777777777771,1.001876172607891,0.026861817587454137,1.033073478483039,44.44444444444444,0.9999999999775001,1.0093808630393784,1.928432102428883e-16,0.9985876653919349,0
302,229.575,0.7472222222222058,0.7444444444444684,0.74444444444444,1.003731343283566,0.026905534491176507,1.0347547784788393,44.44444444444444,0.9999999999775001,1.0000000000000382,9.648576786719867e-17,0.9995091472294619,0
303,230.31944444444446,0.7444444444444684,0.7472222222222058,0.7430555555555713,1.0018691588785156,0.029920823341359183,1.1507191926867675,47.22222222222222,1.0624999999760938,1.0056074766354706,1.601527341733161e-13,0.9975745907520741,0
304,231.06666666666666,0.7472222222222058,0.7361111111111143,0.7458333333333371,1.0018621973928965,0.025036913255104792,0.9628898335982111,44.44444444444444,0.9999999999775001,0.9869646182495336,4.220280861919529e-18,0.9987668860193419,0
305,231.80277777777778,0.7361111111111143,0.7583333333333258,0.7458333333333371,0.9869646182495336,0.027345950515095904,1.0516926536739484,47.22222222222222,1.0624999999760938,1.0167597765362975,8.488771920903571e-15,0.9958005800418266,0
306,232.5611111111111,0.7583333333333258,0.7472222222222342,0.7458333333333371,1.0167597765362975,0.028571131969549392,1.0988116716929048,47.22222222222222,1.0624999999760938,1.0018621973929347,7.963124449661234e-15,0.9978286085340959,0
307,233.30833333333334,0.7472222222222342,0.73888888888888,0.7472222222222058,1.000000000000038,0.02787479798329605,1.072031496783941,47.22222222222222,1.0624999999760938,0.9888475836431325,3.136287294458343e-15,0.9983867344873667,0
308,234.04722222222222,0.73888888888888,0.73888888888888,0.7458333333333371,0.9906890130353648,0.029000463623441764,1.115323255232085,47.22222222222222,1.0624999999760938,0.9906890130353648,2.8304464823910962e-14,0.9990747548371641,0
309,234.7861111111111,0.73888888888888,0.7305555555555827,0.7430555555555713,0.9943925233644529,0.028932393747254995,1.1127053689500703,44.44444444444444,0.9999999999775001,0.9831775700934736,6.022931956504215e-15,0.9980405401243577,0
310,235.51666666666668,0.7305555555555827,0.7416666666666458,0.7430555555555713,0.9831775700934736,0.02832761889009643,1.089446448984964,47.22222222222222,1.0624999999760938,0.9981308411214461,1.774467108894926e-14,0.9986489438174793,0
311,236.25833333333333,0.7416666666666458,0.7638888888888857,0.7430555555555571,0.9981308411214651,0.025734900881855562,0.9897336055491575,44.44444444444444,0.9999999999775001,1.0280373831775638,3.4034690410629146e-17,0.9991797361846089,0
312,237.0222222222222,0.7638888888888857,0.7361111111111143,0.7430555555555571,1.0280373831775638,0.028103982817508186,1.080845672262732,47.22222222222222,1.0624999999760938,0.9906542056074787,1.962758297904821e-15,0.9981255927277286,0
313,237.75833333333333,0.7361111111111143,0.74444444444444,0.7402777777777629,0.9943714821763844,0.026446944961919003,1.0171179719357402,44.44444444444444,0.9999999999775001,1.005628517823654,1.0011293500090899e-16,0.9992389342766953,0
314,238.50277777777777,0.74444444444444,0.7583333333333542,0.7402777777777629,1.005628517823654,0.026685029150683996,1.026274405980402,47.22222222222222,1.0624999999760938,1.0243902439024877,6.924921566046677e-16,0.9988208940779972,0
315,239.26111111111112,0.7583333333333542,0.75,0.7430555555555429,1.0205607476635967,0.025865574288050648,0.9947591489564002,44.44444444444444,0.9999999999775001,1.0093457943925406,8.645360890159224e-18,0.9998164490024053,0
316,240.01111111111112,0.75,0.73888888888888,0.7430555555555429,1.0093457943925406,0.02630690553549542,1.0117322225571221,44.44444444444444,0.9999999999775001,0.994392523364491,2.9052174608360884e-17,0.9992876851559362,0
317,240.75,0.73888888888888,0.7527777777777658,0.7402777777777629,0.9981238273921281,0.027260033262713857,1.04838837858195,47.22222222222222,1.0624999999760938,1.0168855534709236,1.9327856135497538e-15,0.999223354905754,0
318,241.50277777777777,0.7527777777777658,0.7472222222222342,0.7430555555555429,1.0130841121495338,0.02582841513891415,0.993330052383507,44.44444444444444,0.9999999999775001,1.0056074766355472,1.071848230037025e-17,0.9998097384902149,0
319,242.25,0.7472222222222342,0.7666666666666799,0.7458333333333371,1.0018621973929347,0.025097629561285667,0.9652249103450733,44.44444444444444,0.9999999999775001,1.0279329608938672,7.459735621226755e-18,0.99953581709375,0
320,243.01666666666668,0.7666666666666799,0.74444444444444,0.7486111111111171,1.024118738404462,0.027907010523675273,1.0732703526816105,47.22222222222222,1.0624999999760938,0.9944341372912663,2.0338963599799732e-15,0.9968184465919332,0
321,243.76111111111112,0.74444444444444,0.7611111111110915,0.7486111111111171,0.9944341372912663,0.026031746146256883,1.0011499205050567,44.44444444444444,0.9999999999775001,1.0166975881261253,3.214506909314566e-17,0.9997665728567771,0
322,244.5222222222222,0.7611111111110915,0.76111111111112,0.7486111111111171,1.0166975881261253,0.028057494412186246,1.0790577836197275,50.0,1.1249999999746876,1.0166975881261633,1.3450857791409872e-14,0.9973788058585211,0
323,245.28333333333333,0.76111111111112,0.7583333333333258,0.7513888888888829,1.0129390018484488,0.026306476022365063,1.0117157039942146,47.22222222222222,1.0624999999760938,1.009242144177447,2.8805547069133504e-16,0.9961066973753359,0
324,246.04166666666666,0.7583333333333258,0.7527777777777942,0.7555555555555458,1.0036764705882382,0.02566346081565642,0.9869861057773671,44.44444444444444,0.9999999999775001,0.9963235294117994,8.486136066868279e-18,0.998703929708042,0
325,246.79444444444445,0.7527777777777942,0.73888888888888,0.75277777777778,1.0000000000000189,0.026923367820218157,1.0354406270520422,47.22222222222222,1.0624999999760938,0.9815498154981404,2.776613705768999e-16,0.9996434876417243,0
326,247.53333333333333,0.73888888888888,0.7583333333333258,0.75277777777778,0.9815498154981404,0.029195428433434097,1.1228213693781148,47.22222222222222,1.0624999999760938,1.007380073800725,6.751867673900763e-14,0.9980374020977105,0
327,248.29166666666666,0.7583333333333258,0.7694444444444457,0.75555555555556,1.0036764705882193,0.027003879303000165,1.0385370026902374,47.22222222222222,1.0624999999760938,1.0183823529411722,3.946574787790449e-16,0.9996264755719821,0
328,249.0611111111111,0.7694444444444457,0.7527777777777942,0.7583333333333258,1.0146520146520264,0.028904422687006655,1.1116296353213413,50.0,1.1249999999746876,0.9926739926740242,2.6213921441517463e-14,0.9979630438835161,0
329,249.8138888888889,0.7527777777777942,0.7583333333333258,0.7583333333333258,0.9926739926740242,0.02647724383173323,1.0182832303450484,44.44444444444444,0.9999999999775001,1.0,4.186610226931374e-17,0.9992476805684192,0
330,250.57222222222222,0.7583333333333258,0.7722222222222115,0.7583333333333258,1.0,0.028111378261473096,1.0811300922204239,47.22222222222222,1.0624999999760938,1.0183150183150143,6.962644707748239e-15,0.9967641976978878,0
331,251.34444444444443,0.7722222222222115,0.76111111111112,0.7583333333333258,1.0183150183150143,0.028378116631036034,1.0913885318957042,47.22222222222222,1.0624999999760938,1.0036630036630254,2.1705539028329035e-15,0.9986063303168145,0
332,252.10555555555555,0.76111111111112,0.7638888888888857,0.7583333333333258,1.0036630036630254,0.026132496651470695,1.0050246648160586,44.44444444444444,0.9999999999775001,1.0073260073260133,2.1582990102996936e-17,0.9983992532894086,0
333,252.86944444444444,0.7638888888888857,0.7583333333333258,0.7583333333333258,1.0073260073260133,0.03044475018484069,1.1708687944366831,47.22222222222222,1.0624999999760938,1.0,1.3890340158466408e-13,0.9971519085472671,0
334,253.62777777777777,0.7583333333333258,0.7638888888889142,0.7583333333333258,1.0,0.028092890464045464,1.0804190735733845,50.0,1.1249999999746876,1.0073260073260506,7.270088021448396e-15,0.9994669789740851,0
335,254.39166666666668,0.7638888888889142,0.7694444444444173,0.7597222222222229,1.0054844606947309,0.02930481804442042,1.1270283633971767,47.22222222222222,1.0624999999760938,1.0127970749542596,1.7612627122801788e-14,0.9985941677751939,0
336,255.1611111111111,0.7694444444444173,0.75555555555556,0.7625000000000028,1.0091074681238221,0.02972286609568549,1.143105993032156,47.22222222222222,1.0624999999760938,0.9908925318761406,3.6755368442841635e-14,0.9968164198173883,0
337,255.91666666666666,0.75555555555556,0.7694444444444741,0.7625000000000028,0.9908925318761406,0.03294904510712923,1.2671809914089518,50.0,1.1249999999746876,1.0091074681238967,9.064354822285736e-11,0.9955028621482873,0
338,256.68611111111113,0.7694444444444741,0.7611111111110631,0.7625000000000028,1.0091074681238967,0.02813446219980947,1.0820178729670769,47.22222222222222,1.0624999999760938,0.998178506375161,2.0063777418313387e-15,0.9979066888736018,0
339,257.4472222222222,0.7611111111110631,0.7388888888889369,0.7625000000000028,0.998178506375161,0.030457421131291892,1.1713561039302942,47.22222222222222,1.0624999999760938,0.96903460837893,1.114384463613699e-13,0.9976157605051692,0
340,258.18611111111113,0.7388888888889369,0.7611111111110631,0.7625000000000028,0.96903460837893,0.028617862368496918,1.1006088671222332,47.22222222222222,1.0624999999760938,0.998178506375161,3.932369769979287e-14,0.996890570975896,0
341,258.9472222222222,0.7611111111110631,0.7305555555556111,0.7611111111110915,0.9999999999999627,0.026953157425268628,1.036586299745706,44.44444444444444,0.9999999999775001,0.9598540145986378,2.9006328950090745e-17,0.9995776697612346,0
342,259.6777777777778,0.7305555555556111,0.7416666666666174,0.7611111111110631,0.9598540145986737,0.030978798351010795,1.191407650190082,47.22222222222222,1.0624999999760938,0.9744525547445223,3.4299687656086375e-12,0.9955247281891574,0
343,260.4194444444444,0.7416666666666174,0.7666666666667084,0.7597222222221944,0.976234003656278,0.025312626033501713,0.9734934183375313,44.44444444444444,0.9999999999775001,1.009140767824589,1.164012942041867e-17,0.9995597996388274,0
344,261.18611111111113,0.7666666666667084,0.7333333333332916,0.7611111111110631,1.007299270073111,0.023674314357625483,0.9104859045560619,41.666666666666664,0.9374999999789063,0.9635036496350425,6.159375541647083e-20,0.9955290505666424,0
345,261.9194444444444,0.7333333333332916,0.7666666666667084,0.7583333333333115,0.9670329670329398,0.022425822901207832,0.8624704116528514,41.666666666666664,0.9374999999789063,1.010989010989095,8.354562314641939e-20,0.9963764172691709,0
346,262.68611111111113,0.7666666666667084,0.5194444444444457,0.7583333333333115,1.010989010989095,0.025744757230897565,0.990112668982107,47.22222222222222,1.0624999999760938,0.6849816849817063,1.8524318975285623e-18,0.9993056508990179,0
347,263.2055555555556,0.5194444444444457,0.9777777777777601,0.7513888888888403,0.6913123844732442,0.04827685308081177,1.8566702115385656,111.11111111111111,2.4999999999437503,1.3012939001849035,0.9995750784873962,0.8714237672630605,1
348,264.18333333333334,0.9777777777777601,0.7694444444444457,0.7513888888888403,1.3012939001849035,0.02495239497922458,0.9596393614745474,44.44444444444444,0.9999999999775001,1.0240295748614359,1.0847324647283977e-22,0.9984136300521165,0
349,264.9527777777778,0.7694444444444457,0.47222222222222854,0.7513888888888403,1.0240295748614359,0.02811279466180724,1.0811845652885756,44.44444444444444,0.9999999999775001,0.6284658040665925,7.039713985687642e-17,0.9968892720509444,0
350,265.425,0.47222222222222854,1.022222222222183,0.7513888888888403,0.6284658040665925,0.04987655503586714,1.9181928414896015,113.88888888888889,2.562499999942344,1.3604436229205534,0.9993736147880554,0.859464584148067,1
351,266.4472222222222,1.022222222222183,0.5250000000000341,0.7541666666666629,1.3554327808471003,0.023729974516844693,0.9126265279189562,44.44444444444444,0.9999999999775001,0.6961325966851316,2.1780493966578055e-25,0.9984584695318397,0
352,266.97222222222223,0.5250000000000341,1.0,0.7541666666666629,0.6961325966851316,0.047556889130421574,1.8289812563816603,108.33333333333333,2.4374999999451563,1.3259668508287359,0.9996032118797302,0.8665554220466771,1
353,267.97222222222223,1.0,0.7444444444444116,0.7666666666667084,1.3043478260868857,0.03184113309900771,1.224572016481738,47.22222222222222,1.0624999999760938,0.9710144927535276,3.8032371593036673e-17,0.995811729543673,0
354,268.71666666666664,0.7444444444444116,0.7555555555555884,0.75555555555556,0.9852941176470096,0.030670893410301433,1.1795659932692453,50.0,1.1249999999746876,1.0000000000000375,4.115169576629496e-12,0.9957347176596445,0
355,269.47222222222223,0.7555555555555884,0.7305555555555543,0.7611111111111484,0.9927007299270019,0.025632808636668232,0.98580725951846,44.44444444444444,0.9999999999775001,0.9598540145984915,4.080649052207821e-18,0.9995703294353961,0
356,270.2027777777778,0.7305555555555543,0.7527777777777942,0.75,0.9740740740740724,0.023583247702633238,0.9069835895790369,41.666666666666664,0.9374999999789063,1.0037037037037255,2.753814281641565e-19,0.9985281106623332,0
357,270.9555555555556,0.7527777777777942,0.7222222222222285,0.7541666666666913,0.9981583793738381,0.02812361050360938,1.0816005296691273,47.22222222222222,1.0624999999760938,0.9576427255985038,1.7578352993382327e-15,0.9992576096058411,0
358,271.6777777777778,0.7222222222222285,0.7416666666666174,0.7486111111111029,0.9647495361781266,0.028449211366610872,1.0941227506634035,47.22222222222222,1.0624999999760938,0.9907235621520787,3.4024554549684505e-14,0.9987221636978385,0
359,272.4194444444444,0.7416666666666174,0.76111111111112,0.7430555555555145,0.9981308411214842,0.024177326390960485,0.9298311476433696,44.44444444444444,0.9999999999775001,1.0242990654206292,2.7286773485006323e-18,0.9987528500778364,0
360,273.18055555555554,0.76111111111112,0.73888888888888,0.7486111111111029,1.0166975881261826,0.02952883358607497,1.135643734047278,47.22222222222222,1.0624999999760938,0.987012987012986,5.023594862037066e-14,0.9962830641213142,0
361,273.9194444444444,0.73888888888888,0.7444444444444684,0.7430555555555145,0.994392523364529,0.02918933189970682,1.12258690395954,47.22222222222222,1.0624999999760938,1.0018691588785924,4.5244898458233e-14,0.9988645570882193,0
362,274.6638888888889,0.7444444444444684,0.7583333333333258,0.74444444444444,1.0000000000000382,0.028542250106331463,1.0977009096678678,50.0,1.1249999999746876,1.0186567164179063,7.400864995713366e-14,0.9975739963494472,0
363,275.4222222222222,0.7583333333333258,0.7555555555555884,0.74444444444444,1.0186567164179063,0.025382983695903298,0.9761992901497607,44.44444444444444,0.9999999999775001,1.0149253731343786,6.0576466985662034e-18,0.9988513989555947,0
364,276.1777777777778,0.7555555555555884,0.7666666666666515,0.7486111111111313,1.0092764378478831,0.028981235059320647,1.1145837475811913,47.22222222222222,1.0624999999760938,1.0241187384044048,3.361019958441486e-14,0.9970981224732469,0
365,276.94444444444446,0.7666666666666515,0.76111111111112,0.7486111111111313,1.0241187384044048,0.03248796164859429,1.249448271319223,47.22222222222222,1.0624999999760938,1.016697588126144,3.77370704129909e-12,0.9964984612676121,0
366,277.7055555555556,0.76111111111112,0.7722222222221831,0.7541666666666913,1.0092081031307338,0.030395869983546476,1.1689889201721975,47.22222222222222,1.0624999999760938,1.0239410681398777,2.671057277268962e-13,0.9960682863694267,0
367,278.47777777777776,0.7722222222221831,0.7888888888888914,0.7569444444444571,1.0201834862384633,0.030469364858881805,1.1718154454535248,50.0,1.1249999999746876,1.0422018348623712,8.530901137414337e-13,0.9959902986166309,0
368,279.26666666666665,0.7888888888888914,0.7777777777777715,0.7597222222222229,1.038391224862891,0.02742654500928501,1.0547922218318904,47.22222222222222,1.0624999999760938,1.0237659963436838,3.987159312666955e-16,0.9968483445507677,0
369,280.0444444444444,0.7777777777777715,0.7694444444444457,0.76111111111112,1.021897810218958,0.028628711897781635,1.101026127083201,47.22222222222222,1.0624999999760938,1.0109489051094789,2.2252675725443214e-15,0.9991613440760407,0
370,280.81388888888887,0.7694444444444457,0.7916666666666856,0.7638888888888857,1.007272727272733,0.028091440211237894,1.0803632985794653,50.0,1.1249999999746876,1.0363636363636655,1.2999226600197457e-14,0.9970103132043038,0
371,281.60555555555555,0.7916666666666856,0.7749999999999773,0.7680555555555486,1.03074141048828,0.0300214708426654,1.1545899755902893,47.22222222222222,1.0624999999760938,1.009041591320052,1.4663002596512244e-14,0.9975222306237318,0
372,282.38055555555553,0.7749999999999773,0.7666666666667084,0.7708333333333144,1.0054054054054007,0.027344914623417302,1.0516528145150283,44.44444444444444,0.9999999999775001,0.9945945945946731,4.547262297493474e-17,0.9995374061095494,0
373,283.14722222222224,0.7666666666667084,0.7583333333333258,0.7708333333333144,0.9945945945946731,0.026054124568096408,1.002010567928391,44.44444444444444,0.9999999999775001,0.9837837837837982,7.896141223158707e-18,0.9992253354591814,0
374,283.90555555555557,0.7583333333333258,0.7722222222222399,0.7708333333333144,0.9837837837837982,0.023856182302044473,0.917480328866844,44.44444444444444,0.9999999999775001,1.0018018018018493,2.6355297804919547e-18,0.9937540725652348,0
375,284.6777777777778,0.7722222222222399,0.783333333333303,0.7722222222222115,1.0000000000000369,0.026085924051073624,1.003233538130846,47.22222222222222,1.0624999999760938,1.014388489208608,4.572623985946595e-17,0.9991404916763276,0
376,285.4611111111111,0.783333333333303,0.7583333333333258,0.7736111111111086,1.0125673249550808,0.0269638359954023,1.0369969848215503,44.44444444444444,0.9999999999775001,0.9802513464990957,1.3070686177450541e-17,0.9993031634298658,0
377,286.21944444444443,0.7583333333333258,0.7777777777777715,0.7736111111111086,0.9802513464990957,0.02512878550894099,0.9664231309463015,44.44444444444444,0.9999999999775001,1.0053859964093308,1.5768903013484215e-17,0.9952809701467882,0
378,286.9972222222222,0.7777777777777715,0.7694444444444457,0.7736111111111086,1.0053859964093308,0.028098773599135846,1.0806453319348084,50.0,1.1249999999746876,0.9946140035906692,4.335888388644826e-15,0.9973830748353857,0
379,287.76666666666665,0.7694444444444457,0.7722222222222399,0.7708333333333428,0.9981981981981876,0.030707147062680504,1.180960265516424,50.0,1.1249999999746876,1.0018018018018124,4.771803069868186e-13,0.9980713650044215,0
380,288.5388888888889,0.7722222222222399,0.7749999999999773,0.7722222222222399,1.0,0.025654633241025043,0.9866466077816967,44.44444444444444,0.9999999999775001,1.0035971223021058,3.661835100363035e-18,0.9994341134024327,0
381,289.31388888888887,0.7749999999999773,0.4888888888889369,0.7722222222222399,1.0035971223021058,0.028087576722418104,1.0802147134056905,47.22222222222222,1.0624999999760938,0.6330935251799038,1.3617890306328256e-16,0.9979857256732534,0
382,289.8027777777778,0.4888888888889369,1.0138888888888573,0.7708333333333428,0.6342342342342887,0.05012418091235906,1.9277162374681893,113.88888888888889,2.562499999942344,1.3153153153152581,0.9993252754211426,0.8639515960194233,1
383,290.81666666666666,1.0138888888888573,0.7694444444444457,0.7722222222222399,1.3129496402876988,0.028686193731262476,1.1032368098663112,44.44444444444444,0.9999999999775001,0.9964028776978205,1.5122092674865372e-20,0.9968617523152983,0
384,291.5861111111111,0.7694444444444457,0.7444444444444684,0.7722222222222399,0.9964028776978205,0.023427827636685772,0.9010063191418569,41.666666666666664,0.9374999999789063,0.9640287769784263,1.412225103413897e-20,0.998236400675344,0
385,292.3305555555556,0.7444444444444684,0.46944444444443434,0.7708333333333428,0.965765765765785,0.024310399390580145,0.9349489765528124,44.44444444444444,0.9999999999775001,0.6090090090089885,5.679696089366996e-20,0.9985343173515702,0
386,292.8,0.46944444444443434,1.0194444444444457,0.7694444444444457,0.6101083032490834,0.04688314563192462,1.8030698846983582,111.11111111111111,2.4999999999437503,1.3249097472924183,0.9992629885673523,0.8769798935961528,1
387,293.81944444444446,1.0194444444444457,0.73888888888888,0.7708333333333428,1.322522522522508,0.02767277715479262,1.0642620165784937,47.22222222222222,1.0624999999760938,0.9585585585585353,6.032042153116411e-21,0.9979135592597981,0
388,294.55833333333334,0.73888888888888,0.7250000000000227,0.7694444444444457,0.9602888086642468,0.022876449211157165,0.8798009622754853,41.666666666666664,0.9374999999789063,0.9422382671480425,3.550983618348432e-20,0.9968577488732131,0
389,295.28333333333336,0.7250000000000227,0.7277777777777601,0.7569444444444571,0.9577981651376287,0.026830957652146218,1.031886642163772,47.22222222222222,1.0624999999760938,0.9614678899082175,1.4552412492611065e-15,0.9985036454892505,0
390,296.0111111111111,0.7277777777777601,0.7194444444444343,0.7416666666666742,0.9812734082396665,0.02358055944364306,0.9068802023433443,41.666666666666664,0.9374999999789063,0.9700374531834971,1.4009097249985692e-19,0.9987086637382092,0
391,296.73055555555555,0.7194444444444343,0.7555555555555316,0.7333333333333201,0.9810606060606101,0.02370557823376807,0.9116882759582327,41.666666666666664,0.9374999999789063,1.0303030303030163,1.0066466488307217e-18,0.9986017702862202,0
392,297.4861111111111,0.7555555555555316,0.7277777777778169,0.7416666666666742,1.0187265917602568,0.02642696126276706,1.0163494226918686,47.22222222222222,1.0624999999760938,0.9812734082397432,1.0920930784825663e-16,0.9990759333835957,0
393,298.2138888888889,0.7277777777778169,0.7472222222222058,0.7333333333333485,0.9924242424242753,0.02792433739673167,1.0739367235614412,47.22222222222222,1.0624999999760938,1.0189393939393505,1.7553736310110986e-14,0.9979128343079515,0
394,298.9611111111111,0.7472222222222058,0.7777777777777715,0.7333333333333485,1.0189393939393505,0.0275597512851833,1.0599151763881112,47.22222222222222,1.0624999999760938,1.0606060606060301,6.120650335980681e-15,0.9981039428873375,0
395,299.7388888888889,0.7777777777777715,0.7750000000000341,0.7333333333333485,1.0606060606060301,0.030476478326500224,1.1720890209371164,47.22222222222222,1.0624999999760938,1.0568181818182065,1.4537667131307025e-13,0.9963761271145779,0
396,300.5138888888889,0.7750000000000341,0.7722222222221831,0.7430555555555429,1.042990654205671,0.029163732851059436,1.121602395068959,47.22222222222222,1.0624999999760938,1.039252336448563,1.4395091157493392e-14,0.997574982273915,0
397,301.2861111111111,0.7722222222221831,0.7805555555555657,0.7430555555555429,1.039252336448563,0.02690261019395884,1.0346423134943334,44.44444444444444,0.9999999999775001,1.0504672897196576,5.766397149348834e-17,0.9991552517421993,0
398,302.06666666666666,0.7805555555555657,0.7777777777777715,0.7513888888888687,1.0388170055453279,0.02654465750547723,1.0208758798634698,44.44444444444444,0.9999999999775001,1.0351201478743264,1.1531539631144547e-17,0.999851109177586,0
399,302.84444444444443,0.7777777777777715,0.8055555555555429,0.7638888888888573,1.018181818181852,0.0301369170102486,1.1590298975551536,50.0,1.1249999999746876,1.0545454545454815,4.4026699061623653e-13,0.9959648009982054,0
400,303.65,0.8055555555555429,0.7666666666667084,0.7736111111111086,1.0412926391382276,0.030129717551687942,1.1587530149624459,52.77777777777778,1.1874999999732814,0.9910233393178309,1.4417795028611596e-13,0.9974500562485022,0
401,304.4166666666667,0.7666666666667084,0.7694444444444457,0.7736111111111086,0.9910233393178309,0.025823610021622805,0.9931452533013702,44.44444444444444,0.9999999999775001,0.9946140035906692,5.439679915262538e-18,0.9996950898613551,0
402,305.18611111111113,0.7694444444444457,0.7972222222222172,0.7736111111111086,0.9946140035906692,0.026114658247261516,1.0043386210579635,44.44444444444444,0.9999999999775001,1.030520646319566,1.2537583161911141e-17,0.9998068771112372,0
403,305.98333333333335,0.7972222222222172,0.7722222222221831,0.7763888888889028,1.0268336314847695,0.029549930425478405,1.1364550933380835,50.0,1.1249999999746876,0.9946332737029729,1.728073250901324e-14,0.9981083016531384,0
404,306.75555555555553,0.7722222222221831,0.7444444444444684,0.7763888888889028,0.9946332737029729,0.02587821502738488,0.9952452967203068,44.44444444444444,0.9999999999775001,0.9588550983899958,2.6265269535000806e-18,0.9996652082140305,0
405,307.5,0.7444444444444684,0.7694444444444457,0.7736111111111086,0.9622980251346841,0.030429386211356723,1.1702779143341462,47.22222222222222,1.0624999999760938,0.9946140035906692,7.186082241414371e-13,0.9959537053539389,0
406,308.26944444444445,0.7694444444444457,0.76111111111112,0.7722222222221831,0.9964028776978939,0.029990786178031588,1.1534098799721826,50.0,1.1249999999746876,0.9856115107914284,1.9995034003083417e-13,0.9971131729362663,0
407,309.03055555555557,0.76111111111112,0.7805555555555657,0.7708333333333144,0.9873873873874232,0.028087811188823898,1.0802237307041154,47.22222222222222,1.0624999999760938,1.0126126126126507,2.5461192060412773e-15,0.9990032029931101,0
408,309.81111111111113,0.7805555555555657,0.7611111111110631,0.7708333333333144,1.0126126126126507,0.026506957837882626,1.0194259955951097,47.22222222222222,1.0624999999760938,0.9873873873873494,4.5940770805692803e-17,0.998706586717943,0
409,310.5722222222222,0.7611111111110631,0.76111111111112,0.7694444444444457,0.9891696750901887,0.028455845010278175,1.0943778726899038,44.44444444444444,0.9999999999775001,0.9891696750902625,8.780543113376274e-16,0.9985828592223024,0
410,311.3333333333333,0.76111111111112,0.7833333333333599,0.768055555555577,0.9909584086799115,0.02673645688396557,1.0282522552878335,47.22222222222222,1.0624999999760938,1.0198915009041651,3.4236674681324794e-16,0.9984746751280527,0
411,312.1166666666667,0.7833333333333599,0.7722222222222399,0.7694444444444457,1.0180505415162784,0.02716902185719233,1.0448881884336978,44.44444444444444,0.9999999999775001,1.0036101083032705,2.1655563621219888e-17,0.9997466001314064,0
412,312.8888888888889,0.7722222222222399,0.7611111111110631,0.7708333333333144,1.0018018018018493,0.03235830398506563,1.2444617921639145,47.22222222222222,1.0624999999760938,0.9873873873873494,2.192317941768218e-12,0.9960498800145029,0
413,313.65,0.7611111111110631,0.7555555555555884,0.7652777777777828,0.9945553539019271,0.027813119222800532,1.0696594051916213,47.22222222222222,1.0624999999760938,0.9872958257713612,1.5307158023888457e-15,0.9980641741423731,0
414,314.40555555555557,0.7555555555555884,0.7583333333333258,0.76111111111112,0.992700729927039,0.028062222552229354,1.079239622248673,47.22222222222222,1.0624999999760938,0.9963503649634822,3.0940542317082435e-15,0.9984865201050768,0
415,315.1638888888889,0.7583333333333258,0.7722222222222399,0.76111111111112,0.9963503649634822,0.027833292492928003,1.0704352451091963,47.22222222222222,1.0624999999760938,1.014598540145997,2.5979912919728938e-15,0.9981363411805979,0
416,315.93611111111113,0.7722222222222399,0.7416666666666742,0.76111111111112,1.014598540145997,0.027217271892204006,1.0467438272542713,47.22222222222222,1.0624999999760938,0.9744525547445242,1.812575862345726e-16,0.998931393524491,0
417,316.6777777777778,0.7416666666666742,0.7527777777777374,0.7611111111110915,0.9744525547445606,0.027751564922562578,1.06729210019242,44.44444444444444,0.9999999999775001,0.9890510948904833,7.207622517961944e-16,0.9987892010399833,0
418,317.43055555555554,0.7527777777777374,0.76111111111112,0.7611111111110631,0.9890510948905202,0.024774795071738007,0.9528090807756303,44.44444444444444,0.9999999999775001,1.0000000000000746,3.7158135984157954e-18,0.9980183993199039,0
419,318.19166666666666,0.76111111111112,0.7555555555555316,0.7611111111110915,1.0000000000000373,0.02185858905290403,0.8406552741301314,41.666666666666664,0.9374999999789063,0.9927007299270013,1.415396339399015e-20,0.9927978550039273,0
420,318.9472222222222,0.7555555555555316,0.7333333333333485,0.7597222222221944,0.9945155393053065,0.023554328268810296,0.9058713826333245,44.44444444444444,0.9999999999775001,0.9652650822669657,1.3179570804914252e-19,0.999016203509042,0
421,319.68055555555554,0.7333333333333485,0.7555555555555884,0.7569444444444571,0.9688073394495451,0.02574472361258185,0.990111376061766,47.22222222222222,1.0624999999760938,0.9981651376147056,1.8538476750495897e-16,0.9991416396804419,0
422,320.43611111111113,0.7555555555555884,0.7694444444444457,0.7555555555555884,1.0,0.025464491763238815,0.9793339932417086,44.44444444444444,0.9999999999775001,1.0183823529411338,3.5873003369077194e-17,0.9951631495082587,0
423,321.2055555555556,0.7694444444444457,0.7722222222221831,0.7555555555555884,1.0183823529411338,0.024821069098970836,0.9545887246929192,44.44444444444444,0.9999999999775001,1.0220588235293155,5.95838833378229e-18,0.9949838463695205,0
424,321.97777777777776,0.7722222222221831,0.7583333333333258,0.7569444444444571,1.0201834862384633,0.027475308253529174,1.056667598067673,47.22222222222222,1.0624999999760938,1.0018348623852944,1.5547025049056666e-15,0.9949451010610383,0
425,322.7361111111111,0.7583333333333258,0.76111111111112,0.7569444444444571,1.0018348623852944,0.024530519850035768,0.9434145469854445,41.666666666666664,0.9374999999789063,1.0055045871559583,8.24627933182689e-19,0.9956676232949797,0
426,323.4972222222222,0.76111111111112,0.7750000000000341,0.7569444444444571,1.0055045871559583,0.024053148978410134,0.9250554324068723,47.22222222222222,1.0624999999760938,1.0238532110092022,4.1891962416803986e-18,0.9980540720834805,0
427,324.27222222222224,0.7750000000000341,0.7527777777777374,0.7597222222222229,1.020109689213938,0.026773506787820953,1.0296771504174624,47.22222222222222,1.0624999999760938,0.9908592321754487,9.082480845268176e-17,0.9989308933374699,0
428,325.025,0.7527777777777374,0.7638888888889142,0.7597222222222229,0.9908592321754487,0.022387446905162974,0.8609945165986452,38.888888888888886,0.8749999999803125,1.0054844606947309,4.074250238251878e-21,0.9965705862159231,0
429,325.7888888888889,0.7638888888889142,0.7416666666666742,0.7597222222222229,1.0054844606947309,0.026344580899782043,1.013181172149233,47.22222222222222,1.0624999999760938,0.9762340036563163,6.334791329414441e-17,0.999094395345892,0
430,326.53055555555557,0.7416666666666742,0.7361111111110858,0.7597222222222229,0.9762340036563163,0.03137669780632262,1.2067103888468096,47.22222222222222,1.0624999999760938,0.9689213893966753,1.6119386641449962e-12,0.9970431803296508,0
431,327.26666666666665,0.7361111111110858,0.7750000000000341,0.7597222222222229,0.9689213893966753,0.028651519545261492,1.1019032820129193,47.22222222222222,1.0624999999760938,1.020109689213938,5.729295618657482e-14,0.9971052323269196,0
432,328.0416666666667,0.7750000000000341,0.7333333333332916,0.762500000000017,1.0163934426229728,0.028160179267124573,1.083006920714911,47.22222222222222,1.0624999999760938,0.9617486338797052,8.536503392151654e-16,0.9981282957007303,0
433,328.775,0.7333333333332916,0.7250000000000227,0.7597222222222229,0.9652650822668547,0.02993338310171845,1.151202226095844,50.0,1.1249999999746876,0.9542961608775429,2.349283311289807e-12,0.9953386370159794,0
434,329.5,0.7250000000000227,0.7638888888889142,0.7555555555555316,0.9595588235294723,0.030285377188763823,1.1647394990195967,50.0,1.1249999999746876,1.0110294117647713,3.980624857513604e-12,0.9978329493931086,0
435,330.2638888888889,0.7638888888889142,0.7416666666666174,0.7569444444444287,1.0091743119266599,0.02657654904153508,1.0221023903176558,44.44444444444444,0.9999999999775001,0.9798165137614232,1.7271512992133742e-17,0.9994587525748471,0
436,331.00555555555553,0.7416666666666174,0.7305555555555543,0.7472222222222058,0.9925650557620377,0.02621599228922725,1.008235807496724,44.44444444444444,0.9999999999775001,0.9776951672862652,7.380738052930593e-17,0.9970639154129899,0
437,331.7361111111111,0.7305555555555543,0.7361111111111427,0.7416666666666458,0.9850187265917862,0.027861585431219037,1.0715233577836891,47.22222222222222,1.0624999999760938,0.9925093632959506,7.870231193368802e-15,0.9984933698409147,0
438,332.47222222222223,0.7361111111111427,0.7361111111110858,0.73888888888888,0.9962406015038141,0.028973045920490176,1.1142688030652503,47.22222222222222,1.0624999999760938,0.9962406015037372,7.24460842336204e-14,0.9968986877813163,0
439,333.2083333333333,0.7361111111110858,0.7583333333333258,0.7361111111111143,0.9999999999999614,0.02638534693765733,1.0147489853627165,44.44444444444444,0.9999999999775001,1.0301886792452684,1.338489271836228e-16,0.9993187039016493,0
440,333.96666666666664,0.7583333333333258,0.7416666666666742,0.7361111111111143,1.0301886792452684,0.028157811409796483,1.0829158557451442,47.22222222222222,1.0624999999760938,1.0075471698113267,3.8554483363468714e-15,0.9979316009156222,0
441,334.7083333333333,0.7416666666666742,0.7333333333333485,0.73888888888888,1.003759398496263,0.027252171178870885,1.048086012210898,44.44444444444444,0.9999999999775001,0.9924812030075512,1.896189263896056e-16,0.9997251119066273,0
442,335.44166666666666,0.7333333333333485,0.7555555555555316,0.7361111111111143,0.9962264150943559,0.03202589196543203,1.231677622206151,47.22222222222222,1.0624999999760938,1.0264150943395856,1.3775425244944017e-11,0.9964170045431184,0
443,336.1972222222222,0.7555555555555316,0.7555555555555884,0.73888888888888,1.0225563909774233,0.0266740953435057,1.0258539047921273,44.44444444444444,0.9999999999775001,1.0225563909775004,5.1373160364626605e-17,0.9996539083111495,0
444,336.9527777777778,0.7555555555555884,0.7444444444444116,0.7416666666666458,1.0187265917603725,0.031949071209002096,1.2287231875031979,47.22222222222222,1.0624999999760938,1.003745318352044,2.5319770152049115e-12,0.996833750432432,0
445,337.6972222222222,0.7444444444444116,0.7416666666666742,0.7416666666666458,1.003745318352044,0.026586416725540074,1.022481889679768,44.44444444444444,0.9999999999775001,1.0000000000000384,7.847050204473277e-17,0.9989669609879765,0
446,338.43888888888887,0.7416666666666742,0.7444444444444684,0.7416666666666742,1.0,0.02782077423567341,1.0699538078600435,47.22222222222222,1.0624999999760938,1.0037453183520821,4.424308463942808e-15,0.9985634993361749,0
447,339.18333333333334,0.7444444444444684,0.7666666666666515,0.7430555555555429,1.001869158878554,0.026238171748243045,1.0090888030470706,44.44444444444444,0.9999999999775001,1.0317757009345765,6.987675722479686e-17,0.9992341929533932,0
448,339.95,0.7666666666666515,0.7361111111111427,0.74444444444444,1.0298507462686424,0.028305113031047664,1.088580900478499,47.22222222222222,1.0624999999760938,0.988805970149302,1.5290175013296008e-15,0.9993327926168215,0
449,340.68611111111113,0.7361111111111427,0.73888888888888,0.74444444444444,0.988805970149302,0.026906671442540653,1.0347985042727772,47.22222222222222,1.0624999999760938,0.9925373134328298,1.1538768792651566e-15,0.9984798679362505,0
450,341.425,0.73888888888888,0.7583333333333258,0.7430555555555429,0.994392523364491,0.028507299386535633,1.0963567466544226,47.22222222222222,1.0624999999760938,1.0205607476635585,2.892648346872716e-14,0.9976607248810865,0
451,342.18333333333334,0.7583333333333258,0.7444444444444684,0.74444444444444,1.0186567164179063,0.025069849259235288,0.9641565130492068,44.44444444444444,0.9999999999775001,1.0000000000000382,2.285886532625231e-18,0.9994065766821465,0
452,342.9277777777778,0.7444444444444684,0.7277777777777601,0.7444444444444684,1.0,0.02716077358240023,1.0445709696191774,47.22222222222222,1.0624999999760938,0.9776119402984522,5.954644795571284e-16,0.9996377987374048,0
453,343.65555555555557,0.7277777777777601,0.73888888888888,0.74444444444444,0.9776119402984895,0.02962314325177308,1.1392707713495795,50.0,1.1249999999746876,0.9925373134328298,1.9770916674655137e-12,0.9957185386320625,0
454,344.39444444444445,0.73888888888888,0.7444444444444684,0.7430555555555429,0.994392523364491,0.024546998701455686,0.9440483039641877,44.44444444444444,0.9999999999775001,1.001869158878554,3.5361718896555104e-18,0.9989496027620755,0
455,345.1388888888889,0.7444444444444684,0.7555555555555316,0.7430555555555713,1.0018691588785156,0.026930343868142043,1.0357089175380203,44.44444444444444,0.9999999999775001,1.016822429906488,1.575814668767082e-16,0.9994237471036067,0
456,345.89444444444445,0.7555555555555316,0.73888888888888,0.7444444444444684,1.0149253731342633,0.02791108185589428,1.0734269312647187,47.22222222222222,1.0624999999760938,0.992537313432792,1.773691438473478e-15,0.9989495446548406,0
457,346.6333333333333,0.73888888888888,0.73888888888888,0.7416666666666742,0.996254681647918,0.02565370599961676,0.9866109471826352,44.44444444444444,0.9999999999775001,0.996254681647918,1.6263504080231722e-17,0.9997039781064306,0
458,347.3722222222222,0.73888888888888,0.7638888888889142,0.73888888888888,1.0,0.02827311706245904,1.0873503736736887,47.22222222222222,1.0624999999760938,1.033834586466212,1.7000041036886217e-14,0.9985754873088275,0
459,348.1361111111111,0.7638888888889142,0.75,0.7416666666666742,1.029962546816503,0.02469721608669797,0.9498254855043287,44.44444444444444,0.9999999999775001,1.0112359550561694,1.264994386080274e-18,0.9988676710243556,0
460,348.8861111111111,0.75,0.5083333333333258,0.7444444444444684,1.0074626865671317,0.024198969289362642,0.9306635077122286,44.44444444444444,0.9999999999775001,0.6828358208954902,6.670500135666402e-20,0.9985026062494813,0
461,349.39444444444445,0.5083333333333258,0.9750000000000227,0.7416666666666742,0.6853932584269491,0.04828959006324889,1.857160060697464,100.0,2.249999999949375,1.314606741573051,0.9995707869529724,0.901447221006086,1
462,350.36944444444447,0.9750000000000227,0.7416666666666174,0.7416666666666742,1.314606741573051,0.02873346717491325,1.1050548901474828,47.22222222222222,1.0624999999760938,0.9999999999999234,4.415649859063861e-19,0.9985011098487229,0
463,351.1111111111111,0.7416666666666174,0.7583333333333826,0.7430555555555429,0.998130841121446,0.029402726756372663,1.130793815727459,47.22222222222222,1.0624999999760938,1.0205607476636351,1.9817949906998644e-13,0.9958170759508431,0
464,351.86944444444447,0.7583333333333826,0.7333333333332916,0.7472222222222342,1.014869888475886,0.029164695353875218,1.1216394117797126,47.22222222222222,1.0624999999760938,0.9814126394051329,3.958814477405745e-14,0.9956861840579466,0
465,352.60277777777776,0.7333333333332916,0.7305555555555543,0.7458333333333087,0.9832402234636637,0.024709659504552648,0.9503040445193879,44.44444444444444,0.9999999999775001,0.9795158286778705,1.0409536131845982e-17,0.9964957163784016,0
466,353.3333333333333,0.7305555555555543,0.76111111111112,0.7402777777777487,0.9868667917448776,0.025132783027092646,0.9665768707283838,41.666666666666664,0.9374999999789063,1.0281425891182512,7.088701275924257e-18,0.9980269985047525,0
467,354.09444444444443,0.76111111111112,0.7416666666666742,0.7458333333333087,1.0204841713222057,0.023413521985097708,0.9004561408376549,41.666666666666664,0.9374999999789063,0.9944134078212721,1.4213216990830222e-19,0.9940775383686847,0
468,354.8361111111111,0.7416666666666742,0.7305555555555543,0.7458333333333371,0.9944134078212341,0.026630622881796503,1.0241820057447182,44.44444444444444,0.9999999999775001,0.9795158286778332,2.6487861108142805e-16,0.9955142195393459,0
469,355.56666666666666,0.7305555555555543,0.7583333333333258,0.7416666666666458,0.9850187265917862,0.02500528171599839,0.9616733223167971,44.44444444444444,0.9999999999775001,1.022471910112378,2.0021096089845733e-17,0.9988547921497439,0
470,356.325,0.7583333333333258,0.75,0.7416666666666458,1.022471910112378,0.02657840945782787,1.0221739397102003,44.44444444444444,0.9999999999775001,1.0112359550562082,3.0861059789336745e-17,0.999683778862099,0
471,357.075,0.75,0.7583333333333258,0.7458333333333371,1.005586592178766,0.028239968151761337,1.0860755060899556,47.22222222222222,1.0624999999760938,1.0167597765362975,1.0546810413946187e-14,0.9973359359276617,0
472,357.8333333333333,0.7583333333333258,0.76111111111112,0.7458333333333371,1.0167597765362975,0.02510471424030827,0.965497378653593,44.44444444444444,0.9999999999775001,1.0204841713221668,3.101908271919765e-18,0.9997281163125236,0
473,358.59444444444443,0.76111111111112,0.75,0.7541666666666629,1.0092081031307718,0.02579153497678895,0.9919116853184468,44.44444444444444,0.9999999999775001,0.994475138121552,6.422506140595993e-18,0.9995077551775944,0
474,359.34444444444443,0.75,0.7666666666666515,0.75,1.0,0.027594471351404685,1.0612504687400792,44.44444444444444,0.9999999999775001,1.022222222222202,3.587343350299572e-16,0.9997281866752088,0
475,360.1111111111111,0.7666666666666515,0.7555555555555884,0.7541666666666629,1.016574585635344,0.02646135538254245,1.0176721795321324,44.44444444444444,0.9999999999775001,1.0018416206261995,2.2312239148468585e-17,0.9986010560645309,0
476,360.8666666666667,0.7555555555555884,0.7472222222222058,0.7569444444444571,0.9981651376147056,0.02679884602984074,1.0306516674548996,47.22222222222222,1.0624999999760938,0.9871559633027142,2.557506928742401e-16,0.9990841416895073,0
477,361.6138888888889,0.7472222222222058,0.7583333333333258,0.7527777777777942,0.9926199261992186,0.03218973412513267,1.2379787963278595,47.22222222222222,1.0624999999760938,1.007380073800706,8.68324769726092e-12,0.9958235029796956,0
478,362.3722222222222,0.7583333333333258,0.7444444444444684,0.7569444444444571,1.0018348623852944,0.02694392948452689,1.0362314041467666,44.44444444444444,0.9999999999775001,0.9834862385321254,5.0154587664715536e-17,0.9993008550866921,0
479,363.1166666666667,0.7444444444444684,0.7666666666666515,0.7569444444444571,0.9834862385321254,0.02706803105387335,1.041004202544066,44.44444444444444,0.9999999999775001,1.0128440366972107,2.0239651104316534e-16,0.9995358618973822,0
480,363.8833333333333,0.7666666666666515,0.7666666666666515,0.7569444444444571,1.0128440366972107,0.026361839709900463,1.0138449254096171,44.44444444444444,0.9999999999775001,1.0128440366972107,1.6121437464386964e-17,0.9995681593200165,0
481,364.65,0.7666666666666515,0.75,0.7583333333333258,1.0109890109890012,0.027725280147655715,1.0662812190874549,47.22222222222222,1.0624999999760938,0.9890109890109989,6.215729466672621e-16,0.9993296939670786,0
482,365.4,0.75,0.7694444444444457,0.7569444444444571,0.990825688073378,0.03202189621211841,1.2315239502976354,47.22222222222222,1.0624999999760938,1.0165137614678745,4.335895358031916e-12,0.9967921102803705,0
483,366.1694444444444,0.7694444444444457,0.5611111111111313,0.7569444444444571,1.0165137614678745,0.02668838050631363,1.026403295122273,44.44444444444444,0.9999999999775001,0.7412844036697391,2.415197403038961e-18,0.9996079997118668,0
484,366.73055555555555,0.5611111111111313,0.9277777777778056,0.7569444444444571,0.7412844036697391,0.04812676179868166,1.8508978797737727,105.55555555555556,2.3749999999465627,1.2256880733945117,0.9996659755706787,0.9035635438429735,1
485,367.65833333333336,0.9277777777778056,0.7583333333333258,0.7569444444444571,1.2256880733945117,0.028166244312068673,1.0832401751124272,47.22222222222222,1.0624999999760938,1.0018348623852944,7.891228597500754e-19,0.9987864740505845,0
486,368.4166666666667,0.7583333333333258,0.75,0.7583333333333258,1.0,0.031336536983650576,1.2051658514884767,47.22222222222222,1.0624999999760938,0.9890109890109989,6.219189659789626e-13,0.9973124874568278,0
487,369.1666666666667,0.75,0.7527777777777374,0.7583333333333258,0.9890109890109989,0.028510828803895823,1.0964924838381571,47.22222222222222,1.0624999999760938,0.9926739926739493,7.270198982764486e-15,0.9989829040271143,0
488,369.9194444444444,0.7527777777777374,0.7527777777777942,0.7555555555555316,0.9963235294117428,0.028244842784420663,1.0862629786502656,47.22222222222222,1.0624999999760938,0.9963235294118181,5.1849271099182245e-15,0.9982814880610804,0
489,370.6722222222222,0.7527777777777942,0.7416666666666742,0.75555555555556,0.9963235294117806,0.02703158856639267,1.0396026679240178,44.44444444444444,0.9999999999775001,0.9816176470588278,6.726213857019024e-17,0.9997008144540735,0
490,371.4138888888889,0.7416666666666742,0.7694444444444457,0.7527777777777658,0.9852398523985497,0.027764744030128106,1.0677989529566343,47.22222222222222,1.0624999999760938,1.022140221402232,4.675943317847221e-15,0.9990565813453234,0
491,372.18333333333334,0.7694444444444457,0.7555555555555316,0.7527777777777658,1.022140221402232,0.030568682062948768,1.1756350667112683,50.0,1.1249999999746876,1.0036900369003532,6.177292293137182e-13,0.9968564384022925,0
492,372.93888888888887,0.7555555555555316,0.7444444444444684,0.7541666666666629,1.0018416206261243,0.030477197032429626,1.172116661510286,50.0,1.1249999999746876,0.9871086556169797,1.0114013576298375e-12,0.9968450007113929,0
493,373.68333333333334,0.7444444444444684,0.4777777777777601,0.7527777777777658,0.9889298892989407,0.024770214112247703,0.95263290253527,41.666666666666664,0.9374999999789063,0.6346863468634553,8.619239431143594e-20,0.9962936845689464,0
494,374.1611111111111,0.4777777777777601,1.0166666666667084,0.7527777777777658,0.6346863468634553,0.048014123187989165,1.846565933099623,116.66666666666667,2.624999999940938,1.3505535055351323,0.9994301199913025,0.8626774308590739,1
495,375.1777777777778,1.0166666666667084,0.7583333333333258,0.7527777777777658,1.3505535055351323,0.029869107902814888,1.1487302785779478,50.0,1.1249999999746876,1.007380073800744,5.232706091111969e-18,0.9965750638146589,0
496,375.93611111111113,0.7583333333333258,0.7583333333333258,0.7527777777777658,1.007380073800744,0.028787651365563712,1.1071387495189426,50.0,1.1249999999746876,1.007380073800744,5.1719018607718215e-14,0.9974421681500161,0
497,376.69444444444446,0.7583333333333258,0.7444444444444116,0.7541666666666629,1.005524861878448,0.02508433915565602,0.9647137771900078,44.44444444444444,0.9999999999775001,0.9871086556169043,2.1551469144984684e-18,0.9993255780502172,0
498,377.43888888888887,0.7444444444444116,0.7527777777777942,0.7541666666666629,0.9871086556169043,0.025976456607594556,0.9990235507669089,47.22222222222222,1.0624999999760938,0.9981583793738757,1.3629427159767655e-16,0.9991071599995116,0
499,378.19166666666666,0.7527777777777942,0.7555555555555316,0.7541666666666629,0.9981583793738757,0.02682047797119405,1.0314836061287234,44.44444444444444,0.9999999999775001,1.0018416206261243,9.270594951452536e-17,0.998631992606476,0
500,378.9472222222222,0.7555555555555316,0.7444444444444684,0.7555555555555316,1.0,0.026845973585286495,1.0324641370496408,44.44444444444444,0.9999999999775001,0.9852941176471219,5.071154491475974e-17,0.9993072625015322,0
501,379.69166666666666,0.7444444444444684,0.76111111111112,0.7541666666666629,0.9871086556169797,0.02484029682482272,0.9553282001049778,44.44444444444444,0.9999999999775001,1.0092081031307718,4.835107254027637e-18,0.9992167185236157,0
502,380.4527777777778,0.76111111111112,0.7361111111110858,0.7541666666666629,1.0092081031307718,0.026533939892521872,1.0204636932472524,44.44444444444444,0.9999999999775001,0.9760589318600082,1.5701555622371372e-17,0.9997503363875136,0
503,381.18888888888887,0.7361111111110858,0.7388888888889369,0.7541666666666629,0.9760589318600082,0.027992456529403922,1.0765565041891618,47.22222222222222,1.0624999999760938,0.9797421731124074,4.939609427734434e-15,0.9992804299107105,0
504,381.9277777777778,0.7388888888889369,0.7749999999999773,0.7541666666666629,0.9797421731124074,0.02627844659624428,1.0106377256836179,44.44444444444444,0.9999999999775001,1.0276243093922401,1.820017046787355e-16,0.9977095233780064,0
505,382.7027777777778,0.7749999999999773,0.7333333333333485,0.7541666666666629,1.0276243093922401,0.02664327099121326,1.024668436953212,47.22222222222222,1.0624999999760938,0.9723756906077597,5.973251859491194e-17,0.9985654860020506,0
506,383.43611111111113,0.7333333333333485,0.7416666666666742,0.7486111111111313,0.9795918367346876,0.025459958511011783,0.9791596497658148,44.44444444444444,0.9999999999775001,0.990723562152117,4.6379570268317483e-17,0.9967524470452535,0
507,384.1777777777778,0.7416666666666742,0.7638888888888573,0.74444444444444,0.996268656716434,0.02854374143289299,1.097758264309394,47.22222222222222,1.0624999999760938,1.0261194029850382,1.7427433533280003e-14,0.9990259654788278,0
508,384.94166666666666,0.7638888888888573,0.7555555555555316,0.7486111111111313,1.0204081632652364,0.02665660108545429,1.0251810964849526,47.22222222222222,1.0624999999760938,1.0092764378478072,1.6891842054055577e-16,0.9989558908087094,0
509,385.6972222222222,0.7555555555555316,0.716666666666697,0.75,1.0074074074073753,0.02842979884777413,1.0933761683334662,47.22222222222222,1.0624999999760938,0.955555555555596,3.3032923337455e-15,0.9985593062795803,0
510,386.4138888888889,0.716666666666697,0.7416666666666742,0.7430555555555713,0.9644859813084316,0.025250095263591406,0.9710885594789247,44.44444444444444,0.9999999999775001,0.9981308411214843,7.094413123490058e-17,0.99756400087355,0
511,387.15555555555557,0.7416666666666742,0.73888888888888,0.7416666666666742,1.0,0.0304286385300228,1.1702491594014646,47.22222222222222,1.0624999999760938,0.996254681647918,3.7865609085752094e-13,0.9975792599308283,0
512,387.89444444444445,0.73888888888888,0.7527777777777942,0.7402777777778056,0.9981238273920706,0.028373569866303884,1.0912136687449738,50.0,1.1249999999746876,1.0168855534709034,3.986775373807788e-14,0.9992738974125934,0
513,388.64722222222224,0.7527777777777942,0.7361111111110858,0.7416666666666742,1.0149812734082515,0.02624202991398344,1.0092371835015583,44.44444444444444,0.9999999999775001,0.992509363295836,1.7046738241201032e-17,0.9998833041257591,0
514,389.3833333333333,0.7361111111110858,0.73888888888888,0.7416666666666742,0.992509363295836,0.025739271081194743,0.9899016782053839,44.44444444444444,0.9999999999775001,0.996254681647918,2.9088213213288594e-17,0.998955559223591,0
515,390.1222222222222,0.73888888888888,0.7555555555555884,0.7402777777777771,0.998123827392109,0.027713805691202537,1.0658399251726558,44.44444444444444,0.9999999999775001,1.0206378986867244,9.809089397875659e-16,0.999073594131176,0
516,390.8777777777778,0.7555555555555884,0.5,0.7416666666666742,1.0187265917603334,0.026122180581925416,1.0046279210806535,44.44444444444444,0.9999999999775001,0.6741573033707796,1.829328536224803e-18,0.9988335143833841,0
517,391.3777777777778,0.5,0.9777777777777601,0.7402777777777771,0.6754221388367736,0.049107240238970694,1.888605911614481,102.77777777777777,2.3124999999479687,1.3208255159474445,0.9995402097702026,0.8956981945168838,1
518,392.35555555555555,0.9777777777777601,0.7527777777777942,0.7402777777777771,1.3208255159474445,0.03278725902109342,1.2609588914290444,50.0,1.1249999999746876,1.0168855534709424,4.913223927910989e-15,0.9951187814171778,0
519,393.10833333333335,0.7527777777777942,0.7472222222222058,0.7402777777777771,1.0168855534709424,0.025628170661228286,0.9856288885126536,44.44444444444444,0.9999999999775001,1.0093808630393784,1.9236993389233242e-17,0.9973660414503398,0
520,393.85555555555555,0.7472222222222058,0.76111111111112,0.74444444444444,1.003731343283566,0.029434469240816045,1.132014593834259,47.22222222222222,1.0624999999760938,1.0223880597015105,7.485919978518496e-14,0.9978092428626938,0
