beat_index,peak_time_s,rr_prev_s,rr_next_s,rr_baseline_s,prematurity_index,aa_ratio,morph_index,qrs_width_ms,width_index,pause_index,pvc_score,morphology_score,is_pvc_candidate
0,0.5277777777777778,,1.1388888888888888,1.180555555555543,,0.020630706358181265,1.0279678912430124,36.111111111111114,0.9999999999723078,0.9647058823529514,0.0,0.9947420669367785,0
1,1.6666666666666667,1.1388888888888888,1.1249999999999998,1.180555555555543,0.9647058823529514,0.02081741300311968,1.0372709384943388,36.111111111111114,0.9999999999723078,0.9529411764705983,0.0,0.9920045300546123,0
2,2.7916666666666665,1.1249999999999998,1.125,1.180555555555543,0.9529411764705983,0.020382252394638315,1.0155881553028063,41.666666666666664,1.153846153814201,0.9529411764705984,0.0,0.9959123686045157,0
3,3.9166666666666665,1.125,1.1833333333333331,1.180555555555543,0.9529411764705984,0.020032957114167884,0.9981837908252935,33.333333333333336,0.923076923051361,1.002352941176481,0.0,0.995779770105474,0
4,5.1,1.1833333333333331,1.1444444444444448,1.180555555555543,1.002352941176481,0.020923491120812165,1.042556501531211,36.111111111111114,0.9999999999723078,0.9694117647058931,0.0,0.9939692607619492,0
5,6.2444444444444445,1.1444444444444448,1.1944444444444446,1.180555555555543,0.9694117647058931,0.02107339368761702,1.0500257089744742,44.44444444444444,1.2307692307351479,1.011764705882364,0.0,0.9974074816970495,0
6,7.438888888888889,1.1944444444444446,1.186111111111111,1.180555555555543,1.011764705882364,0.018866433328515068,0.9400593148522831,33.333333333333336,0.923076923051361,1.0047058823529518,0.0,0.9932409638607949,0
7,8.625,1.186111111111111,1.1833333333333336,1.180555555555543,1.0047058823529518,0.019370415418570347,0.9651712716289313,36.111111111111114,0.9999999999723078,1.0023529411764815,0.0,0.9966234697317506,0
8,9.808333333333334,1.1833333333333336,1.1888888888888882,1.180555555555543,1.0023529411764815,0.021177017450206403,1.0551889786591029,41.666666666666664,1.153846153814201,1.007058823529422,0.0,0.9929993464560212,0
9,10.997222222222222,1.1888888888888882,1.1750000000000007,1.180555555555543,1.007058823529422,0.020270144344533933,1.0100021383309992,36.111111111111114,0.9999999999723078,0.9952941176470701,0.0,0.9980976851759078,0
10,12.172222222222222,1.1750000000000007,1.1638888888888879,1.180555555555543,0.9952941176470701,0.021579856545178102,1.0752612751563135,41.666666666666664,1.153846153814201,0.9858823529411862,0.0,0.9955166726516668,0
11,13.33611111111111,1.1638888888888879,1.219444444444445,1.180555555555543,0.9858823529411862,0.02031630567894778,1.0123022229122307,36.111111111111114,0.9999999999723078,1.0329411764705998,0.0,0.9947185257461635,0
12,14.555555555555555,1.219444444444445,1.1861111111111118,1.180555555555543,1.0329411764705998,0.021259990531548856,1.059323285162075,41.666666666666664,1.153846153814201,1.0047058823529524,0.0,0.9982641562720516,0
13,15.741666666666667,1.1861111111111118,1.2027777777777757,1.180555555555543,1.0047058823529524,0.020443344318525743,1.0186321875855706,44.44444444444444,1.2307692307351479,1.0188235294117738,0.0,0.9939340284971113,0
14,16.944444444444443,1.2027777777777757,1.25,1.180555555555543,1.0188235294117738,0.02031815662799806,1.0123944503017819,38.888888888888886,1.0769230768932543,1.058823529411776,0.0,0.9910793036575307,0
15,18.194444444444443,1.25,1.2055555555555557,1.180555555555543,1.058823529411776,0.02064682879108619,1.0287712250245729,41.666666666666664,1.153846153814201,1.0211764705882465,0.0,0.9920331402254182,0
16,19.4,1.2055555555555557,1.2416666666666671,1.180555555555543,1.0211764705882465,0.01944819776961822,0.9690469391894314,36.111111111111114,0.9999999999723078,1.0517647058823647,0.0,0.9976736077600041,0
17,20.641666666666666,1.2416666666666671,1.2055555555555557,1.180555555555543,1.0517647058823647,0.01981930338124447,0.9875380488193547,38.888888888888886,1.0769230768932543,1.0211764705882465,0.0,0.996486525075326,0
18,21.84722222222222,1.2055555555555557,1.2666666666666657,1.180555555555543,1.0211764705882465,0.020143933581386678,1.0037134243242096,38.888888888888886,1.0769230768932543,1.072941176470599,0.0,0.9946231765830577,0
19,23.113888888888887,1.2666666666666657,1.2250000000000014,1.180555555555543,1.072941176470599,0.02010305569156933,1.001676598368547,36.111111111111114,0.9999999999723078,1.0376470588235418,0.0,0.9960843870670162,0
20,24.33888888888889,1.2250000000000014,1.2444444444444436,1.180555555555543,1.0376470588235418,0.02068400623079506,1.030623668350353,36.111111111111114,0.9999999999723078,1.054117647058834,0.0,0.9956827695867407,0
21,25.583333333333332,1.2444444444444436,1.222222222222225,1.180555555555543,1.054117647058834,0.021908221762161836,1.091622755650483,41.666666666666664,1.153846153814201,1.0352941176470722,0.0,0.9959161116319843,0
22,26.805555555555557,1.222222222222225,1.1972222222222193,1.180555555555543,1.0352941176470722,0.021346233585944376,1.0636205248795199,44.44444444444444,1.2307692307351479,1.014117647058832,0.0,0.9928531175405032,0
23,28.002777777777776,1.1972222222222193,1.222222222222225,1.180555555555543,1.014117647058832,0.021712963142921145,1.0818935884768988,41.666666666666664,1.153846153814201,1.0352941176470722,0.0,0.991072646134606,0
24,29.225,1.222222222222225,1.1333333333333329,1.180555555555543,1.0352941176470722,0.021643384530295906,1.0784266892610306,41.666666666666664,1.153846153814201,0.9600000000000098,0.0,0.9930100543794345,0
25,30.358333333333334,1.1333333333333329,1.1666666666666643,1.180555555555543,0.9600000000000098,0.020516508611070298,1.0222777507677294,41.666666666666664,1.153846153814201,0.9882352941176556,0.0,0.9950722994533965,0
26,31.525,1.1666666666666643,1.1388888888888928,1.180555555555543,0.9882352941176556,0.020278472800289358,1.0104171209763617,38.888888888888886,1.0769230768932543,0.9647058823529548,0.0,0.9890302398477577,0
27,32.66388888888889,1.1388888888888928,1.1694444444444443,1.180555555555543,0.9647058823529548,0.021141967186355737,1.0534425262986005,38.888888888888886,1.0769230768932543,0.9905882352941281,0.0,0.9959049941719255,0
28,33.833333333333336,1.1694444444444443,1.2305555555555543,1.180555555555543,0.9905882352941281,0.019514437504848683,0.9723474718885627,38.888888888888886,1.0769230768932543,1.0423529411764807,0.0,0.9974134713829662,0
29,35.06388888888889,1.2305555555555543,1.2250000000000014,1.180555555555543,1.0423529411764807,0.018979577393358076,0.9456969534151143,36.111111111111114,0.9999999999723078,1.0376470588235418,0.0,0.9884547433791502,0
30,36.28888888888889,1.2250000000000014,1.2166666666666615,1.180555555555543,1.0376470588235418,0.019597442098568868,0.9764833485613547,41.666666666666664,1.153846153814201,1.0305882352941242,0.0,0.9960656573192885,0
31,37.50555555555555,1.2166666666666615,1.25555555555556,1.180555555555543,1.0305882352941242,0.020712115418252394,1.0320242671303173,38.888888888888886,1.0769230768932543,1.063529411764721,0.0,0.9939505516115525,0
32,38.76111111111111,1.25555555555556,1.2083333333333286,1.180555555555543,1.063529411764721,0.021294923672767772,1.0610639016436363,44.44444444444444,1.2307692307351479,1.023529411764713,0.0,0.9935923096871042,0
33,39.96944444444444,1.2083333333333286,1.2583333333333329,1.180555555555543,1.023529411764713,0.020553672827431407,1.0241295352126802,38.888888888888886,1.0769230768932543,1.0658823529411874,0.0,0.9978577746211761,0
34,41.227777777777774,1.2583333333333329,1.2083333333333357,1.180555555555543,1.0658823529411874,0.021316359651205916,1.0621319938925986,44.44444444444444,1.2307692307351479,1.023529411764719,0.0,0.9974859553859348,0
35,42.43611111111111,1.2083333333333357,1.2194444444444485,1.180555555555543,1.023529411764719,0.021489043243680537,1.0707363133631247,41.666666666666664,1.153846153814201,1.0329411764706027,0.0,0.9958067736564844,0
36,43.65555555555556,1.2194444444444485,1.2083333333333286,1.180555555555543,1.0329411764706027,0.021564263329826777,1.0744843107410333,44.44444444444444,1.2307692307351479,1.023529411764713,0.0,0.99398830974437,0
37,44.86388888888889,1.2083333333333286,1.1972222222222229,1.180555555555543,1.023529411764713,0.02027948269919032,1.010467441291409,41.666666666666664,1.153846153814201,1.014117647058835,0.0,0.9970239694356741,0
38,46.06111111111111,1.1972222222222229,1.2277777777777814,1.180555555555543,1.014117647058835,0.020196392429709394,1.0063272956454867,41.666666666666664,1.153846153814201,1.0400000000000142,0.0,0.9962174276598483,0
39,47.28888888888889,1.2277777777777814,1.1888888888888829,1.180555555555543,1.0400000000000142,0.019916894854020917,0.9924007471066347,38.888888888888886,1.0769230768932543,1.0070588235294176,0.0,0.9923182120647971,0
40,48.477777777777774,1.1888888888888829,1.2222222222222285,1.180555555555543,1.0070588235294176,0.020284348006075453,1.0107098653350712,38.888888888888886,1.0769230768932543,1.0352941176470754,0.0,0.9924836621000788,0
41,49.7,1.2222222222222285,1.2611111111111057,1.180555555555543,1.0352941176470754,0.01925371808564918,0.9593565840872669,36.111111111111114,0.9999999999723078,1.0682352941176538,0.0,0.9923830074561735,0
42,50.96111111111111,1.2611111111111057,1.19444444444445,1.180555555555543,1.0682352941176538,0.020055174910100733,0.9992908387584392,41.666666666666664,1.153846153814201,1.0117647058823684,0.0,0.9948975106318315,0
43,52.15555555555556,1.19444444444445,1.25,1.180555555555543,1.0117647058823684,0.01991409222339184,0.9922611002013041,38.888888888888886,1.0769230768932543,1.058823529411776,0.0,0.9926640681836325,0
44,53.40555555555556,1.25,1.2277777777777743,1.180555555555543,1.058823529411776,0.019676944320100663,0.980444712248971,38.888888888888886,1.0769230768932543,1.0400000000000083,0.0,0.9985178205545677,0
45,54.63333333333333,1.2277777777777743,1.2222222222222214,1.180555555555543,1.0400000000000083,0.021127358446586704,1.0527146154285911,44.44444444444444,1.2307692307351479,1.0352941176470691,0.0,0.9921506845053589,0
46,55.855555555555554,1.2222222222222214,1.2055555555555557,1.180555555555543,1.0352941176470691,0.020659360823315025,1.0293956596183091,38.888888888888886,1.0769230768932543,1.0211764705882465,0.0,0.9988300061723445,0
47,57.06111111111111,1.2055555555555557,1.2305555555555543,1.180555555555543,1.0211764705882465,0.021417420489474495,1.0671675605377031,44.44444444444444,1.2307692307351479,1.0423529411764807,0.0,0.9969956359557361,0
48,58.291666666666664,1.2305555555555543,1.2083333333333357,1.180555555555543,1.0423529411764807,0.021833425650312942,1.087895883674527,41.666666666666664,1.153846153814201,1.023529411764719,0.0,0.993242930923474,0
49,59.5,1.2083333333333357,1.2166666666666686,1.180555555555543,1.023529411764719,0.021149128408112648,1.0537993490801556,44.44444444444444,1.2307692307351479,1.0305882352941302,0.0,0.9932893215420584,0
50,60.71666666666667,1.2166666666666686,1.2222222222222214,1.180555555555543,1.0305882352941302,0.019624170299750058,0.9778151368253106,36.111111111111114,0.9999999999723078,1.0352941176470691,0.0,0.9910335278462866,0
51,61.93888888888889,1.2222222222222214,1.2166666666666686,1.180555555555543,1.0352941176470691,0.02147865155148048,1.0702185256668686,41.666666666666664,1.153846153814201,1.0305882352941302,0.0,0.9956916580302602,0
52,63.15555555555556,1.2166666666666686,1.2111111111111015,1.180555555555543,1.0305882352941302,0.02003772415009496,0.9984213183139,36.111111111111114,0.9999999999723078,1.0258823529411794,0.0,0.9949868476038071,0
53,64.36666666666666,1.2111111111111015,1.2361111111111143,1.180555555555543,1.0258823529411794,0.018953110106431293,0.9443781657470295,36.111111111111114,0.9999999999723078,1.0470588235294256,0.0,0.9953693883132895,0
54,65.60277777777777,1.2361111111111143,1.2000000000000028,1.180555555555543,1.0470588235294256,0.020904651704575443,1.0416177883991988,44.44444444444444,1.2307692307351479,1.0164705882353073,0.0,0.9964732633565134,0
55,66.80277777777778,1.2000000000000028,1.2166666666666686,1.180555555555543,1.0164705882353073,0.020073815954188785,1.0002196675851924,41.666666666666664,1.153846153814201,1.0305882352941302,0.0,0.9907631611768057,0
56,68.01944444444445,1.2166666666666686,1.1583333333333314,1.180555555555543,1.0305882352941302,0.02095475994038805,1.0441145355588892,38.888888888888886,1.0769230768932543,0.9811764705882442,0.0,0.9969536283872868,0
57,69.17777777777778,1.1583333333333314,1.1972222222222229,1.180555555555543,0.9811764705882442,0.020438734276533744,1.0184024826465938,38.888888888888886,1.0769230768932543,1.014117647058835,0.0,0.995388916854189,0
58,70.375,1.1972222222222229,1.1694444444444514,1.180555555555543,1.014117647058835,0.020370148370634493,1.014985047109866,41.666666666666664,1.153846153814201,0.9905882352941341,0.0,0.9992543440086152,0
59,71.54444444444445,1.1694444444444514,1.1611111111110972,1.180555555555543,0.9905882352941341,0.020855830771936146,1.0391851837998982,44.44444444444444,1.2307692307351479,0.9835294117647047,0.0,0.9922796225899584,0
60,72.70555555555555,1.1611111111110972,1.2194444444444485,1.180555555555543,0.9835294117647047,0.020358204098026376,1.0143898988627713,41.666666666666664,1.153846153814201,1.0329411764706027,0.0,0.9974053404510453,0
61,73.925,1.2194444444444485,1.1805555555555571,1.180555555555543,1.0329411764706027,0.021299508433956206,1.0612923469139486,41.666666666666664,1.153846153814201,1.000000000000012,0.0,0.9935565224658074,0
62,75.10555555555555,1.1805555555555571,1.2000000000000028,1.180555555555543,1.000000000000012,0.018745317359236006,0.93402445955581,38.888888888888886,1.0769230768932543,1.0164705882353073,0.0,0.9928362246974293,0
63,76.30555555555556,1.2000000000000028,1.1833333333333371,1.180555555555543,1.0164705882353073,0.019265158474053804,0.9599266252549866,41.666666666666664,1.153846153814201,1.0023529411764844,0.0,0.9960241999708386,0
64,77.4888888888889,1.1833333333333371,1.2305555555555543,1.180555555555543,1.0023529411764844,0.019599797297948633,0.9766007012732707,36.111111111111114,0.9999999999723078,1.0423529411764807,0.0,0.992507259243402,0
65,78.71944444444445,1.2305555555555543,1.2194444444444343,1.180555555555543,1.0423529411764807,0.0190995668893254,0.9516756798338503,36.111111111111114,0.9999999999723078,1.0329411764705907,0.0,0.9941011406850988,0
66,79.93888888888888,1.2194444444444343,1.1833333333333371,1.180555555555543,1.0329411764705907,0.02049568954962506,1.0212403976921751,41.666666666666664,1.153846153814201,1.0023529411764844,0.0,0.9918222309782709,0
67,81.12222222222222,1.1833333333333371,1.2305555555555543,1.180555555555543,1.0023529411764844,0.020806465042375634,1.0367254335598939,38.888888888888886,1.0769230768932543,1.0423529411764807,0.0,0.9970114499981201,0
68,82.35277777777777,1.2305555555555543,1.12222222222222,1.180555555555543,1.0423529411764807,0.020826920728995602,1.037744680728342,41.666666666666664,1.153846153814201,0.950588235294126,0.0,0.9947183329166691,0
69,83.475,1.12222222222222,1.2111111111111228,1.180555555555543,0.950588235294126,0.020461574535875274,1.0195405461148592,38.888888888888886,1.0769230768932543,1.0258823529411973,0.0,0.9943996241112284,0
70,84.68611111111112,1.2111111111111228,1.1722222222222172,1.180555555555543,1.0258823529411973,0.01936249106278024,0.9647764241055558,38.888888888888886,1.0769230768932543,0.9929411764705945,0.0,0.9939660785516534,0
71,85.85833333333333,1.1722222222222172,1.2166666666666686,1.180555555555543,0.9929411764705945,0.019595911894108694,0.9764071029386995,38.888888888888886,1.0769230768932543,1.0305882352941302,0.0,0.9956452556243955,0
72,87.075,1.2166666666666686,1.2194444444444485,1.180555555555543,1.0305882352941302,0.018882811271862154,0.9408753799735204,33.333333333333336,0.923076923051361,1.0329411764706027,0.0,0.9951822418122623,0
73,88.29444444444445,1.2194444444444485,1.2361111111111,1.180555555555543,1.0329411764706027,0.02042480338530367,1.0177083469911155,38.888888888888886,1.0769230768932543,1.0470588235294136,0.0,0.9971714940926079,0
74,89.53055555555555,1.2361111111111,1.25833333333334,1.180555555555543,1.0470588235294136,0.01988984934782712,0.9910531484598916,36.111111111111114,0.9999999999723078,1.0658823529411936,0.0,0.9976623939561322,0
75,90.78888888888889,1.25833333333334,1.2083333333333286,1.180555555555543,1.0658823529411936,0.01914873878659547,0.9541257719764825,38.888888888888886,1.0769230768932543,1.023529411764713,0.0,0.9986186621433859,0
76,91.99722222222222,1.2083333333333286,1.2361111111111143,1.180555555555543,1.023529411764713,0.019657388029105403,0.9794702793397964,36.111111111111114,0.9999999999723078,1.0470588235294256,0.0,0.9905868729226367,0
77,93.23333333333333,1.2361111111111143,1.2277777777777743,1.180555555555543,1.0470588235294256,0.021104677669786798,1.051584498509957,41.666666666666664,1.153846153814201,1.0400000000000083,0.0,0.9963678388487762,0
78,94.46111111111111,1.2277777777777743,1.2333333333333343,1.180555555555543,1.0400000000000083,0.020685204622761737,1.0306833807247855,41.666666666666664,1.153846153814201,1.0447058823529531,0.0,0.9960267078529692,0
79,95.69444444444444,1.2333333333333343,1.2027777777777828,1.180555555555543,1.0447058823529531,0.019956579721466413,0.9943781282391051,41.666666666666664,1.153846153814201,1.0188235294117798,0.0,0.9992213366689946,0
80,96.89722222222223,1.2027777777777828,1.24166666666666,1.180555555555543,1.0188235294117798,0.02173958018747172,1.0832198381303395,44.44444444444444,1.2307692307351479,1.0517647058823585,0.0,0.9966325466957926,0
81,98.13888888888889,1.24166666666666,1.1916666666666629,1.180555555555543,1.0517647058823585,0.0207376122375135,1.033294699226737,38.888888888888886,1.0769230768932543,1.00941176470589,0.0,0.993209390574705,0
82,99.33055555555555,1.1916666666666629,1.1861111111111171,1.180555555555543,1.00941176470589,0.021083751752101157,1.0505418210997817,44.44444444444444,1.2307692307351479,1.004705882352957,0.0,0.9914086653741624,0
83,100.51666666666667,1.1861111111111171,1.2277777777777743,1.180555555555543,1.004705882352957,0.01970717942766369,0.98195123942373,38.888888888888886,1.0769230768932543,1.0400000000000083,0.0,0.9983876826125031,0
84,101.74444444444444,1.2277777777777743,1.2250000000000085,1.180555555555543,1.0400000000000083,0.019858535723791378,0.9894928819567318,38.888888888888886,1.0769230768932543,1.0376470588235478,0.0,0.9963079241081095,0
85,102.96944444444445,1.2250000000000085,1.2055555555555486,1.180555555555543,1.0376470588235478,0.020207406711226027,1.0068761051504858,36.111111111111114,0.9999999999723078,1.0211764705882402,0.0,0.9922544192029907,0
86,104.175,1.2055555555555486,1.2222222222222285,1.180555555555543,1.0211764705882402,0.019227432628144404,0.9580468564486478,36.111111111111114,0.9999999999723078,1.0352941176470754,0.0,0.9959385145224491,0
87,105.39722222222223,1.2222222222222285,1.2027777777777686,1.180555555555543,1.0352941176470754,0.019819630182523803,0.9875543323733997,38.888888888888886,1.0769230768932543,1.0188235294117678,0.0,0.9985362436845237,0
88,106.6,1.2027777777777686,1.1833333333333371,1.180555555555543,1.0188235294117678,0.020370259104335882,1.014990564647052,36.111111111111114,0.9999999999723078,1.0023529411764844,0.0,0.9907157588465345,0
89,107.78333333333333,1.1833333333333371,1.1666666666666714,1.180555555555543,1.0023529411764844,0.021195358990873395,1.0561028841044255,41.666666666666664,1.153846153814201,0.9882352941176616,0.0,0.9928076506657197,0
90,108.95,1.1666666666666714,1.2166666666666686,1.180555555555543,0.9882352941176616,0.01961775022531227,0.9774952432517772,36.111111111111114,0.9999999999723078,1.0305882352941302,0.0,0.992723366915564,0
91,110.16666666666667,1.2166666666666686,1.183333333333323,1.180555555555543,1.0305882352941302,0.02165190370909583,1.0788511750791137,41.666666666666664,1.153846153814201,1.0023529411764724,0.0,0.9959708677245387,0
92,111.35,1.183333333333323,1.2000000000000028,1.180555555555543,1.0023529411764724,0.020869211584656856,1.0398519106485489,41.666666666666664,1.153846153814201,1.0164705882353073,0.0,0.9924569494756229,0
93,112.55,1.2000000000000028,1.2166666666666686,1.180555555555543,1.0164705882353073,0.021572914701243683,1.0749153833314427,41.666666666666664,1.153846153814201,1.0305882352941302,0.0,0.9931367989472717,0
94,113.76666666666667,1.2166666666666686,1.2111111111111086,1.180555555555543,1.0305882352941302,0.020573123343186377,1.0250986976503151,41.666666666666664,1.153846153814201,1.0258823529411853,0.0,0.9967799862127494,0
95,114.97777777777777,1.2111111111111086,1.2111111111111086,1.180555555555543,1.0258823529411853,0.02030526575668437,1.0117521358036472,36.111111111111114,0.9999999999723078,1.0258823529411853,0.0,0.9918736613357757,0
96,116.18888888888888,1.2111111111111086,1.1833333333333371,1.180555555555543,1.0258823529411853,0.020173367796753768,1.0051800453780886,41.666666666666664,1.153846153814201,1.0023529411764844,0.0,0.9966704043008761,0
97,117.37222222222222,1.1833333333333371,1.2166666666666686,1.180555555555543,1.0023529411764844,0.020024832422121303,0.9977789611308991,38.888888888888886,1.0769230768932543,1.0305882352941302,0.0,0.9918317117335314,0
98,118.58888888888889,1.2166666666666686,1.1777777777777771,1.180555555555543,1.0305882352941302,0.01942578961428077,0.9679304062026804,41.666666666666664,1.153846153814201,0.9976470588235395,0.0,0.9951807956003034,0
99,119.76666666666667,1.1777777777777771,1.1888888888888829,1.180555555555543,0.9976470588235395,0.020185335008824218,1.005776336631647,38.888888888888886,1.0769230768932543,1.0070588235294176,0.0,0.9955973898320574,0
100,120.95555555555555,1.1888888888888829,1.1777777777777914,1.180555555555543,1.0070588235294176,0.021202291758286494,1.056448323672727,38.888888888888886,1.0769230768932543,0.9976470588235515,0.0,0.9967276091139943,0
101,122.13333333333334,1.1777777777777914,1.1555555555555515,1.180555555555543,0.9976470588235515,0.021448709426370623,1.0687265969527404,44.44444444444444,1.2307692307351479,0.9788235294117718,0.0,0.9928976408408019,0
102,123.28888888888889,1.1555555555555515,1.186111111111103,1.180555555555543,0.9788235294117718,0.020513755358447287,1.0221405642243413,36.111111111111114,0.9999999999723078,1.004705882352945,0.0,0.9942422944807661,0
103,124.475,1.186111111111103,1.1638888888888914,1.180555555555543,1.004705882352945,0.021105298980162297,1.0516154565927982,41.666666666666664,1.153846153814201,0.9858823529411892,0.0,0.9948212118076216,0
104,125.63888888888889,1.1638888888888914,1.2055555555555628,1.180555555555543,0.9858823529411892,0.021122532806435588,1.0524741678625253,41.666666666666664,1.153846153814201,1.0211764705882524,0.0,0.998124206555377,0
105,126.84444444444445,1.2055555555555628,1.1888888888888829,1.180555555555543,1.0211764705882524,0.020952036298436286,1.0439788244288364,41.666666666666664,1.153846153814201,1.0070588235294176,0.0,0.9951790041647902,0
106,128.03333333333333,1.1888888888888829,1.1999999999999886,1.180555555555543,1.0070588235294176,0.0205126450951311,1.0220852430433767,41.666666666666664,1.153846153814201,1.0164705882352953,0.0,0.9958904681080682,0
107,129.23333333333332,1.1999999999999886,1.2333333333333485,1.180555555555543,1.0164705882352953,0.020504400665432396,1.0216744471712074,41.666666666666664,1.153846153814201,1.0447058823529651,0.0,0.9979437692458697,0
108,130.46666666666667,1.2333333333333485,1.1944444444444287,1.180555555555543,1.0447058823529651,0.019083637729505522,0.9508819762860888,38.888888888888886,1.0769230768932543,1.0117647058823505,0.0,0.9985041835969376,0
109,131.6611111111111,1.1944444444444287,1.1861111111111313,1.180555555555543,1.0117647058823505,0.021504928623864276,1.0715278354993794,41.666666666666664,1.153846153814201,1.004705882352969,0.0,0.9930461165725271,0
110,132.84722222222223,1.1861111111111313,1.2111111111111086,1.180555555555543,1.004705882352969,0.020327189683019622,1.0128445410723441,38.888888888888886,1.0769230768932543,1.0258823529411853,0.0,0.9954156363724089,0
111,134.05833333333334,1.2111111111111086,1.188888888888897,1.180555555555543,1.0258823529411853,0.02141204276304398,1.0668996041234882,41.666666666666664,1.153846153814201,1.0070588235294295,0.0,0.9919278345700173,0
112,135.24722222222223,1.188888888888897,1.2361111111110858,1.180555555555543,1.0070588235294295,0.019916044047193243,0.992358353885321,38.888888888888886,1.0769230768932543,1.0470588235294016,0.0,0.998091062476337,0
113,136.48333333333332,1.2361111111110858,1.2138888888889028,1.180555555555543,1.0470588235294016,0.02139610335341705,1.0661053898577533,41.666666666666664,1.153846153814201,1.0282352941176698,0.0,0.992989681212709,0
114,137.69722222222222,1.2138888888889028,1.2111111111111086,1.180555555555543,1.0282352941176698,0.020383629430697655,1.0156567689910392,38.888888888888886,1.0769230768932543,1.0258823529411853,0.0,0.992132229186582,0
115,138.90833333333333,1.2111111111111086,1.1972222222222229,1.180555555555543,1.0258823529411853,0.021037848024696663,1.048254572324052,44.44444444444444,1.2307692307351479,1.014117647058835,0.0,0.9948625666634708,0
116,140.10555555555555,1.1972222222222229,1.180555555555543,1.180555555555543,1.014117647058835,0.01907439192548446,0.9504212848537468,41.666666666666664,1.153846153814201,1.0,0.0,0.9922613630957751,0
117,141.2861111111111,1.180555555555543,1.2194444444444628,1.180555555555543,1.0,0.02103959025446928,1.0483413825492727,38.888888888888886,1.0769230768932543,1.032941176470615,0.0,0.9963680489735329,0
118,142.50555555555556,1.2194444444444628,1.1638888888888914,1.180555555555543,1.032941176470615,0.020272624689256943,1.0101257266701573,41.666666666666664,1.153846153814201,0.9858823529411892,0.0,0.9934162717948296,0
119,143.66944444444445,1.1638888888888914,1.1944444444444287,1.180555555555543,0.9858823529411892,0.020803847894031804,1.0365950286955443,41.666666666666664,1.153846153814201,1.0117647058823505,0.0,0.9931145151241143,0
120,144.86388888888888,1.1944444444444287,1.1805555555555713,1.180555555555543,1.0117647058823505,0.02046449303100724,1.0196859662102413,41.666666666666664,1.153846153814201,1.000000000000024,0.0,0.9990034930062622,0
121,146.04444444444445,1.1805555555555713,1.1361111111110915,1.180555555555543,1.000000000000024,0.020221657407886225,1.0075861757772588,41.666666666666664,1.153846153814201,0.9623529411764643,0.0,0.9937474394077082,0
122,147.18055555555554,1.1361111111110915,1.200000000000017,1.180555555555543,0.9623529411764643,0.020332006936207004,1.0130845707404827,38.888888888888886,1.0769230768932543,1.0164705882353193,0.0,0.9947283677440593,0
123,148.38055555555556,1.200000000000017,1.1722222222222172,1.180555555555543,1.0164705882353193,0.020402409662812288,1.0165925331509647,41.666666666666664,1.153846153814201,0.9929411764705945,0.0,0.9928382018981052,0
124,149.55277777777778,1.1722222222222172,1.194444444444457,1.180555555555543,0.9929411764705945,0.02209809789992684,1.1010837294798281,44.44444444444444,1.2307692307351479,1.0117647058823744,0.0,0.9901101928368058,0
125,150.74722222222223,1.194444444444457,1.186111111111103,1.180555555555543,1.0117647058823744,0.020637764956757124,1.028319600610941,41.666666666666664,1.153846153814201,1.004705882352945,0.0,0.9973391828182561,0
126,151.93333333333334,1.186111111111103,1.1916666666666629,1.180555555555543,1.004705882352945,0.02005955266383904,0.9995089694516214,38.888888888888886,1.0769230768932543,1.00941176470589,0.0,0.9979217983052654,0
127,153.125,1.1916666666666629,1.2083333333333428,1.180555555555543,1.00941176470589,0.02053416632527456,1.023157583136025,41.666666666666664,1.153846153814201,1.023529411764725,0.0,0.9915390451062012,0
128,154.33333333333334,1.2083333333333428,1.1833333333333371,1.180555555555543,1.023529411764725,0.01958797024872119,0.9760113939251419,36.111111111111114,0.9999999999723078,1.0023529411764844,0.0,0.9951148489937998,0
129,155.51666666666668,1.1833333333333371,1.163888888888863,1.180555555555543,1.0023529411764844,0.021029509756915882,1.0478391007741004,44.44444444444444,1.2307692307351479,0.9858823529411651,0.0,0.9936012674192415,0
130,156.68055555555554,1.163888888888863,1.1694444444444514,1.180555555555543,0.9858823529411651,0.020458316018690022,1.019378183712848,38.888888888888886,1.0769230768932543,0.9905882352941341,0.0,0.9913593178255844,0
131,157.85,1.1694444444444514,1.1611111111111256,1.180555555555543,0.9905882352941341,0.020009808390893415,0.99703035749944,41.666666666666664,1.153846153814201,0.9835294117647287,0.0,0.9987641247643619,0
132,159.01111111111112,1.1611111111111256,1.1583333333333314,1.180555555555543,0.9835294117647287,0.020501294285759936,1.0215196653374758,38.888888888888886,1.0769230768932543,0.9811764705882442,0.0,0.9961697609165316,0
133,160.16944444444445,1.1583333333333314,1.2222222222222285,1.180555555555543,0.9811764705882442,0.019784914835717062,0.9858245679518077,36.111111111111114,0.9999999999723078,1.0352941176470754,0.0,0.9964037217543402,0
134,161.39166666666668,1.2222222222222285,1.2111111111111086,1.180555555555543,1.0352941176470754,0.020832561315428644,1.0380257346893784,41.666666666666664,1.153846153814201,1.0258823529411853,0.0,0.9963484958904616,0
135,162.6027777777778,1.2111111111111086,1.2888888888888914,1.180555555555543,1.0258823529411853,0.020338006534821734,1.0133835132308275,36.111111111111114,0.9999999999723078,1.0917647058823667,0.0,0.994185762363119,0
136,163.89166666666668,1.2888888888888914,1.2305555555555543,1.180555555555543,1.0917647058823667,0.01877163859702172,0.9353359700214106,36.111111111111114,0.9999999999723078,1.0423529411764807,0.0,0.9941186151315042,0
137,165.12222222222223,1.2305555555555543,1.2583333333333258,1.180555555555543,1.0423529411764807,0.020556265910562227,1.024258740977695,41.666666666666664,1.153846153814201,1.0658823529411814,0.0,0.9977320049096441,0
138,166.38055555555556,1.2583333333333258,1.2305555555555543,1.180555555555543,1.0658823529411814,0.01945459182153817,0.9693655361368425,36.111111111111114,0.9999999999723078,1.0423529411764807,0.0,0.9941665397014356,0
139,167.61111111111111,1.2305555555555543,1.2416666666666742,1.180555555555543,1.0423529411764807,0.021231726160721734,1.0579149540476658,41.666666666666664,1.153846153814201,1.0517647058823707,0.0,0.9929212917389025,0
140,168.8527777777778,1.2416666666666742,1.2555555555555316,1.180555555555543,1.0517647058823707,0.02036506523355962,1.0147317692235427,41.666666666666664,1.153846153814201,1.063529411764697,0.0,0.9919502548629116,0
141,170.10833333333332,1.2555555555555316,1.2250000000000227,1.180555555555543,1.063529411764697,0.021135443815300733,1.0531174857560817,41.666666666666664,1.153846153814201,1.0376470588235598,0.0,0.9922700056517997,0
142,171.33333333333334,1.2250000000000227,1.25555555555556,1.180555555555543,1.0376470588235598,0.021688112630449532,1.0806553599616824,38.888888888888886,1.0769230768932543,1.063529411764721,0.0,0.9925456227504279,0
143,172.5888888888889,1.25555555555556,1.2055555555555486,1.180555555555543,1.063529411764721,0.020606482934177855,1.0267609087161345,41.666666666666664,1.153846153814201,1.0211764705882402,0.0,0.9983733908163939,0
144,173.79444444444445,1.2055555555555486,1.23888888888888,1.180555555555543,1.0211764705882402,0.020846344346983858,1.0387125029287572,38.888888888888886,1.0769230768932543,1.049411764705886,0.0,0.995773371311466,0
145,175.03333333333333,1.23888888888888,1.1750000000000114,1.180555555555543,1.049411764705886,0.019467611777441586,0.9700142825433756,36.111111111111114,0.9999999999723078,0.9952941176470791,0.0,0.9958212306384913,0
146,176.20833333333334,1.1750000000000114,1.2055555555555486,1.180555555555543,0.9952941176470791,0.02119827682932312,1.056248271479248,44.44444444444444,1.2307692307351479,1.0211764705882402,0.0,0.9942439105040861,0
147,177.4138888888889,1.2055555555555486,1.1944444444444287,1.180555555555543,1.0211764705882402,0.020410821939027678,1.017011692325234,36.111111111111114,0.9999999999723078,1.0117647058823505,0.0,0.9982228729159736,0
148,178.60833333333332,1.1944444444444287,1.1583333333333599,1.180555555555543,1.0117647058823505,0.020137139602841442,1.0033749002001664,38.888888888888886,1.0769230768932543,0.9811764705882683,0.0,0.9953723943396441,0
149,179.76666666666668,1.1583333333333599,1.1722222222222172,1.180555555555543,0.9811764705882683,0.019660496992300498,0.9796251899029214,36.111111111111114,0.9999999999723078,0.9929411764705945,0.0,0.9922186925212475,0
150,180.9388888888889,1.1722222222222172,1.186111111111103,1.180555555555543,0.9929411764705945,0.02058781075649417,1.025830528593168,38.888888888888886,1.0769230768932543,1.004705882352945,0.0,0.9982910532875322,0
151,182.125,1.186111111111103,1.1444444444444457,1.180555555555543,1.004705882352945,0.02153808883371587,1.0731801119848523,44.44444444444444,1.2307692307351479,0.9694117647058937,0.0,0.9920007625889264,0
152,183.26944444444445,1.1444444444444457,1.1722222222222172,1.180555555555543,0.9694117647058937,0.02021925858550872,1.0074666494586706,38.888888888888886,1.0769230768932543,0.9929411764705945,0.0,0.9927479210464734,0
153,184.44166666666666,1.1722222222222172,1.1722222222222172,1.180555555555543,0.9929411764705945,0.02065594705086911,1.0292255612997405,41.666666666666664,1.153846153814201,0.9929411764705945,0.0,0.9938820554140348,0
154,185.61388888888888,1.1722222222222172,1.1916666666666629,1.180555555555543,0.9929411764705945,0.0211085941409075,1.0517796448364647,41.666666666666664,1.153846153814201,1.00941176470589,0.0,0.9924119180130548,0
155,186.80555555555554,1.1916666666666629,1.1583333333333599,1.180555555555543,1.00941176470589,0.01934079538041412,0.9636953915677565,36.111111111111114,0.9999999999723078,0.9811764705882683,0.0,0.9982860096883501,0
156,187.9638888888889,1.1583333333333599,1.186111111111103,1.180555555555543,0.9811764705882683,0.021353492190105242,1.063982199942073,44.44444444444444,1.2307692307351479,1.004705882352945,0.0,0.9936270544121792,0
157,189.15,1.186111111111103,1.2027777777777828,1.180555555555543,1.004705882352945,0.01929405170126439,0.9613662904477924,33.333333333333336,0.923076923051361,1.0188235294117798,0.0,0.9968548189147526,0
158,190.3527777777778,1.2027777777777828,1.1416666666666515,1.180555555555543,1.0188235294117798,0.020195319650722143,1.0062738421992428,41.666666666666664,1.153846153814201,0.9670588235294093,0.0,0.9917323005449259,0
159,191.49444444444444,1.1416666666666515,1.1916666666666629,1.180555555555543,0.9670588235294093,0.01933815657489672,0.9635639075896498,38.888888888888886,1.0769230768932543,1.00941176470589,0.0,0.9973639835149943,0
160,192.6861111111111,1.1916666666666629,1.1805555555555713,1.180555555555543,1.00941176470589,0.02108667816565181,1.0506876357468589,36.111111111111114,0.9999999999723078,1.000000000000024,0.0,0.9913598255826488,0
161,193.86666666666667,1.1805555555555713,1.1833333333333371,1.180555555555543,1.000000000000024,0.021096648918098766,1.0511844492436464,44.44444444444444,1.2307692307351479,1.0023529411764844,0.0,0.9965420388126343,0
162,195.05,1.1833333333333371,1.2166666666666686,1.180555555555543,1.0023529411764844,0.021365868183920923,1.0645988595970488,38.888888888888886,1.0769230768932543,1.0305882352941302,0.0,0.9906692352294287,0
163,196.26666666666668,1.2166666666666686,1.1611111111110972,1.180555555555543,1.0305882352941302,0.021286445558293877,1.0606414619410816,44.44444444444444,1.2307692307351479,0.9835294117647047,0.0,0.9957014760380651,0
164,197.42777777777778,1.1611111111110972,1.2083333333333428,1.180555555555543,0.9835294117647047,0.01888241073790873,0.9408554225354994,38.888888888888886,1.0769230768932543,1.023529411764725,0.0,0.9963431767676199,0
165,198.63611111111112,1.2083333333333428,1.1555555555555372,1.180555555555543,1.023529411764725,0.01981001743645315,0.9870753572895736,36.111111111111114,0.9999999999723078,0.9788235294117597,0.0,0.9945240580505733,0
166,199.79166666666666,1.1555555555555372,1.2083333333333428,1.180555555555543,0.9788235294117597,0.02173925806322284,1.083203787619073,41.666666666666664,1.153846153814201,1.023529411764725,0.0,0.995424118458518,0
167,201.0,1.2083333333333428,1.1972222222222229,1.180555555555543,1.023529411764725,0.021055156266561022,1.049116991505515,41.666666666666664,1.153846153814201,1.014117647058835,0.0,0.9961283843230512,0
168,202.19722222222222,1.1972222222222229,1.1777777777777771,1.180555555555543,1.014117647058835,0.02066769164242105,1.029810760022535,44.44444444444444,1.2307692307351479,0.9976470588235395,0.0,0.9909375748675321,0
169,203.375,1.1777777777777771,1.2138888888889028,1.180555555555543,0.9976470588235395,0.01990703912689687,0.9919096649860093,38.888888888888886,1.0769230768932543,1.0282352941176698,0.0,0.9986570659538139,0
170,204.5888888888889,1.2138888888889028,1.1916666666666629,1.180555555555543,1.0282352941176698,0.02032898708835261,1.0129341005347194,38.888888888888886,1.0769230768932543,1.00941176470589,0.0,0.9960207883016668,0
171,205.78055555555557,1.1916666666666629,1.2111111111111086,1.180555555555543,1.00941176470589,0.020478008704336,1.0203594127694275,38.888888888888886,1.0769230768932543,1.0258823529411853,0.0,0.9985565305855479,0
172,206.99166666666667,1.2111111111111086,1.2083333333333144,1.180555555555543,1.0258823529411853,0.020695363804032432,1.031189583079968,36.111111111111114,0.9999999999723078,1.0235294117647007,0.0,0.9925191477186845,0
173,208.2,1.2083333333333144,1.1805555555555713,1.180555555555543,1.0235294117647007,0.021230434516589174,1.057850595189945,41.666666666666664,1.153846153814201,1.000000000000024,0.0,0.9950051814997753,0
174,209.38055555555556,1.1805555555555713,1.1777777777777771,1.180555555555543,1.000000000000024,0.02050675326785367,1.0217916704842605,41.666666666666664,1.153846153814201,0.9976470588235395,0.0,0.9986248640982358,0
175,210.55833333333334,1.1777777777777771,1.1583333333333314,1.180555555555543,0.9976470588235395,0.020398834236039515,1.0164143800690444,38.888888888888886,1.0769230768932543,0.9811764705882442,0.0,0.9977896885942348,0
176,211.71666666666667,1.1583333333333314,1.1611111111110972,1.180555555555543,0.9811764705882442,0.02137293573870649,1.0649510152267705,44.44444444444444,1.2307692307351479,0.9835294117647047,0.0,0.9912673441286757,0
177,212.87777777777777,1.1611111111110972,1.1972222222222229,1.180555555555543,0.9835294117647047,0.01967024006015893,0.9801106585411145,36.111111111111114,0.9999999999723078,1.014117647058835,0.0,0.9972233750367565,0
178,214.075,1.1972222222222229,1.1333333333333542,1.180555555555543,1.014117647058835,0.02021044615290762,1.0070275516594775,44.44444444444444,1.2307692307351479,0.9600000000000279,0.0,0.992820101039568,0
179,215.20833333333334,1.1333333333333542,1.174999999999983,1.180555555555543,0.9600000000000279,0.02006764955619368,0.9999124139684942,41.666666666666664,1.153846153814201,0.995294117647055,0.0,0.998590410105328,0
180,216.38333333333333,1.174999999999983,1.1666666666666856,1.180555555555543,0.995294117647055,0.01968267274847032,0.9807301431173598,38.888888888888886,1.0769230768932543,0.9882352941176736,0.0,0.999211927867191,0
181,217.55,1.1666666666666856,1.1333333333333258,1.180555555555543,0.9882352941176736,0.02036266016702598,1.0146119317768765,38.888888888888886,1.0769230768932543,0.9600000000000039,0.0,0.9963767070038336,0
182,218.68333333333334,1.1333333333333258,1.1611111111110972,1.180555555555543,0.9600000000000039,0.02081328021201183,1.037065013574158,41.666666666666664,1.153846153814201,0.9835294117647047,0.0,0.9984834123991991,0
183,219.84444444444443,1.1611111111110972,1.1333333333333542,1.180555555555543,0.9835294117647047,0.02040487617600368,1.016715432305267,41.666666666666664,1.153846153814201,0.9600000000000279,0.0,0.9974607564686646,0
184,220.9777777777778,1.1333333333333542,1.1583333333333314,1.180555555555543,0.9600000000000279,0.020274161701949324,1.010202311527155,41.666666666666664,1.153846153814201,0.9811764705882442,0.0,0.9983504348770406,0
185,222.13611111111112,1.1583333333333314,1.1416666666666515,1.180555555555543,0.9811764705882442,0.021003952238306076,1.0465656442062738,38.888888888888886,1.0769230768932543,0.9670588235294093,0.0,0.9962440078652266,0
186,223.27777777777777,1.1416666666666515,1.1555555555555657,1.180555555555543,0.9670588235294093,0.020148154557294625,1.0039237432356298,41.666666666666664,1.153846153814201,0.9788235294117837,0.0,0.9873249638498571,0
187,224.43333333333334,1.1555555555555657,1.1916666666666629,1.180555555555543,0.9788235294117837,0.020461015451871838,1.0195126885905426,38.888888888888886,1.0769230768932543,1.00941176470589,0.0,0.9961347485134565,0
188,225.625,1.1916666666666629,1.1583333333333314,1.180555555555543,1.00941176470589,0.021736459856454587,1.083064361141817,41.666666666666664,1.153846153814201,0.9811764705882442,0.0,0.9925866593548844,0
189,226.78333333333333,1.1583333333333314,1.194444444444457,1.180555555555543,0.9811764705882442,0.020594242581923557,1.0261510076843197,41.666666666666664,1.153846153814201,1.0117647058823744,0.0,0.9989285791329969,0
190,227.9777777777778,1.194444444444457,1.1722222222222172,1.180555555555543,1.0117647058823744,0.021216738293775468,1.0571681523768217,44.44444444444444,1.2307692307351479,0.9929411764705945,0.0,0.9922899297457628,0
191,229.15,1.1722222222222172,1.2055555555555486,1.180555555555543,0.9929411764705945,0.021051205715840685,1.0489201470920118,44.44444444444444,1.2307692307351479,1.0211764705882402,0.0,0.9924597144532682,0
192,230.35555555555555,1.2055555555555486,1.1694444444444514,1.180555555555543,1.0211764705882402,0.018765747074465634,0.9350424126456696,36.111111111111114,0.9999999999723078,0.9905882352941341,0.0,0.9940355158823773,0
193,231.525,1.1694444444444514,1.188888888888897,1.180555555555543,0.9905882352941341,0.020259739639701558,1.0094837022532495,41.666666666666664,1.153846153814201,1.0070588235294295,0.0,0.9946605588567398,0
194,232.7138888888889,1.188888888888897,1.186111111111103,1.180555555555543,1.0070588235294295,0.02021476287126773,1.0072426411378836,38.888888888888886,1.0769230768932543,1.004705882352945,0.0,0.9919421902612505,0
195,233.9,1.186111111111103,1.1722222222222172,1.180555555555543,1.004705882352945,0.01944332450058085,0.9688041184149591,38.888888888888886,1.0769230768932543,0.9929411764705945,0.0,0.9971887589949604,0
196,235.07222222222222,1.1722222222222172,1.1583333333333314,1.180555555555543,0.9929411764705945,0.01971652057461864,0.9824166815162282,36.111111111111114,0.9999999999723078,0.9811764705882442,0.0,0.9940365564034436,0
197,236.23055555555555,1.1583333333333314,1.1777777777777771,1.180555555555543,0.9811764705882442,0.0205553243993219,1.0242118282202015,38.888888888888886,1.0769230768932543,0.9976470588235395,0.0,0.9926432899817288,0
198,237.40833333333333,1.1777777777777771,1.1472222222222115,1.180555555555543,0.9976470588235395,0.021477008842849758,1.0701366742897158,41.666666666666664,1.153846153814201,0.9717647058823542,0.0,0.9923101121715846,0
199,238.55555555555554,1.1472222222222115,1.1777777777777771,1.180555555555543,0.9717647058823542,0.02005990997402033,0.9995267731752169,38.888888888888886,1.0769230768932543,0.9976470588235395,0.0,0.9986109555324294,0
200,239.73333333333332,1.1777777777777771,1.1666666666666856,1.180555555555543,0.9976470588235395,0.021222788412282825,1.057469612125984,41.666666666666664,1.153846153814201,0.9882352941176736,0.0,0.9926261421327198,0
201,240.9,1.1666666666666856,1.1999999999999886,1.180555555555543,0.9882352941176736,0.020547933024553353,1.0238435375857322,41.666666666666664,1.153846153814201,1.0164705882352953,0.0,0.9958768245579062,0
202,242.1,1.1999999999999886,1.2083333333333428,1.180555555555543,1.0164705882352953,0.01971691915038642,0.9824365413835732,36.111111111111114,0.9999999999723078,1.023529411764725,0.0,0.9963959645931312,0
203,243.30833333333334,1.2083333333333428,1.1944444444444287,1.180555555555543,1.023529411764725,0.02099335717060989,1.0460377229025564,38.888888888888886,1.0769230768932543,1.0117647058823505,0.0,0.9946144270402235,0
204,244.50277777777777,1.1944444444444287,1.2361111111111143,1.180555555555543,1.0117647058823505,0.020681668248670668,1.030507173524027,36.111111111111114,0.9999999999723078,1.0470588235294256,0.0,0.9938285231334074,0
205,245.73888888888888,1.2361111111111143,1.1833333333333371,1.180555555555543,1.0470588235294256,0.02040365217341582,1.0166544438283203,38.888888888888886,1.0769230768932543,1.0023529411764844,0.0,0.9969973176805098,0
206,246.92222222222222,1.1833333333333371,1.2277777777777885,1.180555555555543,1.0023529411764844,0.021460136440489105,1.069295971718812,44.44444444444444,1.2307692307351479,1.0400000000000202,0.0,0.9956192330833027,0
207,248.15,1.2277777777777885,1.1999999999999886,1.180555555555543,1.0400000000000202,0.02118626447212341,1.0556497307756456,41.666666666666664,1.153846153814201,1.0164705882352953,0.0,0.9962983301744446,0
208,249.35,1.1999999999999886,1.1833333333333371,1.180555555555543,1.0164705882352953,0.02247875959073904,1.1200509906480838,47.22222222222222,1.3076923076560947,1.0023529411764844,0.0,0.9896377589682563,0
209,250.53333333333333,1.1833333333333371,1.2361111111111143,1.180555555555543,1.0023529411764844,0.020198945688748877,1.006454517092249,38.888888888888886,1.0769230768932543,1.0470588235294256,0.0,0.9985357901182972,0
210,251.76944444444445,1.2361111111111143,1.186111111111103,1.180555555555543,1.0470588235294256,0.020976523099483998,1.0451989302652185,41.666666666666664,1.153846153814201,1.004705882352945,0.0,0.99476014374084,0
211,252.95555555555555,1.186111111111103,1.2249999999999943,1.180555555555543,1.004705882352945,0.019164221031888445,0.9548972070775988,38.888888888888886,1.0769230768932543,1.0376470588235358,0.0,0.99870074356516,0
212,254.18055555555554,1.2249999999999943,1.1861111111111313,1.180555555555543,1.0376470588235358,0.019858685915266537,0.9895003655596352,38.888888888888886,1.0769230768932543,1.004705882352969,0.0,0.9981820548463898,0
213,255.36666666666667,1.1861111111111313,1.2416666666666742,1.180555555555543,1.004705882352969,0.01990944109205207,0.9920293479000387,41.666666666666664,1.153846153814201,1.0517647058823707,0.0,0.9948841682232941,0
214,256.60833333333335,1.2416666666666742,1.2166666666666401,1.180555555555543,1.0517647058823707,0.020180972084377156,1.0055589448387714,38.888888888888886,1.0769230768932543,1.0305882352941063,0.0,0.9951844391905289,0
215,257.825,1.2166666666666401,1.23888888888888,1.180555555555543,1.0305882352941063,0.018752390310059097,0.9343768840543341,38.888888888888886,1.0769230768932543,1.049411764705886,0.0,0.989095657243471,0
216,259.06388888888887,1.23888888888888,1.2027777777777828,1.180555555555543,1.049411764705886,0.018726333453745674,0.9330785469459534,38.888888888888886,1.0769230768932543,1.0188235294117798,0.0,0.9891299443861299,0
217,260.26666666666665,1.2027777777777828,1.2361111111111427,1.180555555555543,1.0188235294117798,0.020228924047280633,1.0079482512120503,41.666666666666664,1.153846153814201,1.0470588235294498,0.0,0.9977863257626284,0
218,261.5027777777778,1.2361111111111427,1.1972222222221944,1.180555555555543,1.0470588235294498,0.020016917213924224,0.9973845694053888,38.888888888888886,1.0769230768932543,1.014117647058811,0.0,0.9945425327128039,0
219,262.7,1.1972222222221944,1.194444444444457,1.180555555555543,1.014117647058811,0.019948483069308957,0.993974695690557,41.666666666666664,1.153846153814201,1.0117647058823744,0.0,0.9962608689032074,0
220,263.89444444444445,1.194444444444457,1.2083333333333144,1.180555555555543,1.0117647058823744,0.019898547940098453,0.9914865739276726,36.111111111111114,0.9999999999723078,1.0235294117647007,0.0,0.9940619845018153,0
221,265.10277777777776,1.2083333333333144,1.1527777777777715,1.180555555555543,1.0235294117647007,0.02000855115504153,0.9969677131059317,41.666666666666664,1.153846153814201,0.9764705882352992,0.0,0.9931823086709293,0
222,266.25555555555553,1.1527777777777715,1.1972222222222513,1.180555555555543,0.9764705882352992,0.02074889186531499,1.0338567301627501,36.111111111111114,0.9999999999723078,1.014117647058859,0.0,0.9943513574381322,0
223,267.4527777777778,1.1972222222222513,1.1722222222222172,1.180555555555543,1.014117647058859,0.02092012486323799,1.0423887707400386,38.888888888888886,1.0769230768932543,0.9929411764705945,0.0,0.9929758797344641,0
224,268.625,1.1722222222222172,1.1833333333333371,1.180555555555543,0.9929411764705945,0.021140040874830218,1.0533465438168381,44.44444444444444,1.2307692307351479,1.0023529411764844,0.0,0.9956154342379049,0
225,269.80833333333334,1.1833333333333371,1.1833333333333371,1.180555555555543,1.0023529411764844,0.019504727811371376,0.9718636661983846,36.111111111111114,0.9999999999723078,1.0023529411764844,0.0,0.9982623910982782,0
226,270.9916666666667,1.1833333333333371,1.1638888888888914,1.180555555555543,1.0023529411764844,0.020181537966427975,1.0055871410899502,38.888888888888886,1.0769230768932543,0.9858823529411892,0.0,0.9956293579244728,0
227,272.15555555555557,1.1638888888888914,1.180555555555543,1.180555555555543,0.9858823529411892,0.020236136014920265,1.00830760251285,38.888888888888886,1.0769230768932543,1.0,0.0,0.9958992166828402,0
228,273.3361111111111,1.180555555555543,1.1555555555555657,1.180555555555543,1.0,0.020737174026197108,1.033272864435673,41.666666666666664,1.153846153814201,0.9788235294117837,0.0,0.9959520819407357,0
229,274.4916666666667,1.1555555555555657,1.169444444444423,1.180555555555543,0.9788235294117837,0.020824243865914357,1.0376113004528922,41.666666666666664,1.153846153814201,0.9905882352941101,0.0,0.9920847938019133,0
230,275.6611111111111,1.169444444444423,1.1972222222222513,1.180555555555543,0.9905882352941101,0.020312991727329848,1.0121370983742133,36.111111111111114,0.9999999999723078,1.014117647058859,0.0,0.9911966147482576,0
231,276.85833333333335,1.1972222222222513,1.2027777777777828,1.180555555555543,1.014117647058859,0.020009834251017464,0.9970316460339538,38.888888888888886,1.0769230768932543,1.0188235294117798,0.0,0.9971322887930301,0
232,278.06111111111113,1.2027777777777828,1.2055555555555202,1.180555555555543,1.0188235294117798,0.02008995535757362,1.001023846956242,33.333333333333336,0.923076923051361,1.0211764705882163,0.0,0.9930762894858325,0
233,279.26666666666665,1.2055555555555202,1.2333333333333485,1.180555555555543,1.0211764705882163,0.01939733989403553,0.9665128396676714,36.111111111111114,0.9999999999723078,1.0447058823529651,0.0,0.992850663957294,0
234,280.5,1.2333333333333485,1.2083333333333144,1.180555555555543,1.0447058823529651,0.019810649864994766,0.9871068693581863,38.888888888888886,1.0769230768932543,1.0235294117647007,0.0,0.9942638927425738,0
235,281.7083333333333,1.2083333333333144,1.2333333333333485,1.180555555555543,1.0235294117647007,0.019569222616004026,0.9750772540980575,36.111111111111114,0.9999999999723078,1.0447058823529651,0.0,0.9971980508152714,0
236,282.94166666666666,1.2333333333333485,1.1666666666666856,1.180555555555543,1.0447058823529651,0.01984716894361164,0.9889265084720471,38.888888888888886,1.0769230768932543,0.9882352941176736,0.0,0.9987552177869122,0
237,284.10833333333335,1.1666666666666856,1.1888888888888687,1.180555555555543,0.9882352941176736,0.02100343514891628,1.046539879151002,44.44444444444444,1.2307692307351479,1.0070588235294053,0.0,0.9925955247614038,0
238,285.2972222222222,1.1888888888888687,1.1916666666666629,1.180555555555543,1.0070588235294053,0.021257015521121556,1.059175049074455,41.666666666666664,1.153846153814201,1.00941176470589,0.0,0.9960397384117978,0
239,286.4888888888889,1.1916666666666629,1.1611111111110972,1.180555555555543,1.00941176470589,0.020617167719373285,1.027293300381017,38.888888888888886,1.0769230768932543,0.9835294117647047,0.0,0.9963068300189928,0
240,287.65,1.1611111111110972,1.1916666666666629,1.180555555555543,0.9835294117647047,0.020376892333162203,1.0153210790817175,38.888888888888886,1.0769230768932543,1.00941176470589,0.0,0.9988305397791424,0
241,288.84166666666664,1.1916666666666629,1.1666666666666856,1.180555555555543,1.00941176470589,0.01928684497331599,0.9610072002255161,38.888888888888886,1.0769230768932543,0.9882352941176736,0.0,0.995651648802784,0
242,290.0083333333333,1.1666666666666856,1.1916666666666629,1.180555555555543,0.9882352941176736,0.0215892783202219,1.0757307347111822,41.666666666666664,1.153846153814201,1.00941176470589,0.0,0.9942937817794177,0
243,291.2,1.1916666666666629,1.2111111111111086,1.180555555555543,1.00941176470589,0.019512275107103016,0.972239725919421,36.111111111111114,0.9999999999723078,1.0258823529411853,0.0,0.9949236576223954,0
244,292.4111111111111,1.2111111111111086,1.1916666666666629,1.180555555555543,1.0258823529411853,0.020483239619575648,1.0206200540104404,41.666666666666664,1.153846153814201,1.00941176470589,0.0,0.9949309528974365,0
245,293.60277777777776,1.1916666666666629,1.2083333333333712,1.180555555555543,1.00941176470589,0.02009125596294696,1.0010886523264393,38.888888888888886,1.0769230768932543,1.0235294117647489,0.0,0.997257021779834,0
246,294.81111111111113,1.2083333333333712,1.1722222222222172,1.180555555555543,1.0235294117647489,0.019059883351058623,0.9496983649304764,36.111111111111114,0.9999999999723078,0.9929411764705945,0.0,0.996216968989988,0
247,295.98333333333335,1.1722222222222172,1.2055555555555202,1.180555555555543,0.9929411764705945,0.02084343685214942,1.0385676309460987,41.666666666666664,1.153846153814201,1.0211764705882163,0.0,0.9968125913074302,0
248,297.18888888888887,1.2055555555555202,1.1833333333333371,1.180555555555543,1.0211764705882163,0.020272484836606243,1.010118758220705,36.111111111111114,0.9999999999723078,1.0023529411764844,0.0,0.9937074822753351,0
249,298.3722222222222,1.1833333333333371,1.1777777777778056,1.180555555555543,1.0023529411764844,0.02126823952791887,1.0597343085781488,41.666666666666664,1.153846153814201,0.9976470588235636,0.0,0.9971474398997813,0
250,299.55,1.1777777777778056,1.1861111111110745,1.180555555555543,0.9976470588235636,0.020240124309509576,1.008506327593196,38.888888888888886,1.0769230768932543,1.004705882352921,0.0,0.9934919606418191,0
251,300.7361111111111,1.1861111111110745,1.1916666666667197,1.180555555555543,1.004705882352921,0.02016083188393643,1.004555417425952,38.888888888888886,1.0769230768932543,1.0094117647059382,0.0,0.9956624120766888,0
252,301.9277777777778,1.1916666666667197,1.1749999999999545,1.180555555555543,1.0094117647059382,0.020179981411362756,1.0055095824935445,41.666666666666664,1.153846153814201,0.9952941176470309,0.0,0.995055215563481,0
253,303.10277777777776,1.1749999999999545,1.2083333333333712,1.180555555555543,0.9952941176470309,0.019033035329623017,0.9483606063729143,30.555555555555557,0.8461538461304142,1.0235294117647489,0.0,0.9929576446146051,0
254,304.31111111111113,1.2083333333333712,1.169444444444423,1.180555555555543,1.0235294117647489,0.020373117593901063,1.0151329948401557,41.666666666666664,1.153846153814201,0.9905882352941101,0.0,0.9966965846255518,0
255,305.48055555555555,1.169444444444423,1.1972222222222513,1.180555555555543,0.9905882352941101,0.02092140610147177,1.0424526111021906,41.666666666666664,1.153846153814201,1.014117647058859,0.0,0.9969875720115091,0
256,306.6777777777778,1.1972222222222513,1.1555555555555088,1.180555555555543,1.014117647058859,0.022453375037041763,1.1187861524170852,47.22222222222222,1.3076923076560947,0.9788235294117356,0.0,0.9929820850716845,0
257,307.8333333333333,1.1555555555555088,1.1833333333333371,1.180555555555543,0.9788235294117356,0.02067085977663369,1.0299686189047859,41.666666666666664,1.153846153814201,1.0023529411764844,0.0,0.9924933556872578,0
258,309.01666666666665,1.1833333333333371,1.180555555555543,1.180555555555543,1.0023529411764844,0.01940742227991317,0.9670152155325301,38.888888888888886,1.0769230768932543,1.0,0.0,0.9964804155439002,0
259,310.1972222222222,1.180555555555543,1.1527777777778283,1.180555555555543,1.0,0.021174964820711847,1.0550867021215773,41.666666666666664,1.153846153814201,0.9764705882353474,0.0,0.9947322000050195,0
260,311.35,1.1527777777778283,1.1833333333333371,1.180555555555543,0.9764705882353474,0.019498722495260492,0.9715644388218918,38.888888888888886,1.0769230768932543,1.0023529411764844,0.0,0.9990031273917248,0
261,312.53333333333336,1.1833333333333371,1.158333333333303,1.180555555555543,1.0023529411764844,0.020426713700124156,1.017803532403749,38.888888888888886,1.0769230768932543,0.9811764705882201,0.0,0.9932947516275942,0
262,313.69166666666666,1.158333333333303,1.1722222222222172,1.180555555555543,0.9811764705882201,0.0203960792968224,1.016277109487594,41.666666666666664,1.153846153814201,0.9929411764705945,0.0,0.9960714585766937,0
263,314.8638888888889,1.1722222222222172,1.1750000000000114,1.180555555555543,0.9929411764705945,0.01958035158741859,0.9756317782659707,33.333333333333336,0.923076923051361,0.9952941176470791,0.0,0.9927001209189055,0
264,316.0388888888889,1.1750000000000114,1.1750000000000114,1.180555555555543,0.9952941176470791,0.021610770966523633,1.0768016505544133,41.666666666666664,1.153846153814201,0.9952941176470791,0.0,0.9913292758669394,0
265,317.2138888888889,1.1750000000000114,1.2138888888889028,1.180555555555543,0.9952941176470791,0.01988760602291213,0.9909413701260722,41.666666666666664,1.153846153814201,1.0282352941176698,0.0,0.9985677796215,0
266,318.4277777777778,1.2138888888889028,1.1611111111110972,1.180555555555543,1.0282352941176698,0.02016325890414286,1.0046763487600658,41.666666666666664,1.153846153814201,0.9835294117647047,0.0,0.9924816859917424,0
267,319.5888888888889,1.1611111111110972,1.1833333333333371,1.180555555555543,0.9835294117647047,0.02061900781115088,1.0273849867843552,41.666666666666664,1.153846153814201,1.0023529411764844,0.0,0.9928889656612254,0
268,320.77222222222224,1.1833333333333371,1.1611111111110972,1.180555555555543,1.0023529411764844,0.020297164016885357,1.0113484497527676,38.888888888888886,1.0769230768932543,0.9835294117647047,0.0,0.9932902026185308,0
269,321.93333333333334,1.1611111111110972,1.1499999999999773,1.180555555555543,0.9835294117647047,0.02064667421658687,1.0287635230283665,41.666666666666664,1.153846153814201,0.9741176470588147,0.0,0.9922294441207927,0
270,323.0833333333333,1.1499999999999773,1.1583333333333599,1.180555555555543,0.9741176470588147,0.020373267532878474,1.0151404658618333,41.666666666666664,1.153846153814201,0.9811764705882683,0.0,0.9938574654840469,0
271,324.2416666666667,1.1583333333333599,1.1861111111111313,1.180555555555543,0.9811764705882683,0.019251913084505842,0.9592666461478287,36.111111111111114,0.9999999999723078,1.004705882352969,0.0,0.9919333500051135,0
272,325.4277777777778,1.1861111111111313,1.1527777777777715,1.180555555555543,1.004705882352969,0.021299981912119077,1.0613159389490532,44.44444444444444,1.2307692307351479,0.9764705882352992,0.0,0.992820982582373,0
273,326.5805555555556,1.1527777777777715,1.1777777777777487,1.180555555555543,0.9764705882352992,0.020492340468944586,1.0210735227754881,38.888888888888886,1.0769230768932543,0.9976470588235155,0.0,0.998396913783967,0
274,327.7583333333333,1.1777777777777487,1.1583333333333599,1.180555555555543,0.9976470588235155,0.021744770308937723,1.0834784467366603,47.22222222222222,1.3076923076560947,0.9811764705882683,0.0,0.9931810036287643,0
275,328.9166666666667,1.1583333333333599,1.180555555555543,1.180555555555543,0.9811764705882683,0.02055386253573241,1.0241389878236935,38.888888888888886,1.0769230768932543,1.0,0.0,0.998249453207694,0
276,330.09722222222223,1.180555555555543,1.1722222222222172,1.180555555555543,1.0,0.019865611644055127,0.9898454544138181,41.666666666666664,1.153846153814201,0.9929411764705945,0.0,0.9991931249477792,0
277,331.26944444444445,1.1722222222222172,1.1722222222222172,1.180555555555543,0.9929411764705945,0.02188371922242158,1.0904018656009817,41.666666666666664,1.153846153814201,0.9929411764705945,0.0,0.9950131280896326,0
278,332.44166666666666,1.1722222222222172,1.1861111111111313,1.180555555555543,0.9929411764705945,0.02028931959747404,1.010957585225869,36.111111111111114,0.9999999999723078,1.004705882352969,0.0,0.99512188551268,0
279,333.6277777777778,1.1861111111111313,1.1555555555555657,1.180555555555543,1.004705882352969,0.020300115024355705,1.0114954898430908,44.44444444444444,1.2307692307351479,0.9788235294117837,0.0,0.9885616235435652,0
280,334.78333333333336,1.1555555555555657,1.1916666666666629,1.180555555555543,0.9788235294117837,0.01893022659743078,0.9432379472744724,33.333333333333336,0.923076923051361,1.00941176470589,0.0,0.9971446983446266,0
281,335.975,1.1916666666666629,1.1333333333333258,1.180555555555543,1.00941176470589,0.020289609998230693,1.0109720550480965,36.111111111111114,0.9999999999723078,0.9600000000000039,0.0,0.9940499316999412,0
282,337.10833333333335,1.1333333333333258,1.1527777777777715,1.180555555555543,0.9600000000000039,0.02081992720868714,1.0373962140205597,38.888888888888886,1.0769230768932543,0.9764705882352992,0.0,0.9981592085055861,0
283,338.2611111111111,1.1527777777777715,1.1555555555555657,1.180555555555543,0.9764705882352992,0.020080578968823037,1.0005566488679134,38.888888888888886,1.0769230768932543,0.9788235294117837,0.0,0.9953280123709034,0
284,339.4166666666667,1.1555555555555657,1.1416666666666515,1.180555555555543,0.9788235294117837,0.02080313992054584,1.0365597524428174,41.666666666666664,1.153846153814201,0.9670588235294093,0.0,0.9935281247373065,0
285,340.55833333333334,1.1416666666666515,1.1861111111111313,1.180555555555543,0.9670588235294093,0.020133979773410682,1.0032174551209612,38.888888888888886,1.0769230768932543,1.004705882352969,0.0,0.9984522449853341,0
286,341.74444444444447,1.1861111111111313,1.1499999999999773,1.180555555555543,1.004705882352969,0.02074609854788295,1.0337175473068492,41.666666666666664,1.153846153814201,0.9741176470588147,0.0,0.9922337834078574,0
287,342.89444444444445,1.1499999999999773,1.1999999999999886,1.180555555555543,0.9741176470588147,0.021347763496258818,1.0636967558457515,41.666666666666664,1.153846153814201,1.0164705882352953,0.0,0.9962952824974437,0
288,344.09444444444443,1.1999999999999886,1.1694444444444798,1.180555555555543,1.0164705882352953,0.019764642947949336,0.9848144789437868,38.888888888888886,1.0769230768932543,0.9905882352941582,0.0,0.99870417457612,0
289,345.2638888888889,1.1694444444444798,1.1555555555555088,1.180555555555543,0.9905882352941582,0.019591056560158863,0.9761651758172992,41.666666666666664,1.153846153814201,0.9788235294117356,0.0,0.9920024815257613,0
290,346.4194444444444,1.1555555555555088,1.1722222222222172,1.180555555555543,0.9788235294117356,0.020048688536769242,0.9989676417045126,36.111111111111114,0.9999999999723078,0.9929411764705945,0.0,0.9982750366437354,0
291,347.59166666666664,1.1722222222222172,1.1666666666666856,1.180555555555543,0.9929411764705945,0.019408035192539586,0.9670457551800417,38.888888888888886,1.0769230768932543,0.9882352941176736,0.0,0.9926931096586653,0
292,348.7583333333333,1.1666666666666856,1.1611111111110972,1.180555555555543,0.9882352941176736,0.021611480138210678,1.0768369865100031,41.666666666666664,1.153846153814201,0.9835294117647047,0.0,0.9942077377519358,0
293,349.9194444444444,1.1611111111110972,1.1861111111111313,1.180555555555543,0.9835294117647047,0.020122426531347434,1.002641790784773,36.111111111111114,0.9999999999723078,1.004705882352969,0.0,0.9957353172430158,0
294,351.10555555555555,1.1861111111111313,1.1750000000000114,1.180555555555543,1.004705882352969,0.020541419082084005,1.0235189668421212,41.666666666666664,1.153846153814201,0.9952941176470791,0.0,0.9948108568153482,0
295,352.28055555555557,1.1750000000000114,1.1750000000000114,1.180555555555543,0.9952941176470791,0.019881800159496033,0.9906520808952979,36.111111111111114,0.9999999999723078,0.9952941176470791,0.0,0.9953636339079771,0
296,353.4555555555556,1.1750000000000114,1.1638888888888914,1.180555555555543,0.9952941176470791,0.020033210128253067,0.9981963977787872,38.888888888888886,1.0769230768932543,0.9858823529411892,0.0,0.9931240902972727,0
297,354.61944444444447,1.1638888888888914,1.147222222222183,1.180555555555543,0.9858823529411892,0.021235138749740166,1.0580849933994965,44.44444444444444,1.2307692307351479,0.9717647058823302,0.0,0.9926993713319687,0
298,355.76666666666665,1.147222222222183,1.180555555555543,1.180555555555543,0.9717647058823302,0.019514324920222197,0.9723418621251807,36.111111111111114,0.9999999999723078,1.0,0.0,0.9909812010566305,0
299,356.9472222222222,1.180555555555543,1.1388888888889142,1.180555555555543,1.0,0.021008705050022662,1.046802462943982,41.666666666666664,1.153846153814201,0.9647058823529729,0.0,0.993847673047767,0
300,358.0861111111111,1.1388888888889142,1.1555555555555657,1.180555555555543,0.9647058823529729,0.02104775147717584,1.0487480324598464,41.666666666666664,1.153846153814201,0.9788235294117837,0.0,0.9952551297948523,0
301,359.2416666666667,1.1555555555555657,1.1499999999999773,1.180555555555543,0.9788235294117837,0.020186740606577817,1.0058463734657535,41.666666666666664,1.153846153814201,0.9741176470588147,0.0,0.9991314759106416,0
302,360.39166666666665,1.1499999999999773,1.1333333333333258,1.180555555555543,0.9741176470588147,0.0207821700099974,1.0355148829966736,38.888888888888886,1.0769230768932543,0.9600000000000039,0.0,0.9924578817398182,0
303,361.525,1.1333333333333258,1.1750000000000114,1.180555555555543,0.9600000000000039,0.019833231728727023,0.9882320577273174,36.111111111111114,0.9999999999723078,0.9952941176470791,0.0,0.9954642671728211,0
304,362.7,1.1750000000000114,1.1611111111110972,1.180555555555543,0.9952941176470791,0.01941012483367652,0.9671498758996959,41.666666666666664,1.153846153814201,0.9835294117647047,0.0,0.9935048612483909,0
305,363.8611111111111,1.1611111111110972,1.2000000000000455,1.180555555555543,0.9835294117647047,0.02050078559253233,1.0214943186384635,38.888888888888886,1.0769230768932543,1.0164705882353435,0.0,0.993983606628825,0
306,365.06111111111113,1.2000000000000455,1.1916666666666629,1.180555555555543,1.0164705882353435,0.02031036593873669,1.0120062629914544,38.888888888888886,1.0769230768932543,1.00941176470589,0.0,0.9972844063452158,0
307,366.2527777777778,1.1916666666666629,1.1750000000000114,1.180555555555543,1.00941176470589,0.020262137385482056,1.0096031749281507,38.888888888888886,1.0769230768932543,0.9952941176470791,0.0,0.9965201679783018,0
308,367.4277777777778,1.1750000000000114,1.1916666666666629,1.180555555555543,0.9952941176470791,0.02138956931246958,1.065779817665631,38.888888888888886,1.0769230768932543,1.00941176470589,0.0,0.9954403277811861,0
309,368.61944444444447,1.1916666666666629,1.136111111111063,1.180555555555543,1.00941176470589,0.021399839702494514,1.0662915612284969,41.666666666666664,1.153846153814201,0.9623529411764402,0.0,0.9949178729156054,0
310,369.75555555555553,1.136111111111063,1.1666666666666856,1.180555555555543,0.9623529411764402,0.019561329810139055,0.9746839786153794,36.111111111111114,0.9999999999723078,0.9882352941176736,0.0,0.9988954310346673,0
311,370.9222222222222,1.1666666666666856,1.1333333333333258,1.180555555555543,0.9882352941176736,0.020256362894101813,1.00931544887437,38.888888888888886,1.0769230768932543,0.9600000000000039,0.0,0.9988825082776922,0
312,372.05555555555554,1.1333333333333258,1.1583333333333599,1.180555555555543,0.9600000000000039,0.021072816345028215,1.0499969416781327,41.666666666666664,1.153846153814201,0.9811764705882683,0.0,0.9941690986536118,0
313,373.2138888888889,1.1583333333333599,1.1777777777777487,1.180555555555543,0.9811764705882683,0.01993423259118468,0.993264635952791,38.888888888888886,1.0769230768932543,0.9976470588235155,0.0,0.9976606701266507,0
314,374.39166666666665,1.1777777777777487,1.1694444444444798,1.180555555555543,0.9976470588235155,0.020270171267726424,1.0100034798351112,38.888888888888886,1.0769230768932543,0.9905882352941582,0.0,0.9980823528838879,0
315,375.56111111111113,1.1694444444444798,1.2111111111111086,1.180555555555543,0.9905882352941582,0.021783634930151893,1.085414957393148,41.666666666666664,1.153846153814201,1.0258823529411853,0.0,0.9949750756146643,0
316,376.77222222222224,1.2111111111111086,1.1888888888888687,1.180555555555543,1.0258823529411853,0.02029258957926846,1.0111205188758978,38.888888888888886,1.0769230768932543,1.0070588235294053,0.0,0.9984712713932651,0
317,377.9611111111111,1.1888888888888687,1.2138888888889028,1.180555555555543,1.0070588235294053,0.02226090970853147,1.109196166768937,44.44444444444444,1.2307692307351479,1.0282352941176698,0.0,0.9900887449785194,0
318,379.175,1.2138888888889028,1.2194444444444343,1.180555555555543,1.0282352941176698,0.019830941095903824,0.9881179221784906,38.888888888888886,1.0769230768932543,1.0329411764705907,0.0,0.9948783098998938,0
319,380.39444444444445,1.2194444444444343,1.1583333333333599,1.180555555555543,1.0329411764705907,0.022487488338513235,1.1204859186765697,41.666666666666664,1.153846153814201,0.9811764705882683,0.0,0.9926913237866231,0
320,381.5527777777778,1.1583333333333599,1.1972222222221944,1.180555555555543,0.9811764705882683,0.019293379352012974,0.9613327892467111,38.888888888888886,1.0769230768932543,1.014117647058811,0.0,0.9909838021038049,0
321,382.75,1.1972222222221944,1.2250000000000227,1.180555555555543,1.014117647058811,0.02013959651946467,1.0034973211854827,38.888888888888886,1.0769230768932543,1.0376470588235598,0.0,0.9931962194459614,0
322,383.975,1.2250000000000227,1.1944444444444002,1.180555555555543,1.0376470588235598,0.02021953395666867,1.0074803703999553,38.888888888888886,1.0769230768932543,1.0117647058823263,0.0,0.9956689253759844,0
323,385.1694444444444,1.1944444444444002,1.2305555555555543,1.180555555555543,1.0117647058823263,0.02003675529191922,0.9983730429384214,36.111111111111114,0.9999999999723078,1.0423529411764807,0.0,0.9941238264975998,0
324,386.4,1.2305555555555543,1.1805555555555998,1.180555555555543,1.0423529411764807,0.020631756676418936,1.028020225535652,38.888888888888886,1.0769230768932543,1.0000000000000482,0.0,0.9959261954649943,0
325,387.5805555555556,1.1805555555555998,1.2222222222222285,1.180555555555543,1.0000000000000482,0.021783665588062932,1.0854164849873862,44.44444444444444,1.2307692307351479,1.0352941176470754,0.0,0.993560653488127,0
326,388.8027777777778,1.2222222222222285,1.2222222222221717,1.180555555555543,1.0352941176470754,0.02113738755122068,1.0532143364445685,36.111111111111114,0.9999999999723078,1.0352941176470272,0.0,0.9936401659590819,0
327,390.025,1.2222222222221717,1.1750000000000114,1.180555555555543,1.0352941176470272,0.02197150919049223,1.0947761835125005,44.44444444444444,1.2307692307351479,0.9952941176470791,0.0,0.9909339448438064,0
328,391.2,1.1750000000000114,1.2416666666666742,1.180555555555543,0.9952941176470791,0.02107355689528531,1.0500338411362962,38.888888888888886,1.0769230768932543,1.0517647058823707,0.0,0.9971924195789084,0
329,392.44166666666666,1.2416666666666742,1.1888888888888687,1.180555555555543,1.0517647058823707,0.021655225975082563,1.0790167138978646,41.666666666666664,1.153846153814201,1.0070588235294053,0.0,0.9928960316234472,0
330,393.63055555555553,1.1888888888888687,1.1972222222222513,1.180555555555543,1.0070588235294053,0.01970345187753681,0.9817655064790161,38.888888888888886,1.0769230768932543,1.014117647058859,0.0,0.9984079076059835,0
331,394.8277777777778,1.1972222222222513,1.158333333333303,1.180555555555543,1.014117647058859,0.019541702634656204,0.9737060137390501,38.888888888888886,1.0769230768932543,0.9811764705882201,0.0,0.996986550748469,0
332,395.9861111111111,1.158333333333303,1.1694444444444798,1.180555555555543,0.9811764705882201,0.020112230711203622,1.0021337628214662,41.666666666666664,1.153846153814201,0.9905882352941582,0.0,0.9927961281378797,0
333,397.15555555555557,1.1694444444444798,1.1777777777777487,1.180555555555543,0.9905882352941582,0.021024291415359532,1.0475790860430323,41.666666666666664,1.153846153814201,0.9976470588235155,0.0,0.9939627510088067,0
334,398.3333333333333,1.1777777777777487,1.1583333333333599,1.180555555555543,0.9976470588235155,0.021843527603369044,1.0883992345147855,41.666666666666664,1.153846153814201,0.9811764705882683,0.0,0.9959821995517458,0
335,399.4916666666667,1.1583333333333599,1.1916666666666629,1.180555555555543,0.9811764705882683,0.02137049151175983,1.064829226531005,44.44444444444444,1.2307692307351479,1.00941176470589,0.0,0.9970253418448138,0
336,400.68333333333334,1.1916666666666629,1.1833333333333371,1.180555555555543,1.00941176470589,0.019371679587603365,0.9652342614826225,38.888888888888886,1.0769230768932543,1.0023529411764844,0.0,0.9980314687313936,0
337,401.8666666666667,1.1833333333333371,1.2222222222222285,1.180555555555543,1.0023529411764844,0.021171291174962414,1.0549036550746826,41.666666666666664,1.153846153814201,1.0352941176470754,0.0,0.9945271237451478,0
338,403.0888888888889,1.2222222222222285,1.2111111111111086,1.180555555555543,1.0352941176470754,0.019727287826787423,0.9829531822697294,38.888888888888886,1.0769230768932543,1.0258823529411853,0.0,0.991803414974562,0
339,404.3,1.2111111111111086,1.2444444444444116,1.180555555555543,1.0258823529411853,0.02077385243686706,1.0351004426007602,41.666666666666664,1.153846153814201,1.054117647058807,0.0,0.9963088007117922,0
340,405.5444444444444,1.2444444444444116,1.216666666666697,1.180555555555543,1.054117647058807,0.018666936682656062,0.9301189791801401,33.333333333333336,0.923076923051361,1.0305882352941544,0.0,0.9963495275612231,0
341,406.7611111111111,1.216666666666697,1.2027777777777828,1.180555555555543,1.0305882352941544,0.019753440018688884,0.9842562696722442,38.888888888888886,1.0769230768932543,1.0188235294117798,0.0,0.9931048503086541,0
342,407.9638888888889,1.2027777777777828,1.2111111111111086,1.180555555555543,1.0188235294117798,0.01991833135492887,0.9924723237547376,38.888888888888886,1.0769230768932543,1.0258823529411853,0.0,0.9954457778688794,0
343,409.175,1.2111111111111086,1.2083333333333144,1.180555555555543,1.0258823529411853,0.01914210613277448,0.9537952861926545,33.333333333333336,0.923076923051361,1.0235294117647007,0.0,0.9940873450461324,0
344,410.3833333333333,1.2083333333333144,1.1638888888888914,1.180555555555543,1.0235294117647007,0.020448308469682673,1.0188795367508394,41.666666666666664,1.153846153814201,0.9858823529411892,0.0,0.9932108133735276,0
345,411.5472222222222,1.1638888888888914,1.1777777777778056,1.180555555555543,0.9858823529411892,0.02076355837392846,1.034587519485691,38.888888888888886,1.0769230768932543,0.9976470588235636,0.0,0.996555958500273,0
346,412.725,1.1777777777778056,1.169444444444423,1.180555555555543,0.9976470588235636,0.021325850115593667,1.0626048760370204,44.44444444444444,1.2307692307351479,0.9905882352941101,0.0,0.9939401327005029,0
347,413.89444444444445,1.169444444444423,1.2027777777777828,1.180555555555543,0.9905882352941101,0.018431962306242652,0.9184108917291233,36.111111111111114,0.9999999999723078,1.0188235294117798,0.0,0.9965365757895137,0
348,415.09722222222223,1.2027777777777828,1.2194444444444343,1.180555555555543,1.0188235294117798,0.02013507320176054,1.0032719374646828,38.888888888888886,1.0769230768932543,1.0329411764705907,0.0,0.9984698927715391,0
349,416.31666666666666,1.2194444444444343,1.194444444444457,1.180555555555543,1.0329411764705907,0.019951023968192396,0.9941013012668142,38.888888888888886,1.0769230768932543,1.0117647058823744,0.0,0.9975440256385814,0
350,417.5111111111111,1.194444444444457,1.2555555555555316,1.180555555555543,1.0117647058823744,0.019399175622722017,0.9666043086709126,36.111111111111114,0.9999999999723078,1.063529411764697,0.0,0.997948659353447,0
351,418.76666666666665,1.2555555555555316,1.1833333333333371,1.180555555555543,1.063529411764697,0.01902259559725557,0.9478404249753128,38.888888888888886,1.0769230768932543,1.0023529411764844,0.0,0.9926993723328459,0
352,419.95,1.1833333333333371,1.227777777777817,1.180555555555543,1.0023529411764844,0.020461497992802176,1.0195367321969022,38.888888888888886,1.0769230768932543,1.0400000000000442,0.0,0.9926333652920366,0
353,421.1777777777778,1.227777777777817,1.1944444444444002,1.180555555555543,1.0400000000000442,0.019783113038086043,0.9857347896340396,36.111111111111114,0.9999999999723078,1.0117647058823263,0.0,0.9977137009968273,0
354,422.3722222222222,1.1944444444444002,1.205555555555577,1.180555555555543,1.0117647058823263,0.020891343944241785,1.0409547015378064,41.666666666666664,1.153846153814201,1.0211764705882644,0.0,0.9955652478273376,0
355,423.5777777777778,1.205555555555577,1.2222222222222285,1.180555555555543,1.0211764705882644,0.019981913459967048,0.995640434497149,36.111111111111114,0.9999999999723078,1.0352941176470754,0.0,0.991514767381059,0
356,424.8,1.2222222222222285,1.194444444444457,1.180555555555543,1.0352941176470754,0.02054613219046213,1.02375380727834,41.666666666666664,1.153846153814201,1.0117647058823744,0.0,0.9971925587348793,0
357,425.99444444444447,1.194444444444457,1.1999999999999886,1.180555555555543,1.0117647058823744,0.02138234584250242,1.065419893237418,44.44444444444444,1.2307692307351479,1.0164705882352953,0.0,0.9929413075640656,0
358,427.19444444444446,1.1999999999999886,1.2333333333333485,1.180555555555543,1.0164705882352953,0.01955967124174254,0.9746013369923807,36.111111111111114,0.9999999999723078,1.0447058823529651,0.0,0.9902787268758182,0
359,428.4277777777778,1.2333333333333485,1.180555555555543,1.180555555555543,1.0447058823529651,0.021375406903917146,1.0650741461776165,44.44444444444444,1.2307692307351479,1.0,0.0,0.9946748024625878,0
360,429.60833333333335,1.180555555555543,1.1888888888888687,1.180555555555543,1.0,0.020157903469156347,1.0044095030634523,41.666666666666664,1.153846153814201,1.0070588235294053,0.0,0.9927981717589193,0
361,430.7972222222222,1.1888888888888687,1.1777777777778056,1.180555555555543,1.0070588235294053,0.02045031329995707,1.018979431592717,38.888888888888886,1.0769230768932543,0.9976470588235636,0.0,0.9950349448283831,0
362,431.975,1.1777777777778056,1.1722222222222172,1.180555555555543,0.9976470588235636,0.02004966827930935,0.9990164594161037,44.44444444444444,1.2307692307351479,0.9929411764705945,0.0,0.9913791240908996,0
363,433.14722222222224,1.1722222222222172,1.1944444444444002,1.180555555555543,0.9929411764705945,0.019945247084623616,0.9938134560172598,36.111111111111114,0.9999999999723078,1.0117647058823263,0.0,0.9970148236938856,0
364,434.34166666666664,1.1944444444444002,1.150000000000034,1.180555555555543,1.0117647058823263,0.020381481267337985,1.0155497322798115,41.666666666666664,1.153846153814201,0.9741176470588628,0.0,0.997111149580848,0
365,435.4916666666667,1.150000000000034,1.1999999999999886,1.180555555555543,0.9741176470588628,0.019771761058901504,0.985169153639752,38.888888888888886,1.0769230768932543,1.0164705882352953,0.0,0.998491552681418,0
366,436.69166666666666,1.1999999999999886,1.1611111111110972,1.180555555555543,1.0164705882352953,0.020536684425173275,1.0232830527054075,41.666666666666664,1.153846153814201,0.9835294117647047,0.0,0.9983010095937881,0
367,437.85277777777776,1.1611111111110972,1.194444444444457,1.180555555555543,0.9835294117647047,0.02016872983509504,1.0049489492835966,38.888888888888886,1.0769230768932543,1.0117647058823744,0.0,0.9954994570318705,0
368,439.0472222222222,1.194444444444457,1.2111111111111086,1.180555555555543,1.0117647058823744,0.020791252045922762,1.035967414342731,36.111111111111114,0.9999999999723078,1.0258823529411853,0.0,0.9962409008517555,0
369,440.2583333333333,1.2111111111111086,1.1611111111110972,1.180555555555543,1.0258823529411853,0.020615642033811436,1.0272172799218777,41.666666666666664,1.153846153814201,0.9835294117647047,0.0,0.9925157662915906,0
370,441.4194444444444,1.1611111111110972,1.2027777777777828,1.180555555555543,0.9835294117647047,0.021615023807520565,1.0770135572102255,38.888888888888886,1.0769230768932543,1.0188235294117798,0.0,0.9922106343063911,0
371,442.6222222222222,1.2027777777777828,1.1666666666666856,1.180555555555543,1.0188235294117798,0.02099737165287349,1.046237752838289,41.666666666666664,1.153846153814201,0.9882352941176736,0.0,0.9949419548953498,0
372,443.7888888888889,1.1666666666666856,1.2027777777777828,1.180555555555543,0.9882352941176736,0.021509420085158083,1.0717516319082194,44.44444444444444,1.2307692307351479,1.0188235294117798,0.0,0.9909206994800581,0
373,444.9916666666667,1.2027777777777828,1.180555555555543,1.180555555555543,1.0188235294117798,0.019370004586513414,0.9651508010664654,36.111111111111114,0.9999999999723078,1.0,0.0,0.9985997643150368,0
374,446.1722222222222,1.180555555555543,1.194444444444457,1.180555555555543,1.0,0.020187329828982033,1.0058757326986278,38.888888888888886,1.0769230768932543,1.0117647058823744,0.0,0.9952341394420225,0
375,447.3666666666667,1.194444444444457,1.1833333333333371,1.180555555555543,1.0117647058823744,0.020027944504435572,0.9979340271106302,38.888888888888886,1.0769230768932543,1.0023529411764844,0.0,0.9983751628394353,0
376,448.55,1.1833333333333371,1.1416666666666515,1.180555555555543,1.0023529411764844,0.020522413942723295,1.0225719962104705,38.888888888888886,1.0769230768932543,0.9670588235294093,0.0,0.9968641857494396,0
377,449.69166666666666,1.1416666666666515,1.1833333333333371,1.180555555555543,0.9670588235294093,0.02074076514516114,1.0334517994136894,41.666666666666664,1.153846153814201,1.0023529411764844,0.0,0.9972178338080766,0
378,450.875,1.1833333333333371,1.1611111111110972,1.180555555555543,1.0023529411764844,0.018851467800307355,0.9393136262555899,36.111111111111114,0.9999999999723078,0.9835294117647047,0.0,0.9944377891302052,0
379,452.0361111111111,1.1611111111110972,1.1833333333333371,1.180555555555543,0.9835294117647047,0.02083885104161903,1.038339133390139,44.44444444444444,1.2307692307351479,1.0023529411764844,0.0,0.9961583862691065,0
380,453.21944444444443,1.1833333333333371,1.1722222222222172,1.180555555555543,1.0023529411764844,0.020312762096679555,1.0121256565490402,36.111111111111114,0.9999999999723078,0.9929411764705945,0.0,0.9937633429611694,0
381,454.39166666666665,1.1722222222222172,1.1694444444444798,1.180555555555543,0.9929411764705945,0.021263545247230075,1.0595004062707443,41.666666666666664,1.153846153814201,0.9905882352941582,0.0,0.9911650916441697,0
382,455.56111111111113,1.1694444444444798,1.1666666666666288,1.180555555555543,0.9905882352941582,0.0192956852202089,0.9614476839296995,36.111111111111114,0.9999999999723078,0.9882352941176256,0.0,0.9916617604317282,0
383,456.72777777777776,1.1666666666666288,1.150000000000034,1.180555555555543,0.9882352941176256,0.01928237387127671,0.9607844182589146,36.111111111111114,0.9999999999723078,0.9741176470588628,0.0,0.9918432764902738,0
384,457.8777777777778,1.150000000000034,1.1388888888888573,1.180555555555543,0.9741176470588628,0.020599011591523275,1.0263886335152743,41.666666666666664,1.153846153814201,0.9647058823529248,0.0,0.9952335251787937,0
385,459.01666666666665,1.1388888888888573,1.1999999999999886,1.180555555555543,0.9647058823529248,0.020275405074439083,1.0102642651497862,38.888888888888886,1.0769230768932543,1.0164705882352953,0.0,0.9944654048108437,0
386,460.21666666666664,1.1999999999999886,1.161111111111154,1.180555555555543,1.0164705882352953,0.020056631083786837,0.9993633956436664,38.888888888888886,1.0769230768932543,0.9835294117647528,0.0,0.9970455165793897,0
387,461.3777777777778,1.161111111111154,1.1944444444444002,1.180555555555543,0.9835294117647528,0.019966406444455284,0.9948677651683173,41.666666666666664,1.153846153814201,1.0117647058823263,0.0,0.995959713462157,0
388,462.5722222222222,1.1944444444444002,1.1972222222222513,1.180555555555543,1.0117647058823263,0.020486723129637785,1.0207936271509102,36.111111111111114,0.9999999999723078,1.014117647058859,0.0,0.9944939826219821,0
389,463.76944444444445,1.1972222222222513,1.1972222222221944,1.180555555555543,1.014117647058859,0.0209961408418495,1.046176425116839,41.666666666666664,1.153846153814201,1.014117647058811,0.0,0.9985759036471693,0
390,464.96666666666664,1.1972222222221944,1.1861111111111313,1.180555555555543,1.014117647058811,0.01990519499083355,0.991817777067716,36.111111111111114,0.9999999999723078,1.004705882352969,0.0,0.9983799430837887,0
391,466.15277777777777,1.1861111111111313,1.1916666666666629,1.180555555555543,1.004705882352969,0.0213942350059842,1.0660122955575724,44.44444444444444,1.2307692307351479,1.00941176470589,0.0,0.9928040155830421,0
392,467.34444444444443,1.1916666666666629,1.2083333333333712,1.180555555555543,1.00941176470589,0.020016027470992195,0.9973402361116224,38.888888888888886,1.0769230768932543,1.0235294117647489,0.0,0.995453145874946,0
393,468.5527777777778,1.2083333333333712,1.1388888888888573,1.180555555555543,1.0235294117647489,0.01959801879584091,0.976512083703445,38.888888888888886,1.0769230768932543,0.9647058823529248,0.0,0.993176870598538,0
394,469.69166666666666,1.1388888888888573,1.1722222222222172,1.180555555555543,0.9647058823529248,0.020723237064551217,1.03257842630909,38.888888888888886,1.0769230768932543,0.9929411764705945,0.0,0.997038116807033,0
395,470.8638888888889,1.1722222222222172,1.1555555555555657,1.180555555555543,0.9929411764705945,0.02173913732663574,1.0831977716672834,41.666666666666664,1.153846153814201,0.9788235294117837,0.0,0.9968946898026939,0
396,472.01944444444445,1.1555555555555657,1.14722222222224,1.180555555555543,0.9788235294117837,0.020743095646446757,1.0335679214916502,41.666666666666664,1.153846153814201,0.9717647058823783,0.0,0.9943398494227539,0
397,473.1666666666667,1.14722222222224,1.1861111111110745,1.180555555555543,0.9717647058823783,0.02008778439684292,1.0009156743185454,38.888888888888886,1.0769230768932543,1.004705882352921,0.0,0.9987351287291528,0
398,474.35277777777776,1.1861111111110745,1.1694444444444798,1.180555555555543,1.004705882352921,0.02051762686180894,1.022333469938645,38.888888888888886,1.0769230768932543,0.9905882352941582,0.0,0.9964678854806732,0
399,475.52222222222224,1.1694444444444798,1.1999999999999886,1.180555555555543,0.9905882352941582,0.02137518076948865,1.0650628785589726,41.666666666666664,1.153846153814201,1.0164705882352953,0.0,0.9981685279672119,0
400,476.72222222222223,1.1999999999999886,1.1555555555555657,1.180555555555543,1.0164705882352953,0.020418383970446367,1.0173884862825529,38.888888888888886,1.0769230768932543,0.9788235294117837,0.0,0.996961339332007,0
401,477.8777777777778,1.1555555555555657,1.213888888888846,1.180555555555543,0.9788235294117837,0.0186245082382937,0.928004893616482,36.111111111111114,0.9999999999723078,1.0282352941176216,0.0,0.9919959133096634,0
402,479.09166666666664,1.213888888888846,1.1694444444444798,1.180555555555543,1.0282352941176216,0.019189448293277744,0.9561542078919171,36.111111111111114,0.9999999999723078,0.9905882352941582,0.0,0.9978110354837344,0
403,480.2611111111111,1.1694444444444798,1.1444444444444457,1.180555555555543,0.9905882352941582,0.020879651145999066,1.0403720835244619,41.666666666666664,1.153846153814201,0.9694117647058937,0.0,0.9927420876351791,0
404,481.40555555555557,1.1444444444444457,1.1722222222222172,1.180555555555543,0.9694117647058937,0.02071510372598367,1.032173165783789,36.111111111111114,0.9999999999723078,0.9929411764705945,0.0,0.9915299443587682,0
405,482.5777777777778,1.1722222222222172,1.1722222222222172,1.180555555555543,0.9929411764705945,0.019297298467542363,0.9615280673363866,36.111111111111114,0.9999999999723078,0.9929411764705945,0.0,0.9900683593913049,0
406,483.75,1.1722222222222172,1.2083333333333144,1.180555555555543,0.9929411764705945,0.021346300877560224,1.0636238778243605,38.888888888888886,1.0769230768932543,1.0235294117647007,0.0,0.9939143214469734,0
407,484.9583333333333,1.2083333333333144,1.1861111111111313,1.180555555555543,1.0235294117647007,0.020842551376440643,1.0385235102756138,41.666666666666664,1.153846153814201,1.004705882352969,0.0,0.9956229791684817,0
408,486.14444444444445,1.1861111111111313,1.2222222222222285,1.180555555555543,1.004705882352969,0.020936913096296274,1.0432252794002366,41.666666666666664,1.153846153814201,1.0352941176470754,0.0,0.9949251208200486,0
409,487.3666666666667,1.2222222222222285,1.2055555555555202,1.180555555555543,1.0352941176470754,0.020844521876889878,1.0386216945624882,38.888888888888886,1.0769230768932543,1.0211764705882163,0.0,0.9983227444532397,0
410,488.5722222222222,1.2055555555555202,1.1583333333333599,1.180555555555543,1.0211764705882163,0.02061621791984459,1.0272459746423017,38.888888888888886,1.0769230768932543,0.9811764705882683,0.0,0.9942351130619106,0
411,489.73055555555555,1.1583333333333599,1.1638888888888914,1.180555555555543,0.9811764705882683,0.020711007037226222,1.0319690397383712,38.888888888888886,1.0769230768932543,0.9858823529411892,0.0,0.994894882473703,0
412,490.89444444444445,1.1638888888888914,1.14722222222224,1.180555555555543,0.9858823529411892,0.020082317837114082,1.0006432916003172,41.666666666666664,1.153846153814201,0.9717647058823783,0.0,0.992641330226389,0
413,492.0416666666667,1.14722222222224,1.1555555555555088,1.180555555555543,0.9717647058823783,0.02144363760459339,1.0684738828746771,36.111111111111114,0.9999999999723078,0.9788235294117356,0.0,0.99235629668046,0
414,493.1972222222222,1.1555555555555088,1.1416666666667084,1.180555555555543,0.9788235294117356,0.019917326462828667,0.9924222529139609,36.111111111111114,0.9999999999723078,0.9670588235294574,0.0,0.9938723151829663,0
415,494.3388888888889,1.1416666666667084,1.1555555555555657,1.180555555555543,0.9670588235294574,0.020910257110396426,1.0418970894130042,41.666666666666664,1.153846153814201,0.9788235294117837,0.0,0.9956677748590776,0
416,495.49444444444447,1.1555555555555657,1.169444444444423,1.180555555555543,0.9788235294117837,0.02009441364787193,1.0012459905511795,38.888888888888886,1.0769230768932543,0.9905882352941101,0.0,0.9979335224598201,0
417,496.6638888888889,1.169444444444423,1.1750000000000114,1.180555555555543,0.9905882352941101,0.020824810272731545,1.037639522851648,41.666666666666664,1.153846153814201,0.9952941176470791,0.0,0.9944467582994575,0
418,497.8388888888889,1.1750000000000114,1.1972222222221944,1.180555555555543,0.9952941176470791,0.02047821829549914,1.0203698560854368,38.888888888888886,1.0769230768932543,1.014117647058811,0.0,0.996799609407431,0
419,499.0361111111111,1.1972222222221944,1.1972222222222513,1.180555555555543,1.014117647058811,0.02022836572437566,1.007920431611049,38.888888888888886,1.0769230768932543,1.014117647058859,0.0,0.9973466675310649,0
420,500.23333333333335,1.1972222222222513,1.1888888888888687,1.180555555555543,1.014117647058859,0.019234183211516303,0.9583832183178438,38.888888888888886,1.0769230768932543,1.0070588235294053,0.0,0.995938450780443,0
421,501.4222222222222,1.1888888888888687,1.180555555555543,1.180555555555543,1.0070588235294053,0.019281213135608422,0.9607265821879385,36.111111111111114,0.9999999999723078,1.0,0.0,0.9982303756290372,0
422,502.60277777777776,1.180555555555543,1.2305555555555543,1.180555555555543,1.0,0.022163281388840703,1.1043316325074468,44.44444444444444,1.2307692307351479,1.0423529411764807,0.0,0.9953485528457147,0
423,503.8333333333333,1.2305555555555543,1.194444444444457,1.180555555555543,1.0423529411764807,0.020333772430640492,1.0131725401758613,38.888888888888886,1.0769230768932543,1.0117647058823744,0.0,0.9991475720933254,0
424,505.02777777777777,1.194444444444457,1.2305555555555543,1.180555555555543,1.0117647058823744,0.021008838653466727,1.0468091200137049,44.44444444444444,1.2307692307351479,1.0423529411764807,0.0,0.993240207992097,0
425,506.2583333333333,1.2305555555555543,1.2250000000000227,1.180555555555543,1.0423529411764807,0.020344167469470032,1.0136904946248981,38.888888888888886,1.0769230768932543,1.0376470588235598,0.0,0.9992669634310427,0
426,507.48333333333335,1.2250000000000227,1.2416666666666742,1.180555555555543,1.0376470588235598,0.021600676015710255,1.076298648615475,38.888888888888886,1.0769230768932543,1.0517647058823707,0.0,0.9965558291985404,0
427,508.725,1.2416666666666742,1.2333333333332916,1.180555555555543,1.0517647058823707,0.02034887979128988,1.0139252958692138,38.888888888888886,1.0769230768932543,1.044705882352917,0.0,0.9990321249463848,0
428,509.9583333333333,1.2333333333332916,1.2305555555555543,1.180555555555543,1.044705882352917,0.020207971912713507,1.0069042674911794,41.666666666666664,1.153846153814201,1.0423529411764807,0.0,0.9930199891723179,0
429,511.18888888888887,1.2305555555555543,1.2222222222222854,1.180555555555543,1.0423529411764807,0.018801854875053783,0.9368415589755916,33.333333333333336,0.923076923051361,1.0352941176471233,0.0,0.9965004408726408,0
430,512.4111111111112,1.2222222222222854,1.1861111111110176,1.180555555555543,1.0352941176471233,0.020202329625704243,1.0066231287953926,38.888888888888886,1.0769230768932543,1.0047058823528727,0.0,0.9970680577692176,0
431,513.5972222222222,1.1861111111110176,1.2111111111111086,1.180555555555543,1.0047058823528727,0.01999842740078698,0.9964632759755769,38.888888888888886,1.0769230768932543,1.0258823529411853,0.0,0.9990577134189988,0
432,514.8083333333333,1.2111111111111086,1.1916666666667197,1.180555555555543,1.0258823529411853,0.02054882486067162,1.0238879751768604,41.666666666666664,1.153846153814201,1.0094117647059382,0.0,0.9939930170674643,0
433,516.0,1.1916666666667197,1.2083333333333712,1.180555555555543,1.0094117647059382,0.021912097447839472,1.0918158697573872,41.666666666666664,1.153846153814201,1.0235294117647489,0.0,0.9945073895159824,0
434,517.2083333333334,1.2083333333333712,1.1861111111110176,1.180555555555543,1.0235294117647489,0.02018706691380801,1.0058626324027715,41.666666666666664,1.153846153814201,1.0047058823528727,0.0,0.9986747996670373,0
435,518.3944444444444,1.1861111111110176,1.2000000000000455,1.180555555555543,1.0047058823528727,0.021296618897858482,1.0611483697627315,44.44444444444444,1.2307692307351479,1.0164705882353435,0.0,0.9931955683031357,0
436,519.5944444444444,1.2000000000000455,1.1777777777778056,1.180555555555543,1.0164705882353435,0.01933079683366017,0.9631971931617636,36.111111111111114,0.9999999999723078,0.9976470588235636,0.0,0.99848176711991,0
437,520.7722222222222,1.1777777777778056,1.1611111111110404,1.180555555555543,0.9976470588235636,0.01889578747422678,0.9415219462689016,36.111111111111114,0.9999999999723078,0.9835294117646565,0.0,0.9958849473498187,0
438,521.9333333333333,1.1611111111110404,1.1750000000000682,1.180555555555543,0.9835294117646565,0.019623414430813883,0.9777774740820732,38.888888888888886,1.0769230768932543,0.9952941176471273,0.0,0.9962610229597058,0
439,523.1083333333333,1.1750000000000682,1.1833333333332803,1.180555555555543,0.9952941176471273,0.02130350206717969,1.061491338002856,41.666666666666664,1.153846153814201,1.0023529411764365,0.0,0.9943126426131725,0
440,524.2916666666666,1.1833333333332803,1.1305555555555884,1.180555555555543,1.0023529411764365,0.02233520167397394,1.1128979186007113,44.44444444444444,1.2307692307351479,0.9576470588235675,0.0,0.9930169759336704,0
441,525.4222222222222,1.1305555555555884,1.1694444444444798,1.180555555555543,0.9576470588235675,0.019608168384217833,0.977017808072726,36.111111111111114,0.9999999999723078,0.9905882352941582,0.0,0.9940927018960479,0
442,526.5916666666667,1.1694444444444798,1.122222222222149,1.180555555555543,0.9905882352941582,0.02100367848673438,1.0465520039643454,38.888888888888886,1.0769230768932543,0.9505882352940658,0.0,0.9950437092951565,0
443,527.7138888888888,1.122222222222149,1.14722222222224,1.180555555555543,0.9505882352940658,0.019413701524451113,0.9673280919631381,38.888888888888886,1.0769230768932543,0.9717647058823783,0.0,0.995264196676996,0
444,528.8611111111111,1.14722222222224,1.1444444444445026,1.180555555555543,0.9717647058823783,0.019623122675688106,0.9777629367755846,36.111111111111114,0.9999999999723078,0.9694117647059419,0.0,0.9951473163353353,0
445,530.0055555555556,1.1444444444445026,1.1416666666666515,1.180555555555543,0.9694117647059419,0.020790310590306994,1.035920504356847,41.666666666666664,1.153846153814201,0.9670588235294093,0.0,0.9957103453224223,0
446,531.1472222222222,1.1416666666666515,1.1833333333332803,1.180555555555543,0.9670588235294093,0.01949516888011826,0.9713873725498685,38.888888888888886,1.0769230768932543,1.0023529411764365,0.0,0.9986222963142624,0
447,532.3305555555555,1.1833333333332803,1.1388888888889142,1.180555555555543,1.0023529411764365,0.019237391125642277,0.9585430593170862,36.111111111111114,0.9999999999723078,0.9647058823529729,0.0,0.9884183229331722,0
448,533.4694444444444,1.1388888888889142,1.180555555555543,1.180555555555543,0.9647058823529729,0.022222082339970934,1.1072615123034653,44.44444444444444,1.2307692307351479,1.0,0.0,0.9914869828164286,0
449,534.65,1.180555555555543,1.180555555555543,1.180555555555543,1.0,0.020662948372390393,1.0295744167191911,41.666666666666664,1.153846153814201,1.0,0.0,0.9987981104226349,0
450,535.8305555555555,1.180555555555543,1.1444444444445026,1.180555555555543,1.0,0.020867674828717448,1.0397753385848025,41.666666666666664,1.153846153814201,0.9694117647059419,0.0,0.9914046696895163,0
451,536.975,1.1444444444445026,1.1861111111111313,1.180555555555543,0.9694117647059419,0.01953367361528583,0.9733059511349096,38.888888888888886,1.0769230768932543,1.004705882352969,0.0,0.9990396633402407,0
452,538.1611111111112,1.1861111111111313,1.1694444444443661,1.180555555555543,1.004705882352969,0.021617420965890657,1.0771330006161806,44.44444444444444,1.2307692307351479,0.9905882352940619,0.0,0.9943102698744272,0
453,539.3305555555555,1.1694444444443661,1.1888888888888687,1.180555555555543,0.9905882352940619,0.02029659274889441,1.01131998513591,36.111111111111114,0.9999999999723078,1.0070588235294053,0.0,0.9985136941073579,0
454,540.5194444444444,1.1888888888888687,1.1583333333334167,1.180555555555543,1.0070588235294053,0.020148212765930217,1.003926643602071,41.666666666666664,1.153846153814201,0.9811764705883164,0.0,0.9958618202202432,0
455,541.6777777777778,1.1583333333334167,1.2111111111111086,1.180555555555543,0.9811764705883164,0.019575473678596713,0.9753887263045767,38.888888888888886,1.0769230768932543,1.0258823529411853,0.0,0.9887681711096028,0
456,542.8888888888889,1.2111111111111086,1.1777777777778056,1.180555555555543,1.0258823529411853,0.019512890911287547,0.972270409644835,36.111111111111114,0.9999999999723078,0.9976470588235636,0.0,0.9956389540323614,0
457,544.0666666666667,1.1777777777778056,1.1388888888888005,1.180555555555543,0.9976470588235636,0.020465818085877115,1.0197519898275,38.888888888888886,1.0769230768932543,0.9647058823528766,0.0,0.9959851056180596,0
458,545.2055555555555,1.1388888888888005,1.183333333333394,1.180555555555543,0.9647058823528766,0.020632971791970853,1.0280807711975326,41.666666666666664,1.153846153814201,1.0023529411765326,0.0,0.9986995158615704,0
459,546.3888888888889,1.183333333333394,1.1749999999999545,1.180555555555543,1.0023529411765326,0.01971407799704122,0.982294975003719,38.888888888888886,1.0769230768932543,0.9952941176470309,0.0,0.9966738167615206,0
460,547.5638888888889,1.1749999999999545,1.2111111111111086,1.180555555555543,0.9952941176470309,0.020912998460367357,1.0420336828819747,38.888888888888886,1.0769230768932543,1.0258823529411853,0.0,0.9984868445190571,0
461,548.775,1.2111111111111086,1.1777777777778056,1.180555555555543,1.0258823529411853,0.020126945513927016,1.0028669584989678,33.333333333333336,0.923076923051361,0.9976470588235636,0.0,0.9928015240978293,0
462,549.9527777777778,1.1777777777778056,1.216666666666697,1.180555555555543,0.9976470588235636,0.021291240954716708,1.060880402550427,41.666666666666664,1.153846153814201,1.0305882352941544,0.0,0.9965937787803094,0
463,551.1694444444445,1.216666666666697,1.1749999999999545,1.180555555555543,1.0305882352941544,0.020426411832744372,1.017788491233154,36.111111111111114,0.9999999999723078,0.9952941176470309,0.0,0.9977084919483802,0
464,552.3444444444444,1.1749999999999545,1.2083333333333712,1.180555555555543,0.9952941176470309,0.020183253259376196,1.005672609131821,41.666666666666664,1.153846153814201,1.0235294117647489,0.0,0.9922955533843841,0
465,553.5527777777778,1.2083333333333712,1.2027777777777828,1.180555555555543,1.0235294117647489,0.019592617865814968,0.976242971121785,38.888888888888886,1.0769230768932543,1.0188235294117798,0.0,0.9990942517928676,0
466,554.7555555555556,1.2027777777777828,1.191666666666606,1.180555555555543,1.0188235294117798,0.02072221897044866,1.0325276976510633,44.44444444444444,1.2307692307351479,1.0094117647058418,0.0,0.9913921624440019,0
467,555.9472222222222,1.191666666666606,1.2000000000000455,1.180555555555543,1.0094117647058418,0.019434279590189795,0.9683534369259326,38.888888888888886,1.0769230768932543,1.0164705882353435,0.0,0.9988526305319996,0
468,557.1472222222222,1.2000000000000455,1.1972222222221944,1.180555555555543,1.0164705882353435,0.019669631432033444,0.9800803323777809,38.888888888888886,1.0769230768932543,1.014117647058811,0.0,0.9930855252327926,0
469,558.3444444444444,1.1972222222221944,1.2083333333333712,1.180555555555543,1.014117647058811,0.02041313482437293,1.0171269366522953,38.888888888888886,1.0769230768932543,1.0235294117647489,0.0,0.9964603715662077,0
470,559.5527777777778,1.2083333333333712,1.1972222222221944,1.180555555555543,1.0235294117647489,0.019639605413362363,0.9785842234923237,36.111111111111114,0.9999999999723078,1.014117647058811,0.0,0.9987747516064657,0
471,560.75,1.1972222222221944,1.1777777777778056,1.180555555555543,1.014117647058811,0.02172820342646627,1.0826529673302365,41.666666666666664,1.153846153814201,0.9976470588235636,0.0,0.9914782431345741,0
472,561.9277777777778,1.1777777777778056,1.194444444444457,1.180555555555543,0.9976470588235636,0.020245833495157226,1.0087907996529035,38.888888888888886,1.0769230768932543,1.0117647058823744,0.0,0.9919475239188005,0
473,563.1222222222223,1.194444444444457,1.1749999999999545,1.180555555555543,1.0117647058823744,0.020602901436942763,1.0265824531607923,41.666666666666664,1.153846153814201,0.9952941176470309,0.0,0.9939274889822279,0
474,564.2972222222222,1.1749999999999545,1.1777777777778056,1.180555555555543,0.9952941176470309,0.01967315818607124,0.980256060239359,38.888888888888886,1.0769230768932543,0.9976470588235636,0.0,0.9982729008138176,0
475,565.475,1.1777777777778056,1.1777777777778056,1.180555555555543,0.9976470588235636,0.01976578255750626,0.9848712623622861,36.111111111111114,0.9999999999723078,0.9976470588235636,0.0,0.9959912018972947,0
476,566.6527777777778,1.1777777777778056,1.1722222222222172,1.180555555555543,0.9976470588235636,0.02077623835116965,1.0352193257476452,41.666666666666664,1.153846153814201,0.9929411764705945,0.0,0.9959125132500644,0
477,567.825,1.1722222222222172,1.1416666666666515,1.180555555555543,0.9929411764705945,0.0200753950691434,1.0002983502750502,38.888888888888886,1.0769230768932543,0.9670588235294093,0.0,0.9929275543175964,0
478,568.9666666666667,1.1416666666666515,1.1722222222222172,1.180555555555543,0.9670588235294093,0.020645568890846407,1.028708447872391,41.666666666666664,1.153846153814201,0.9929411764705945,0.0,0.996465088987815,0
479,570.1388888888889,1.1722222222222172,1.158333333333303,1.180555555555543,0.9929411764705945,0.01964485887348152,0.9788459880788899,36.111111111111114,0.9999999999723078,0.9811764705882201,0.0,0.9911018372667348,0
480,571.2972222222222,1.158333333333303,1.1416666666666515,1.180555555555543,0.9811764705882201,0.021850160659162975,1.088729740327752,44.44444444444444,1.2307692307351479,0.9670588235294093,0.0,0.9924089938824707,0
481,572.4388888888889,1.1416666666666515,1.14722222222224,1.180555555555543,0.9670588235294093,0.01995804099920523,0.9944509394443838,38.888888888888886,1.0769230768932543,0.9717647058823783,0.0,0.9986681140250856,0
482,573.5861111111111,1.14722222222224,1.1666666666666288,1.180555555555543,0.9717647058823783,0.019417772691940862,0.9675309463582652,33.333333333333336,0.923076923051361,0.9882352941176256,0.0,0.9973243651272169,0
483,574.7527777777777,1.1666666666666288,1.1555555555555657,1.180555555555543,0.9882352941176256,0.020995274570813925,1.0461332613591747,41.666666666666664,1.153846153814201,0.9788235294117837,0.0,0.9935553268769021,0
484,575.9083333333333,1.1555555555555657,1.1750000000000682,1.180555555555543,0.9788235294117837,0.019564777330646186,0.9748557585013514,33.333333333333336,0.923076923051361,0.9952941176471273,0.0,0.9905001007279737,0
485,577.0833333333334,1.1750000000000682,1.158333333333303,1.180555555555543,0.9952941176471273,0.020137894987454916,1.003412538811017,41.666666666666664,1.153846153814201,0.9811764705882201,0.0,0.992161459471071,0
486,578.2416666666667,1.158333333333303,1.216666666666697,1.180555555555543,0.9811764705882201,0.019807623745502406,0.9869560866550057,36.111111111111114,0.9999999999723078,1.0305882352941544,0.0,0.9974127653612108,0
487,579.4583333333334,1.216666666666697,1.1722222222222172,1.180555555555543,1.0305882352941544,0.0210167363307607,1.047202638225474,38.888888888888886,1.0769230768932543,0.9929411764705945,0.0,0.9953249757980525,0
488,580.6305555555556,1.1722222222222172,1.2083333333332575,1.180555555555543,0.9929411764705945,0.020816838699255828,1.0372423226087937,44.44444444444444,1.2307692307351479,1.0235294117646527,0.0,0.9930933640808145,0
489,581.8388888888888,1.2083333333332575,1.2194444444444343,1.180555555555543,1.0235294117646527,0.02121701275864965,1.0571818281605314,38.888888888888886,1.0769230768932543,1.0329411764705907,0.0,0.9929383207240265,0
490,583.0583333333333,1.2194444444444343,1.2027777777777828,1.180555555555543,1.0329411764705907,0.02140356070330297,1.0664769678397865,44.44444444444444,1.2307692307351479,1.0188235294117798,0.0,0.9916625837815005,0
491,584.2611111111111,1.2027777777777828,1.2083333333333712,1.180555555555543,1.0188235294117798,0.019488910292791307,0.9710755254078003,36.111111111111114,0.9999999999723078,1.0235294117647489,0.0,0.9989298432437055,0
492,585.4694444444444,1.2083333333333712,1.1722222222222172,1.180555555555543,1.0235294117647489,0.02017993902963953,1.0055074707359588,41.666666666666664,1.153846153814201,0.9929411764705945,0.0,0.9976086089283656,0
493,586.6416666666667,1.1722222222222172,1.2027777777777828,1.180555555555543,0.9929411764705945,0.019379290230576447,0.9656134776118337,38.888888888888886,1.0769230768932543,1.0188235294117798,0.0,0.9990834957664889,0
494,587.8444444444444,1.2027777777777828,1.194444444444457,1.180555555555543,1.0188235294117798,0.019061274920884923,0.9497677027939031,36.111111111111114,0.9999999999723078,1.0117647058823744,0.0,0.998064736931551,0
495,589.0388888888889,1.194444444444457,1.2111111111111086,1.180555555555543,1.0117647058823744,0.02010704298794677,1.0018752737109087,38.888888888888886,1.0769230768932543,1.0258823529411853,0.0,0.9959638352238138,0
496,590.25,1.2111111111111086,1.2361111111110858,1.180555555555543,1.0258823529411853,0.0196463558347604,0.9789205772908348,36.111111111111114,0.9999999999723078,1.0470588235294016,0.0,0.9984927483027501,0
497,591.4861111111111,1.2361111111110858,1.180555555555543,1.180555555555543,1.0470588235294016,0.020537131769221444,1.0233053425538439,41.666666666666664,1.153846153814201,1.0,0.0,0.9944228831311613,0
498,592.6666666666666,1.180555555555543,1.2194444444444343,1.180555555555543,1.0,0.020067823235812014,0.9999210679170265,41.666666666666664,1.153846153814201,1.0329411764705907,0.0,0.9925404637371571,0
499,593.8861111111111,1.2194444444444343,1.2055555555556339,1.180555555555543,1.0329411764705907,0.020613699926543883,1.0271205103843868,38.888888888888886,1.0769230768932543,1.0211764705883126,0.0,0.9955494610620199,0
500,595.0916666666667,1.2055555555556339,1.2416666666666742,1.180555555555543,1.0211764705883126,0.020906687969462656,1.0417192495360974,38.888888888888886,1.0769230768932543,1.0517647058823707,0.0,0.9985371713098206,0
501,596.3333333333334,1.2416666666666742,1.2055555555555202,1.180555555555543,1.0517647058823707,0.019048305088378296,0.9491214538899568,36.111111111111114,0.9999999999723078,1.0211764705882163,0.0,0.997300771518741,0
502,597.5388888888889,1.2055555555555202,1.2111111111111086,1.180555555555543,1.0211764705882163,0.02033602956366522,1.013285006527493,41.666666666666664,1.153846153814201,1.0258823529411853,0.0,0.9967682222799883,0
503,598.75,1.2111111111111086,1.1916666666667197,1.180555555555543,1.0258823529411853,0.01980199917814875,0.9866758308779465,36.111111111111114,0.9999999999723078,1.0094117647059382,0.0,0.9970505975462651,0
504,599.9416666666667,1.1916666666667197,1.1694444444443661,1.180555555555543,1.0094117647059382,0.019926033857114573,0.9928561169604411,38.888888888888886,1.0769230768932543,0.9905882352940619,0.0,0.995783772901589,0
505,601.1111111111111,1.1694444444443661,1.1916666666667197,1.180555555555543,0.9905882352940619,0.020267320802604676,1.009861449476606,38.888888888888886,1.0769230768932543,1.0094117647059382,0.0,0.9982531079493538,0
506,602.3027777777778,1.1916666666667197,1.1833333333332803,1.180555555555543,1.0094117647059382,0.019855609278664515,0.9893470657363043,38.888888888888886,1.0769230768932543,1.0023529411764365,0.0,0.9940490293318704,0
507,603.4861111111111,1.1833333333332803,1.1750000000000682,1.180555555555543,1.0023529411764365,0.02051264772893965,1.0220853742783707,41.666666666666664,1.153846153814201,0.9952941176471273,0.0,0.9930296799404454,0
508,604.6611111111112,1.1750000000000682,1.2055555555555202,1.180555555555543,0.9952941176471273,0.02014916738480149,1.0039742094745625,36.111111111111114,0.9999999999723078,1.0211764705882163,0.0,0.9967714086324733,0
509,605.8666666666667,1.2055555555555202,1.1833333333332803,1.180555555555543,1.0211764705882163,0.021241599589273765,1.0584069181787894,38.888888888888886,1.0769230768932543,1.0023529411764365,0.0,0.994882530267555,0
510,607.05,1.1833333333332803,1.194444444444457,1.180555555555543,1.0023529411764365,0.020611833907147502,1.027027532083469,38.888888888888886,1.0769230768932543,1.0117647058823744,0.0,0.9951977851403615,0
511,608.2444444444444,1.194444444444457,1.180555555555543,1.180555555555543,1.0117647058823744,0.02043991555253019,1.0184613421821793,41.666666666666664,1.153846153814201,1.0,0.0,0.9978659268747188,0
512,609.425,1.180555555555543,1.2000000000000455,1.180555555555543,1.0,0.020748465842190353,1.0338355026737127,44.44444444444444,1.2307692307351479,1.0164705882353435,0.0,0.9939790356386964,0
513,610.625,1.2000000000000455,1.2055555555555202,1.180555555555543,1.0164705882353435,0.01891789313817394,0.9426234069924351,36.111111111111114,0.9999999999723078,1.0211764705882163,0.0,0.9952071425222162,0
514,611.8305555555555,1.2055555555555202,1.1555555555555657,1.180555555555543,1.0211764705882163,0.020158630785918136,1.004445743135164,38.888888888888886,1.0769230768932543,0.9788235294117837,0.0,0.9921129033787535,0
515,612.9861111111111,1.1555555555555657,1.2000000000000455,1.180555555555543,0.9788235294117837,0.01926950094993552,0.9601429981555264,36.111111111111114,0.9999999999723078,1.0164705882353435,0.0,0.9909417170778889,0
516,614.1861111111111,1.2000000000000455,1.1666666666666288,1.180555555555543,1.0164705882353435,0.021554706954886496,1.0740081444661258,41.666666666666664,1.153846153814201,0.9882352941176256,0.0,0.9954271812848641,0
517,615.3527777777778,1.1666666666666288,1.1750000000000682,1.180555555555543,0.9882352941176256,0.02040527143049558,1.0167351266831273,38.888888888888886,1.0769230768932543,0.9952941176471273,0.0,0.992334081745482,0
518,616.5277777777778,1.1750000000000682,1.180555555555543,1.180555555555543,0.9952941176471273,0.020578855391971105,1.0253843089134216,41.666666666666664,1.153846153814201,1.0,0.0,0.9957409893155826,0
519,617.7083333333334,1.180555555555543,1.1833333333332803,1.180555555555543,1.0,0.020085971281684434,1.0008253320814116,38.888888888888886,1.0769230768932543,1.0023529411764365,0.0,0.9935005706791786,0
520,618.8916666666667,1.1833333333332803,1.2138888888889596,1.180555555555543,1.0023529411764365,0.020282321709200316,1.010608900875125,38.888888888888886,1.0769230768932543,1.028235294117718,0.0,0.9988247572385416,0
521,620.1055555555556,1.2138888888889596,1.1472222222221262,1.180555555555543,1.028235294117718,0.020576821954304308,1.0252829886486658,36.111111111111114,0.9999999999723078,0.971764705882282,0.0,0.9958528858391575,0
522,621.2527777777777,1.1472222222221262,1.2194444444444343,1.180555555555543,0.971764705882282,0.01992146612904302,0.9926285204006354,41.666666666666664,1.153846153814201,1.0329411764705907,0.0,0.99826433186254,0
523,622.4722222222222,1.2194444444444343,1.1638888888888914,1.180555555555543,1.0329411764705907,0.020008095591716783,0.9969450137149298,38.888888888888886,1.0769230768932543,0.9858823529411892,0.0,0.9988145863065869,0
524,623.6361111111111,1.1638888888888914,1.1666666666667425,1.180555555555543,0.9858823529411892,0.01976809992567726,0.9849867300554721,38.888888888888886,1.0769230768932543,0.9882352941177218,0.0,0.9950899431075082,0
525,624.8027777777778,1.1666666666667425,1.194444444444457,1.180555555555543,0.9882352941177218,0.020099600074301695,1.0015044150446275,38.888888888888886,1.0769230768932543,1.0117647058823744,0.0,0.9986119758114341,0
526,625.9972222222223,1.194444444444457,1.1999999999999318,1.180555555555543,1.0117647058823744,0.019722410536951156,0.982710161150582,38.888888888888886,1.0769230768932543,1.0164705882352472,0.0,0.9961336446913498,0
527,627.1972222222222,1.1999999999999318,1.2055555555556339,1.180555555555543,1.0164705882352472,0.020794537191262688,1.0361311035479808,38.888888888888886,1.0769230768932543,1.0211764705883126,0.0,0.9928376787814883,0
528,628.4027777777778,1.2055555555556339,1.1722222222222172,1.180555555555543,1.0211764705883126,0.020089399095398187,1.00099613003538,36.111111111111114,0.9999999999723078,0.9929411764705945,0.0,0.9940249161833139,0
529,629.575,1.1722222222222172,1.213888888888846,1.180555555555543,0.9929411764705945,0.020891137829165927,1.040944431425082,41.666666666666664,1.153846153814201,1.0282352941176216,0.0,0.9961647392812217,0
530,630.7888888888889,1.213888888888846,1.22777777777776,1.180555555555543,1.0282352941176216,0.020195890650813304,1.006302293467436,41.666666666666664,1.153846153814201,1.039999999999996,0.0,0.9918389750486154,0
531,632.0166666666667,1.22777777777776,1.161111111111154,1.180555555555543,1.039999999999996,0.019922396838430712,0.992674894933335,41.666666666666664,1.153846153814201,0.9835294117647528,0.0,0.9934621439167619,0
532,633.1777777777778,1.161111111111154,1.1888888888888687,1.180555555555543,0.9835294117647528,0.019780090077277105,0.985584164318836,36.111111111111114,0.9999999999723078,1.0070588235294053,0.0,0.9946446398271085,0
533,634.3666666666667,1.1888888888888687,1.194444444444457,1.180555555555543,1.0070588235294053,0.019788456358855573,0.9860010317145737,36.111111111111114,0.9999999999723078,1.0117647058823744,0.0,0.9929923340812601,0
534,635.5611111111111,1.194444444444457,1.1694444444444798,1.180555555555543,1.0117647058823744,0.020278545735396173,1.0104207551198878,41.666666666666664,1.153846153814201,0.9905882352941582,0.0,0.994382745064877,0
535,636.7305555555556,1.1694444444444798,1.1972222222221944,1.180555555555543,0.9905882352941582,0.019790605971247897,0.9861081406268698,36.111111111111114,0.9999999999723078,1.014117647058811,0.0,0.998765065377246,0
536,637.9277777777778,1.1972222222221944,1.194444444444457,1.180555555555543,1.014117647058811,0.021402025069038415,1.0664004516658248,41.666666666666664,1.153846153814201,1.0117647058823744,0.0,0.9962740400140239,0
537,639.1222222222223,1.194444444444457,1.1999999999999318,1.180555555555543,1.0117647058823744,0.020478851286522142,1.0204013961808556,41.666666666666664,1.153846153814201,1.0164705882352472,0.0,0.9991907156285695,0
538,640.3222222222222,1.1999999999999318,1.216666666666697,1.180555555555543,1.0164705882352472,0.019307077538507987,0.9620153299043434,36.111111111111114,0.9999999999723078,1.0305882352941544,0.0,0.9983665966072605,0
539,641.5388888888889,1.216666666666697,1.158333333333303,1.180555555555543,1.0305882352941544,0.02113286494405691,1.0529889881279213,41.666666666666664,1.153846153814201,0.9811764705882201,0.0,0.993125839683588,0
540,642.6972222222222,1.158333333333303,1.1638888888888914,1.180555555555543,0.9811764705882201,0.020561171163575958,1.0245031554203707,38.888888888888886,1.0769230768932543,0.9858823529411892,0.0,0.9981815138081156,0
541,643.8611111111111,1.1638888888888914,1.0888888888889596,1.180555555555543,0.9858823529411892,0.02043606931776523,1.018269695528307,41.666666666666664,1.153846153814201,0.9223529411765404,0.0,0.9970077636653901,0
542,644.95,1.0888888888889596,1.1194444444444116,1.180555555555543,0.9223529411765404,0.019068435777459248,0.9501245073794757,33.333333333333336,0.923076923051361,0.9482352941176294,0.0,0.9944875502399106,0
543,646.0694444444445,1.1194444444444116,1.0861111111111086,1.180555555555543,0.9482352941176294,0.020850507082781477,1.0389199199054417,38.888888888888886,1.0769230768932543,0.9200000000000077,0.0,0.9990546124278972,0
544,647.1555555555556,1.0861111111111086,1.091666666666697,1.180555555555543,0.9200000000000077,0.020373170874240593,1.0151356496439865,38.888888888888886,1.0769230768932543,0.9247058823529768,0.0,0.9987429125926235,0
545,648.2472222222223,1.091666666666697,1.1166666666666742,1.180555555555543,0.9247058823529768,0.021727586329346075,1.0826222191816117,41.666666666666664,1.153846153814201,0.945882352941193,0.0,0.9966606464784173,0
546,649.3638888888889,1.1166666666666742,1.1055555555554974,1.180555555555543,0.945882352941193,0.020241924254412874,1.0085960135949488,38.888888888888886,1.0769230768932543,0.9364705882352549,0.0,0.997318807299798,0
547,650.4694444444444,1.1055555555554974,1.1527777777778283,1.180555555555543,0.9364705882352549,0.01886165399092805,0.9398211744078616,38.888888888888886,1.0769230768932543,0.9764705882353474,0.0,0.9975179944339747,0
548,651.6222222222223,1.1527777777778283,1.1055555555554974,1.180555555555543,0.9764705882353474,0.020183143504373252,1.0056671403603223,38.888888888888886,1.0769230768932543,0.9364705882352549,0.0,0.9934477391362317,0
549,652.7277777777778,1.1055555555554974,1.183333333333394,1.180555555555543,0.9364705882352549,0.02018540892226598,1.0057800195227486,38.888888888888886,1.0769230768932543,1.0023529411765326,0.0,0.9980557193356875,0
550,653.9111111111112,1.183333333333394,1.1722222222222172,1.180555555555543,1.0023529411765326,0.020486978778664955,1.0208063653958737,38.888888888888886,1.0769230768932543,0.9929411764705945,0.0,0.9971357702806567,0
551,655.0833333333334,1.1722222222222172,1.1777777777776919,1.180555555555543,0.9929411764705945,0.020790125978427592,1.0359113056856493,38.888888888888886,1.0769230768932543,0.9976470588234674,0.0,0.9929275254259482,0
552,656.2611111111111,1.1777777777776919,1.183333333333394,1.180555555555543,0.9976470588234674,0.021758650597179328,1.0841700609928977,38.888888888888886,1.0769230768932543,1.0023529411765326,0.0,0.9941461979428342,0
553,657.4444444444445,1.183333333333394,1.1749999999999545,1.180555555555543,1.0023529411765326,0.02166295322654878,1.07940174028799,44.44444444444444,1.2307692307351479,0.9952941176470309,0.0,0.9924154499742939,0
554,658.6194444444444,1.1749999999999545,1.194444444444457,1.180555555555543,0.9952941176470309,0.020743857203312833,1.0336058676478355,38.888888888888886,1.0769230768932543,1.0117647058823744,0.0,0.9931512770431918,0
555,659.8138888888889,1.194444444444457,1.161111111111154,1.180555555555543,1.0117647058823744,0.020039960223551687,0.9985327353287161,38.888888888888886,1.0769230768932543,0.9835294117647528,0.0,0.995728811015672,0
556,660.975,1.161111111111154,1.2083333333332575,1.180555555555543,0.9835294117647528,0.019783268546559287,0.985742538167441,38.888888888888886,1.0769230768932543,1.0235294117646527,0.0,0.9982897194465448,0
