beat_index,peak_time_s,rr_prev_s,rr_next_s,rr_baseline_s,prematurity_index,aa_ratio,morph_index,qrs_width_ms,width_index,pause_index,pvc_score,morphology_score,is_pvc_candidate
0,0.225,,0.8027777777777777,0.8055555555555429,,0.036245474649161336,0.9540864414233646,47.22222222222222,0.9999999999788236,0.9965517241379466,0.07230323553085327,0.8591619160203143,0
1,1.0277777777777777,0.8027777777777777,0.8500000000000001,0.8055555555555429,0.9965517241379466,0.03655834139091602,0.9623220051501417,44.44444444444444,0.9411764705683046,1.0551724137931202,4.31901805986179e-11,0.9961463164271265,0
2,1.8777777777777778,0.8500000000000001,0.8472222222222223,0.8055555555555429,1.0551724137931202,0.0369107123586028,0.9715974351417576,44.44444444444444,0.9411764705683046,1.0517241379310511,3.059721313120045e-12,0.9979769821740803,0
3,2.725,0.8472222222222223,0.8444444444444446,0.8055555555555429,1.0517241379310511,0.039119652428733415,1.0297431703329274,50.0,1.0588235293893427,1.048275862068982,1.870118782054675e-10,0.998254009756034,0
4,3.5694444444444446,0.8444444444444446,0.8444444444444441,0.8055555555555429,1.048275862068982,0.04021162734308278,1.0584871299648446,52.77777777777778,1.1176470587998617,1.0482758620689816,6.497263171922896e-09,0.9946667340255866,0
5,4.413888888888889,0.8444444444444441,0.8111111111111109,0.8444444444444446,0.9999999999999994,0.03930788933865322,1.0346981139574296,52.77777777777778,1.1176470587998617,0.9605263157894733,6.04351124700031e-10,0.997738507383302,0
6,5.225,0.8111111111111109,0.8222222222222229,0.8444444444444443,0.9605263157894736,0.03942789057445945,1.0378568959335246,50.0,1.0588235293893427,0.9736842105263167,6.507392402710366e-10,0.9991834024854251,0
7,6.0472222222222225,0.8222222222222229,0.8305555555555557,0.8444444444444441,0.9736842105263169,0.03793073555937378,0.9984474161452583,50.0,1.0588235293893427,0.9835526315789479,1.7034285093586732e-10,0.9975354895191015,0
8,6.877777777777778,0.8305555555555557,0.8111111111111109,0.8374999999999999,0.9917081260364845,0.03825392839235371,1.0069547926631846,50.0,1.0588235293893427,0.9684908789386399,1.212898392832784e-10,0.9979525591539538,0
9,7.688888888888889,0.8111111111111109,0.7972222222222216,0.8305555555555557,0.9765886287625414,0.03681708610800601,0.9691329195816677,50.0,1.0588235293893427,0.959866220735785,1.0123443056064829e-10,0.9961521004271903,0
10,8.48611111111111,0.7972222222222216,0.8611111111111107,0.8263888888888893,0.96470588235294,0.0335954040747676,0.8843288667656246,44.44444444444444,0.9411764705683046,1.042016806722688,1.1384301487615822e-11,0.9920286911278106,0
11,9.347222222222221,0.8611111111111107,0.8638888888888889,0.8374999999999999,1.028192371475953,0.0377502077384328,0.9936953981919364,50.0,1.0588235293893427,1.03150912106136,4.926587610087907e-11,0.9971559027034522,0
12,10.21111111111111,0.8638888888888889,0.844444444444445,0.8374999999999999,1.03150912106136,0.03836992294889137,1.0100081071732776,50.0,1.0588235293893427,1.0082918739635165,4.208399601024482e-11,0.9981894434676647,0
13,11.055555555555555,0.844444444444445,0.8416666666666668,0.8374999999999999,1.0082918739635165,0.03944144090050567,1.0382135799742966,52.77777777777778,1.1176470587998617,1.0049751243781098,6.681013520193346e-10,0.9981152054037429,0
14,11.897222222222222,0.8416666666666668,0.8277777777777775,0.8361111111111112,1.0066445182724253,0.03764245029847604,0.9908589085771532,50.0,1.0588235293893427,0.9900332225913616,6.093871240953064e-11,0.9970163515918293,0
15,12.725,0.8277777777777775,0.844444444444445,0.8291666666666666,0.9983249581239528,0.037152001685880766,0.9779488728824521,47.22222222222222,0.9999999999788236,1.0184254606365166,3.7846437789257337e-11,0.9971254231966087,0
16,13.569444444444445,0.844444444444445,0.7972222222222225,0.8361111111111112,1.0099667774086383,0.03910261345919032,1.0292946550362112,50.0,1.0588235293893427,0.9534883720930234,1.9381803106899298e-10,0.9975754522878901,0
17,14.366666666666667,0.7972222222222225,0.8166666666666664,0.8361111111111112,0.9534883720930234,0.035696810833874944,0.9396440120682155,47.22222222222222,0.9999999999788236,0.9767441860465111,4.2990135756815206e-11,0.9955732894050966,0
18,15.183333333333334,0.8166666666666664,0.8249999999999993,0.8347222222222221,0.9783693843594008,0.036753440864755293,0.9674575914411379,47.22222222222222,0.9999999999788236,0.9883527454242921,3.570416531872844e-11,0.9968476259507928,0
19,16.008333333333333,0.8249999999999993,0.8222222222222229,0.8347222222222221,0.9883527454242921,0.03975885138523645,1.046568748247814,69.44444444444444,1.4705882352629758,0.9850249584026631,3.480078873963066e-07,0.9989949889522619,0
20,16.830555555555556,0.8222222222222229,0.81388888888889,0.8347222222222221,0.9850249584026631,0.035298692112252845,0.9291643679732461,44.44444444444444,0.9411764705683046,0.9750415973377718,2.4216765745488367e-12,0.9952276760258587,0
21,17.644444444444446,0.81388888888889,0.8138888888888864,0.8263888888888884,0.9848739495798339,0.03877654724357084,1.0207116427197764,47.22222222222222,0.9999999999788236,0.9848739495798295,4.4143644295502327e-10,0.9955592940655382,0
22,18.458333333333332,0.8138888888888864,0.7916666666666679,0.8236111111111111,0.988195615514331,0.03846965755230512,1.0126334123673426,52.77777777777778,1.1176470587998617,0.9612141652613843,1.409007022168396e-09,0.9956357117882301,0
23,19.25,0.7916666666666679,0.7944444444444443,0.8194444444444446,0.9661016949152554,0.037427800990027335,0.9852087137091284,47.22222222222222,0.9999999999788236,0.9694915254237284,7.336282970005215e-11,0.9982243363184637,0
24,20.044444444444444,0.7944444444444443,0.8083333333333336,0.8152777777777782,0.9744463373083468,0.038062128441011166,1.0019060594126787,52.77777777777778,1.1176470587998617,0.9914821124361156,5.02092545318078e-09,0.9934463251589907,0
25,20.852777777777778,0.8083333333333336,0.7972222222222207,0.8138888888888882,0.9931740614334482,0.035044950878564844,0.9224851597952575,50.0,1.0588235293893427,0.9795221843003402,7.679477193045514e-11,0.9923752135936392,0
26,21.65,0.7972222222222207,0.8027777777777807,0.81111111111111,0.9828767123287666,0.038586081803269785,1.0156980376860465,50.0,1.0588235293893427,0.9897260273972652,7.962946968476103e-10,0.9967590292673614,0
27,22.45277777777778,0.8027777777777807,0.8222222222222193,0.81111111111111,0.9897260273972652,0.03643707962635768,0.9591300423865676,52.77777777777778,1.1176470587998617,1.0136986301369841,3.496008482706259e-10,0.9950252558948955,0
28,23.275,0.8222222222222193,0.7972222222222243,0.81111111111111,1.0136986301369841,0.036263276976042425,0.9545550505081521,50.0,1.0588235293893427,0.9828767123287709,1.6702859581552154e-11,0.9977295652584557,0
29,24.072222222222223,0.7972222222222243,0.8388888888888886,0.8055555555555571,0.9896551724137937,0.03781530600074762,0.9954089740254984,52.77777777777778,1.1176470587998617,1.0413793103448252,5.887029197459981e-10,0.9981449701923146,0
30,24.91111111111111,0.8388888888888886,0.8305555555555557,0.8055555555555571,1.0413793103448252,0.03683699346564423,0.969656939205939,50.0,1.0588235293893427,1.0310344827586189,2.8539561339191444e-11,0.9974257479748694,0
31,25.741666666666667,0.8305555555555557,0.8305555555555557,0.8055555555555571,1.0310344827586189,0.037750494909985534,0.9937029573834625,47.22222222222222,0.9999999999788236,1.0310344827586189,6.645475836286607e-11,0.9966716816269559,0
32,26.572222222222223,0.8305555555555557,0.8611111111111107,0.8055555555555571,1.0310344827586189,0.036385797030900724,0.9577801351366261,47.22222222222222,0.9999999999788236,1.0689655172413768,1.2578700234189277e-11,0.9986672011353943,0
33,27.433333333333334,0.8611111111111107,0.841666666666665,0.8152777777777764,1.0562180579216367,0.03704092476040424,0.9750250047422788,50.0,1.0588235293893427,1.0323679727427595,1.5170609560244408e-11,0.9978382500729999,0
34,28.275,0.841666666666665,0.8388888888888886,0.8263888888888875,1.018487394957983,0.03799004689463282,1.0000086632068879,50.0,1.0588235293893427,1.0151260504201693,1.0689081564319025e-10,0.9967976997372519,0
35,29.113888888888887,0.8388888888888886,0.8611111111111143,0.8305555555555557,1.0100334448160528,0.03672487874325588,0.9667057532289293,47.22222222222222,0.9999999999788236,1.0367892976588664,1.2165538541830667e-11,0.9983862505857974,0
36,29.975,0.8611111111111143,0.652777777777775,0.8347222222222221,1.0316139767054948,0.03904689975805595,1.0278281081812357,52.77777777777778,1.1176470587998617,0.7820299500831914,1.7805938667958543e-10,0.997681774686973,0
37,30.627777777777776,0.652777777777775,0.9944444444444471,0.8347222222222221,0.7820299500831914,0.03991383282340605,1.050648311014233,75.0,1.588235294084014,1.1913477537437638,0.9866438508033752,0.8406998491167321,1
38,31.622222222222224,0.9944444444444471,0.8472222222222179,0.8388888888888886,1.1854304635761626,0.03614468833936926,0.9514334522547999,47.22222222222222,0.9999999999788236,1.0099337748344324,1.9547631539156875e-15,0.9978142308270788,0
39,32.46944444444444,0.8472222222222179,0.8444444444444485,0.8402777777777768,1.0082644628099133,0.03825914440418066,1.0070920932837604,50.0,1.0588235293893427,1.0049586776859565,9.06153693747136e-11,0.9975691612890963,0
40,33.31388888888889,0.8444444444444485,0.8388888888888886,0.8430555555555568,1.0016474464579936,0.036681529124984666,0.9655646650397475,50.0,1.0588235293893427,0.9950576606260279,1.731282651962207e-11,0.9978715892296518,0
41,34.15277777777778,0.8388888888888886,0.8361111111111086,0.8430555555555568,0.9950576606260279,0.03703149547950567,0.9747767986104849,50.0,1.0588235293893427,0.991762767710045,2.217543856875004e-11,0.9986251937186736,0
42,34.98888888888889,0.8361111111111086,0.8444444444444485,0.8430555555555568,0.991762767710045,0.03821637373667149,1.0059662447645696,50.0,1.0588235293893427,1.0016474464579936,7.76300898563953e-11,0.9990814255199006,0
43,35.833333333333336,0.8444444444444485,0.8361111111111086,0.8430555555555568,1.0016474464579936,0.03708023844849342,0.9760598554962362,50.0,1.0588235293893427,0.991762767710045,2.2542832184280215e-11,0.9981352141380153,0
44,36.669444444444444,0.8361111111111086,0.8277777777777757,0.8416666666666686,0.9933993399339882,0.03812092161652297,1.0034536670008534,52.77777777777778,1.1176470587998617,0.9834983498349789,3.9733394352481355e-10,0.9966745628227636,0
45,37.49722222222222,0.8277777777777757,0.81388888888889,0.8416666666666686,0.9834983498349789,0.03494379062286017,0.9198223272813236,52.77777777777778,1.1176470587998617,0.9669966996699662,3.380861979263017e-10,0.9894875424846266,0
46,38.31111111111111,0.81388888888889,0.7777777777777786,0.8374999999999986,0.9718076285240494,0.034095715895760076,0.8974985308275023,50.0,1.0588235293893427,0.9286898839137671,1.0761307643603057e-11,0.9943240630377219,0
47,39.08888888888889,0.7777777777777786,0.7999999999999972,0.8374999999999986,0.9286898839137671,0.03622224405254663,0.9534749444717918,50.0,1.0588235293893427,0.9552238805970131,8.803224815778776e-10,0.9932987052070716,0
48,39.888888888888886,0.7999999999999972,0.7750000000000057,0.8361111111111086,0.9568106312292354,0.03602130925400578,0.9481857554418893,47.22222222222222,0.9999999999788236,0.9269102990033319,4.596817024249411e-11,0.9949852691106593,0
49,40.66388888888889,0.7750000000000057,0.7722222222222186,0.8319444444444422,0.9315525876460862,0.03698879384502128,0.973652767241534,47.22222222222222,0.9999999999788236,0.928213689482469,1.9779874960157429e-10,0.9964244974428853,0
50,41.43611111111111,0.7722222222222186,0.81666666666667,0.8208333333333329,0.9407783417935663,0.03637444894095916,0.9574814203631515,47.22222222222222,0.9999999999788236,0.994923857868025,1.589109122068777e-10,0.9963628290082289,0
51,42.25277777777778,0.81666666666667,0.7972222222222172,0.81527777777778,1.0017035775127783,0.03654171107691787,0.9618842468573939,50.0,1.0588235293893427,0.9778534923338923,2.5535799169640327e-11,0.9978229148881437,0
52,43.05,0.7972222222222172,0.81388888888889,0.8069444444444436,0.9879518072289105,0.036477078941912516,0.9601829408520033,47.22222222222222,0.9999999999788236,1.0086058519793484,1.9906352607956812e-11,0.9987755045173801,0
53,43.86388888888889,0.81388888888889,0.8333333333333357,0.8069444444444436,1.0086058519793484,0.03751673304784463,0.9875496644455349,47.22222222222222,0.9999999999788236,1.0327022375215187,5.296527452736122e-11,0.9982283397641969,0
54,44.69722222222222,0.8333333333333357,0.8444444444444414,0.8069444444444436,1.0327022375215187,0.03832785942880026,1.0089008728333793,50.0,1.0588235293893427,1.0464716006884656,1.018091375093455e-10,0.9990237919484213,0
55,45.541666666666664,0.8444444444444414,0.8527777777777814,0.8069444444444436,1.0464716006884656,0.03762611079886751,0.9904288053660064,47.22222222222222,0.9999999999788236,1.056798623063689,2.8477466912368854e-11,0.9980573333716851,0
56,46.394444444444446,0.8527777777777814,0.8472222222222214,0.8069444444444436,1.056798623063689,0.03799725778932492,1.0001984749536743,47.22222222222222,0.9999999999788236,1.0499139414802068,2.036136190208815e-11,0.9986473175621979,0
57,47.24166666666667,0.8472222222222214,0.8555555555555543,0.81527777777778,1.0391822827938633,0.03800847902060111,1.0004938504376573,50.0,1.0588235293893427,1.0494037478705238,5.662674842921156e-11,0.9987924376994823,0
58,48.09722222222222,0.8555555555555543,0.8583333333333343,0.8250000000000028,1.0370370370370319,0.03869260455699089,1.0185020267636384,52.77777777777778,1.1176470587998617,1.040404040404038,2.0368789988012281e-10,0.9985689183935937,0
59,48.955555555555556,0.8583333333333343,0.8611111111111143,0.8388888888888886,1.0231788079470214,0.03710464592906342,0.976702331460658,47.22222222222222,0.9999999999788236,1.0264900662251697,1.3641423927956975e-11,0.9970557351301873,0
60,49.81666666666667,0.8611111111111143,0.8611111111111072,0.8458333333333314,1.0180623973727483,0.040490161736496076,1.0658189663057396,50.0,1.0588235293893427,1.0180623973727398,3.8570246996272317e-10,0.9990656036874141,0
61,50.67777777777778,0.8611111111111072,0.8500000000000014,0.8500000000000014,1.0130718954248303,0.037959392189050575,0.9992017420879084,50.0,1.0588235293893427,1.0,2.677430846476092e-11,0.9987128419431079,0
62,51.52777777777778,0.8500000000000014,0.8500000000000014,0.8513888888888914,0.9983686786296888,0.038715138800567594,1.0190951936754356,50.0,1.0588235293893427,0.9983686786296888,1.238166097428106e-10,0.9981365060349663,0
63,52.37777777777778,0.8500000000000014,0.8388888888888886,0.8513888888888914,0.9983686786296888,0.037956720345726336,0.9991314113910713,52.77777777777778,1.1176470587998617,0.9853181076672072,1.2988002340286187e-10,0.9979531259115288,0
64,53.21666666666667,0.8388888888888886,0.8388888888888886,0.8513888888888914,0.9853181076672072,0.03744111180574535,0.985559093140596,50.0,1.0588235293893427,0.9853181076672072,2.969609627645475e-11,0.9991903956470293,0
65,54.05555555555556,0.8388888888888886,0.8416666666666686,0.8513888888888914,0.9853181076672072,0.03655545286711936,0.9622459707922859,50.0,1.0588235293893427,0.9885807504078297,1.792717710391578e-11,0.9982649573316231,0
66,54.897222222222226,0.8416666666666686,0.8166666666666629,0.8500000000000014,0.9901960784313731,0.03633814024563039,0.9565256697693391,47.22222222222222,0.9999999999788236,0.9607843137254841,1.345519008710827e-11,0.9955348109974378,0
67,55.71388888888889,0.8166666666666629,0.8472222222222214,0.8500000000000014,0.9607843137254841,0.03801564553087523,1.0006824938573131,47.22222222222222,0.9999999999788236,0.9967320261437883,1.6456370988127134e-10,0.9973667035515827,0
68,56.56111111111111,0.8472222222222214,0.8194444444444429,0.8486111111111114,0.9983633387888694,0.038867605428920156,1.0231085593242168,47.22222222222222,0.9999999999788236,0.9656301145662826,5.241105466291529e-11,0.9982815252334634,0
69,57.38055555555555,0.8194444444444429,0.8388888888888886,0.844444444444445,0.9703947368421028,0.038216170733310344,1.0059609011249482,47.22222222222222,0.9999999999788236,0.9934210526315779,1.2496420565000221e-10,0.9978513329009114,0
70,58.21944444444444,0.8388888888888886,0.8583333333333343,0.8402777777777786,0.9983471074380152,0.037807095622401025,0.9951928529583787,47.22222222222222,0.9999999999788236,1.0214876033057854,3.375300039465401e-11,0.9985599585982694,0
71,59.077777777777776,0.8583333333333343,0.8333333333333357,0.8402777777777786,1.0214876033057854,0.039322313111979486,1.0350777896741352,50.0,1.0588235293893427,0.9917355371900846,8.273252222190663e-11,0.9993893915896896,0
72,59.91111111111111,0.8333333333333357,0.8388888888888886,0.8388888888888886,0.9933774834437118,0.037733775879831344,0.9932628638231418,47.22222222222222,0.9999999999788236,1.0,3.877247828354413e-11,0.9979484997245367,0
73,60.75,0.8388888888888886,0.8527777777777743,0.8388888888888886,1.0,0.037629752262411505,0.9905246592906106,47.22222222222222,0.9999999999788236,1.0165562913907247,4.823380236884667e-11,0.9970537942102369,0
74,61.602777777777774,0.8527777777777743,0.8277777777777828,0.8388888888888886,1.0165562913907247,0.03884298580729892,1.0224604991895612,50.0,1.0588235293893427,0.9867549668874236,5.710626763133497e-11,0.9993962452861185,0
75,62.43055555555556,0.8277777777777828,0.8416666666666686,0.8388888888888886,0.9867549668874236,0.040079213513010574,1.0550016123615662,47.22222222222222,0.9999999999788236,1.0033112582781483,3.762442024601853e-10,0.998843328070337,0
76,63.272222222222226,0.8416666666666686,0.8833333333333258,0.8388888888888886,1.0033112582781483,0.038028309764318036,1.0010158533604168,47.22222222222222,0.9999999999788236,1.0529801324503225,5.0816753582871854e-11,0.9989492253350969,0
77,64.15555555555555,0.8833333333333258,0.7722222222222257,0.8402777777777786,1.0512396694214776,0.041190353292551767,1.08425004705439,47.22222222222222,0.9999999999788236,0.9190082644628131,0.0549282543361187,0.5896487742991762,0
78,64.92777777777778,0.7722222222222257,0.8194444444444429,0.8388888888888886,0.9205298013245078,0.0382163888065336,1.0059666414472246,47.22222222222222,0.9999999999788236,0.9768211920529786,5.221312271430634e-10,0.9988616068549508,0
79,65.74722222222222,0.8194444444444429,0.8361111111111086,0.8388888888888886,0.9768211920529786,0.0375457043856939,0.9883122744237305,47.22222222222222,0.9999999999788236,0.9966887417218516,4.7575398481880526e-11,0.998293234872071,0
80,66.58333333333333,0.8361111111111086,0.8444444444444485,0.8374999999999986,0.9983416252072955,0.03968963988628665,1.0447469000480658,50.0,1.0588235293893427,1.0082918739635223,7.024783532649792e-10,0.9974953177871484,0
81,67.42777777777778,0.8444444444444485,0.8166666666666629,0.8374999999999986,1.0082918739635223,0.03851430395505939,1.0138086357004206,47.22222222222222,0.9999999999788236,0.9751243781094499,3.726068065201815e-11,0.9980815386952582,0
82,68.24444444444444,0.8166666666666629,0.8250000000000028,0.8374999999999986,0.9751243781094499,0.03799590980288214,1.0001629920250956,50.0,1.0588235293893427,0.9850746268656767,1.9635607029222513e-10,0.9976693311088165,0
83,69.06944444444444,0.8250000000000028,0.8500000000000085,0.8319444444444457,0.9916527545909869,0.037656049534481095,0.99121688007047,47.22222222222222,0.9999999999788236,1.0217028380634479,5.8193946189666335e-11,0.9978818339340676,0
84,69.91944444444445,0.8500000000000085,0.8444444444444343,0.8319444444444457,1.0217028380634479,0.038723492953720434,1.0193150993141353,52.77777777777778,1.1176470587998617,1.0150250417362134,3.3791794362691974e-10,0.9973818530722478,0
85,70.76388888888889,0.8444444444444343,0.8361111111111086,0.8388888888888886,1.0066225165562797,0.038946244629867406,1.0251785720944835,44.44444444444444,0.9411764705683046,0.9966887417218516,2.8799579041005607e-11,0.9979981411534027,0
86,71.6,0.8361111111111086,0.8444444444444485,0.8361111111111086,1.0,0.036994032887653815,0.9737906740999798,41.666666666666664,0.8823529411577855,1.0099667774086458,1.7154448434669733e-12,0.9966393297495661,0
87,72.44444444444444,0.8444444444444485,0.8250000000000028,0.8361111111111086,1.0099667774086458,0.039673753081774,1.0443287130901138,50.0,1.0588235293893427,0.9867109634551559,4.1941458639449536e-10,0.9975412104788584,0
88,73.26944444444445,0.8250000000000028,0.8277777777777828,0.8361111111111086,0.9867109634551559,0.038537418219068115,1.0144170704390372,47.22222222222222,0.9999999999788236,0.9900332225913712,1.2502308910367077e-10,0.9975079353372953,0
89,74.09722222222223,0.8277777777777828,0.8388888888888886,0.8361111111111086,0.9900332225913712,0.03821109635724841,1.005827328770158,47.22222222222222,0.9999999999788236,1.0033222591362152,4.473678372196588e-11,0.9993044562938886,0
90,74.93611111111112,0.8388888888888886,0.8416666666666544,0.8374999999999986,1.0016583747927044,0.03876445719565994,1.02039339745193,50.0,1.0588235293893427,1.0049751243780964,1.492448248319178e-10,0.9984643672320004,0
91,75.77777777777777,0.8416666666666544,0.8222222222222229,0.8374999999999986,1.0049751243780964,0.037501672141282076,0.987153217526686,47.22222222222222,0.9999999999788236,0.9817578772802678,1.9911667800687205e-11,0.9974327959579521,0
92,76.6,0.8222222222222229,0.8277777777777828,0.8374999999999986,0.9817578772802678,0.039202657186790085,1.0319280972790374,47.22222222222222,0.9999999999788236,0.9883913764510857,1.6842381656001493e-10,0.9987402789755644,0
93,77.42777777777778,0.8277777777777828,0.8444444444444485,0.8374999999999986,0.9883913764510857,0.03836666285363857,1.0099222919726616,50.0,1.0588235293893427,1.0082918739635223,1.7460906331923098e-10,0.9982541839847106,0
94,78.27222222222223,0.8444444444444485,0.8138888888888829,0.8374999999999986,1.0082918739635223,0.03685610060139836,0.9701598946599345,50.0,1.0588235293893427,0.9718076285240409,1.5393061825186294e-11,0.9978495850298625,0
95,79.08611111111111,0.8138888888888829,0.8277777777777828,0.8319444444444457,0.9782971619365523,0.03899260342486111,1.0263988705778762,50.0,1.0588235293893427,0.9949916527545956,3.5944430765155744e-10,0.9990387068047026,0
96,79.91388888888889,0.8277777777777828,0.8111111111111029,0.8277777777777828,1.0,0.03745596979550771,0.9859501986983596,44.44444444444444,0.9411764705683046,0.9798657718120647,1.6153064996693445e-11,0.9963505494282693,0
97,80.725,0.8111111111111029,0.8055555555555571,0.8277777777777828,0.9798657718120647,0.03719426620840216,0.9790613981916448,47.22222222222222,0.9999999999788236,0.9731543624161033,3.833728820512583e-11,0.9977136474715325,0
98,81.53055555555555,0.8055555555555571,0.8305555555555628,0.8277777777777828,0.9731543624161033,0.038033033242465535,1.0011401890602665,47.22222222222222,0.9999999999788236,1.0033557046979893,8.170365078941089e-11,0.9992534247031313,0
99,82.36111111111111,0.8305555555555628,0.8277777777777686,0.8277777777777828,1.0033557046979893,0.03857118248576356,1.0153058442617156,47.22222222222222,0.9999999999788236,0.9999999999999828,6.449497880200994e-11,0.9984688442617666,0
100,83.18888888888888,0.8277777777777686,0.8166666666666771,0.8277777777777757,0.9999999999999915,0.03756107995023725,0.9887170040569339,50.0,1.0588235293893427,0.9865771812080687,3.948052648694578e-11,0.9988531769434987,0
101,84.00555555555556,0.8166666666666771,0.8249999999999886,0.8249999999999957,0.9898989898990076,0.038270790200623135,1.0073986445592753,44.44444444444444,0.9411764705683046,0.9999999999999913,4.9249528066841464e-11,0.9976200414744945,0
102,84.83055555555555,0.8249999999999886,0.8138888888888971,0.8263888888888786,0.9983193277310911,0.03984674142838078,1.0488822701236287,47.22222222222222,0.9999999999788236,0.9848739495798541,3.118192370976658e-10,0.9981580677405072,0
103,85.64444444444445,0.8138888888888971,0.8055555555555571,0.8208333333333329,0.9915397631133778,0.03882751927785202,1.0220533750952019,50.0,1.0588235293893427,0.9813874788494102,2.963059519967004e-10,0.9984414296849785,0
104,86.45,0.8055555555555571,0.8083333333333371,0.8152777777777871,0.9880749574105528,0.038508911542017764,1.013666691686185,47.22222222222222,0.9999999999788236,0.9914821124361092,2.4488325256477594e-10,0.9968978325175901,0
105,87.25833333333334,0.8083333333333371,0.8111111111111029,0.8152777777777871,0.9914821124361092,0.0387026006330119,1.0187651525935908,50.0,1.0588235293893427,0.9948892674616481,2.9487109975967485e-10,0.9986435951455064,0
106,88.06944444444444,0.8111111111111029,0.7861111111111114,0.8125,0.9982905982905882,0.038359338883410296,1.0097295037484812,47.22222222222222,0.9999999999788236,0.9675213675213679,6.482921838246725e-11,0.9988101131802645,0
107,88.85555555555555,0.7861111111111114,0.7944444444444514,0.8125,0.9675213675213679,0.037224561940706495,0.9798588700886014,50.0,1.0588235293893427,0.9777777777777863,1.0467929995039427e-10,0.9990341220115224,0
108,89.65,0.7944444444444514,0.7999999999999972,0.8125,0.9777777777777863,0.0383053757782921,1.0083090376784758,50.0,1.0588235293893427,0.9846153846153811,3.4609512478134263e-10,0.9983088327764547,0
109,90.45,0.7999999999999972,0.8055555555555571,0.80972222222222,0.9879931389365344,0.03856663280189938,1.0151860833335005,50.0,1.0588235293893427,0.9948542024013769,3.318152697051602e-10,0.9986007766340232,0
110,91.25555555555556,0.8055555555555571,0.8055555555555571,0.8069444444444471,0.9982788296041294,0.03895937847869896,1.0255242932421627,50.0,1.0588235293893427,0.9982788296041294,5.698747584936825e-10,0.9976939468522761,0
111,92.06111111111112,0.8055555555555571,0.7999999999999972,0.8055555555555571,1.0,0.036156581428818994,0.9517465130023955,50.0,1.0588235293893427,0.9931034482758566,2.3069322493962652e-11,0.9982143842594136,0
112,92.86111111111111,0.7999999999999972,0.6333333333333258,0.8055555555555571,0.9931034482758566,0.0369931031825234,0.9737662015535988,50.0,1.0588235293893427,0.7862068965517132,2.9798621903331934e-11,0.9988487139142339,0
113,93.49444444444444,0.6333333333333258,0.9055555555555657,0.8027777777777771,0.7889273356401296,0.0372556602098976,0.9806774670934459,50.0,1.0588235293893427,1.1280276816609132,7.266408829309512e-06,0.9973370094985995,0
114,94.4,0.9055555555555657,0.8555555555555543,0.8027777777777771,1.1280276816609132,0.038952506020687415,1.0253433901343532,50.0,1.0588235293893427,1.0657439446366774,5.453412374456512e-11,0.9962945846316626,0
115,95.25555555555556,0.8555555555555543,0.7999999999999972,0.8027777777777771,1.0657439446366774,0.03841795105498817,1.0112723467860223,52.77777777777778,1.1176470587998617,0.9965397923875405,1.1701230262506357e-10,0.9982721624349962,0
116,96.05555555555556,0.7999999999999972,0.7944444444444372,0.7999999999999972,1.0,0.04008502178162998,1.0551545029056013,50.0,1.0588235293893427,0.99305555555555,2.638111729069692e-09,0.997117357819446,0
117,96.85,0.7944444444444372,0.7972222222222314,0.7999999999999972,0.99305555555555,0.03964827442962489,1.043658040770424,50.0,1.0588235293893427,0.9965277777777928,1.040211583536177e-09,0.9988008773215411,0
118,97.64722222222223,0.7972222222222314,0.6499999999999915,0.7999999999999972,0.9965277777777928,0.03849729159739717,1.013360820905904,50.0,1.0588235293893427,0.8124999999999922,3.1184779758497427e-10,0.9981289319667581,0
119,98.29722222222222,0.6499999999999915,0.875,0.7999999999999972,0.8124999999999922,0.03824094727119835,1.0066130917526934,50.0,1.0588235293893427,1.093750000000004,2.100530537063605e-06,0.9976186767177279,0
120,99.17222222222222,0.875,0.8111111111111171,0.7999999999999972,1.093750000000004,0.03726566941705654,0.9809409385731873,47.22222222222222,0.9999999999788236,1.0138888888889,2.4798995322539152e-12,0.9979383157039935,0
121,99.98333333333333,0.8111111111111171,0.7916666666666714,0.7999999999999972,1.0138888888889,0.036880764911725906,0.970809131131476,47.22222222222222,0.9999999999788236,0.9895833333333428,1.272874600860563e-11,0.998851711310369,0
122,100.775,0.7916666666666714,0.7916666666666572,0.7986111111111143,0.991304347826089,0.03886003365514997,1.022909248189197,47.22222222222222,0.9999999999788236,0.9913043478260711,3.9970321497051486e-10,0.9975333233043597,0
123,101.56666666666666,0.7916666666666572,0.7805555555555657,0.7986111111111143,0.9913043478260711,0.03850300308958893,1.0135111640125454,50.0,1.0588235293893427,0.9773913043478348,3.436579909532611e-10,0.9986243582586157,0
124,102.34722222222223,0.7805555555555657,0.7999999999999972,0.7958333333333343,0.9808027923211284,0.03746377110294985,0.9861555518280392,47.22222222222222,0.9999999999788236,1.0052356020942361,1.117050479892967e-10,0.9984062429598639,0
125,103.14722222222223,0.7999999999999972,0.7972222222222172,0.7958333333333343,1.0052356020942361,0.03940617173184328,1.0372851927494973,50.0,1.0588235293893427,1.0017452006980727,1.0771442626733574e-09,0.9976811271700009,0
126,103.94444444444444,0.7972222222222172,0.7972222222222172,0.7958333333333272,1.0017452006980816,0.03884636413418508,1.022549426591064,47.22222222222222,0.9999999999788236,1.0017452006980816,3.1728350502469027e-10,0.9977191362017839,0
127,104.74166666666666,0.7972222222222172,0.625,0.7972222222222172,1.0,0.036630938322344486,0.9642329677912791,44.44444444444444,0.9411764705683046,0.7839721254355451,3.1722510902831846e-12,0.9972487472104734,0
128,105.36666666666666,0.625,0.9138888888888914,0.7944444444444443,0.7867132867132869,0.036975646200233726,0.9733066829441183,47.22222222222222,0.9999999999788236,1.1503496503496538,3.969003046222497e-06,0.9983693363596139,0
129,106.28055555555555,0.9138888888888914,0.625,0.7972222222222172,1.1463414634146445,0.03776918321186498,0.9941948879102109,50.0,1.0588235293893427,0.7839721254355451,2.2029691439107157e-12,0.999103621044986,0
130,106.90555555555555,0.625,1.0166666666666657,0.7944444444444443,0.7867132867132869,0.0470715789584493,1.2390610330077434,77.77777777777777,1.647058823494533,1.2797202797202787,0.9923878908157349,0.8018827232447243,1
131,107.92222222222222,1.0166666666666657,0.8222222222222229,0.7944444444444443,1.2797202797202787,0.03859247559292634,1.0158663408488462,50.0,1.0588235293893427,1.034965034965036,2.4998154045906273e-13,0.9973685536129127,0
132,108.74444444444444,0.8222222222222229,0.7833333333333314,0.7972222222222172,1.031358885017429,0.03701686681319809,0.9743917295138523,52.77777777777778,1.1176470587998617,0.9825783972125474,8.635322318317762e-11,0.9979072066161974,0
133,109.52777777777777,0.7833333333333314,0.7888888888888914,0.7972222222222172,0.9825783972125474,0.03923049748542358,1.0326609350114302,50.0,1.0588235293893427,0.9895470383275355,7.39307892683172e-10,0.99945784509665,0
134,110.31666666666666,0.7888888888888914,0.7833333333333314,0.7972222222222172,0.9895470383275355,0.03624141389890593,0.953979550651532,50.0,1.0588235293893427,0.9825783972125474,6.885677444889993e-11,0.9968061905700584,0
135,111.1,0.7833333333333314,0.8027777777777771,0.7930555555555543,0.9877408056042023,0.03956999634811265,1.041597533715285,52.77777777777778,1.1176470587998617,1.0122591943957977,8.121555872264707e-09,0.9966569936245503,0
136,111.90277777777777,0.8027777777777771,0.6583333333333456,0.7930555555555543,1.0122591943957977,0.03901293329929161,1.0269340120745107,52.77777777777778,1.1176470587998617,0.8301225919439749,5.570315875225162e-10,0.9992971262610604,0
137,112.56111111111112,0.6583333333333456,0.8499999999999943,0.7861111111111114,0.8374558303887079,0.03806819954877817,1.0020658686484796,52.77777777777778,1.1176470587998617,1.081272084805646,9.420199944543128e-07,0.9977155718288492,0
138,113.41111111111111,0.8499999999999943,0.8305555555555486,0.7958333333333343,1.0680628272251225,0.034158322822325365,0.8991465274492408,47.22222222222222,0.9999999999788236,1.043630017451997,1.0844588031397318e-12,0.9950983019045623,0
139,114.24166666666666,0.8305555555555486,0.7972222222222314,0.7958333333333343,1.043630017451997,0.037592495141607965,0.9895439433764391,50.0,1.0588235293893427,1.0017452006980907,3.288268615730949e-11,0.9990588877738402,0
140,115.03888888888889,0.7972222222222314,0.8194444444444429,0.8000000000000043,0.9965277777777839,0.038636867301693543,1.0170348598945027,50.0,1.0588235293893427,1.024305555555548,3.201064135982534e-10,0.9992196478544775,0
141,115.85833333333333,0.8194444444444429,0.8055555555555571,0.8000000000000043,1.024305555555548,0.03698454792703062,0.9735410023156916,50.0,1.0588235293893427,1.006944444444441,3.134350071154479e-11,0.9985425545374957,0
142,116.66388888888889,0.8055555555555571,0.8027777777777771,0.8000000000000043,1.006944444444441,0.0381665499281878,1.0046547370358256,50.0,1.0588235293893427,1.003472222222216,1.551308803637852e-10,0.998883420511495,0
143,117.46666666666667,0.8027777777777771,0.8194444444444429,0.8027777777777771,1.0,0.038602313917093144,1.0161253141906146,47.22222222222222,0.9999999999788236,1.0207612456747392,3.2402677763165855e-10,0.9972046683011113,0
144,118.28611111111111,0.8194444444444429,0.8166666666666629,0.8041666666666671,1.0189982728842806,0.038313442504796846,1.0085213774107966,50.0,1.0588235293893427,1.015544041450772,2.057432973989748e-10,0.9975901537983425,0
145,119.10277777777777,0.8166666666666629,0.8305555555555628,0.81111111111111,1.0068493150684898,0.038687835212436815,1.0183764837264024,50.0,1.0588235293893427,1.0239726027397364,2.0738147310517263e-10,0.9989959216847637,0
146,119.93333333333334,0.8305555555555628,0.8277777777777686,0.8180555555555529,1.0152801358234418,0.035088532784227106,0.9236323624650041,47.22222222222222,0.9999999999788236,1.0118845500848819,4.921785635297882e-12,0.9957042644050353,0
147,120.7611111111111,0.8277777777777686,0.8138888888888971,0.8194444444444429,1.0101694915254145,0.039107185905303765,1.0294150151331116,47.22222222222222,0.9999999999788236,0.9932203389830628,6.950650471848618e-11,0.9994218375403792,0
148,121.575,0.8138888888888971,0.8222222222222229,0.8180555555555529,0.9949066213922034,0.03724999601865771,0.9805283690856001,50.0,1.0588235293893427,1.005093378607814,6.404851649044474e-11,0.9982909697572462,0
149,122.39722222222223,0.8222222222222229,0.7999999999999972,0.8180555555555529,1.005093378607814,0.04048076036970909,1.0655714949546498,47.22222222222222,0.9999999999788236,0.9779286926994903,9.873220019329665e-10,0.9970740594587864,0
150,123.19722222222222,0.7999999999999972,0.8138888888888829,0.8180555555555529,0.9779286926994903,0.03610024036059871,0.9502634520187941,47.22222222222222,0.9999999999788236,0.9949066213921861,2.6385114579308144e-11,0.9970248920908941,0
151,124.0111111111111,0.8138888888888829,0.8138888888888971,0.81527777777778,0.9982964224872131,0.03852924595349726,1.0142019526111612,47.22222222222222,0.9999999999788236,0.9982964224872305,1.3412251864686198e-10,0.997711300799343,0
152,124.825,0.8138888888888971,0.8472222222222143,0.81527777777778,0.9982964224872305,0.040116032277331695,1.0559707894566042,47.22222222222222,0.9999999999788236,1.0391822827938546,1.5808688802465554e-09,0.9968107223061498,0
153,125.67222222222222,0.8472222222222143,0.7805555555555657,0.8180555555555529,1.0356536502546627,0.03888172786232305,1.0234803028966222,66.66666666666667,1.411764705852457,0.9541595925297268,0.014310660772025585,0.9342869715204483,0
154,126.45277777777778,0.7805555555555657,0.7999999999999972,0.81527777777778,0.9574105621805891,0.03931334772558491,1.0348417945965709,69.44444444444444,1.4705882352629758,0.9812606473594487,9.128838200922473e-07,0.9990469899523261,0
155,127.25277777777778,0.7999999999999972,0.8388888888888886,0.8138888888888971,0.9829351535836044,0.04045890467465884,1.0649961894160367,50.0,1.0588235293893427,1.0307167235494772,2.314638702927141e-09,0.9993864389299045,0
156,128.09166666666667,0.8388888888888886,0.8444444444444343,0.8138888888888971,1.0307167235494772,0.037888338608647563,0.9973314049400772,44.44444444444444,0.9411764705683046,1.037542662116018,4.24437637813746e-11,0.9954160134827787,0
157,128.9361111111111,0.8444444444444343,0.8000000000000114,0.8138888888888971,1.037542662116018,0.038372008912946974,1.0100630158216541,47.22222222222222,0.9999999999788236,0.9829351535836218,0.0015060418518260121,0.9224834679272046,0
158,129.73611111111111,0.8000000000000114,0.799999999999983,0.81388888888889,0.9829351535836304,0.03869164068418019,1.0184766548244144,47.22222222222222,0.9999999999788236,0.9829351535835955,0.0013838763115927577,0.94718998675347,0
159,130.5361111111111,0.799999999999983,0.8111111111111313,0.8069444444444471,0.9913941480206296,0.041490891410937834,1.0921610855125297,66.66666666666667,1.411764705852457,1.0051635111876294,2.318644646948087e-06,0.9976440225398702,0
160,131.34722222222223,0.8111111111111313,0.7916666666666572,0.8125000000000071,0.9982905982906144,0.038035012949908735,1.0011923007251797,47.22222222222222,0.9999999999788236,0.9743589743589541,5.60754845335687e-11,0.9983633223642736,0
161,132.13888888888889,0.7916666666666572,0.8138888888888971,0.8055555555555713,0.9827586206896242,0.039402424870278084,1.0371865644420508,47.22222222222222,0.9999999999788236,1.0103448275861973,4.76709782759599e-10,0.9990903728505509,0
162,132.95277777777778,0.8138888888888971,0.7944444444444514,0.8055555555555713,1.0103448275861973,0.03810878446263574,1.003134181766535,47.22222222222222,0.9999999999788236,0.9862068965517135,7.638048526992236e-11,0.9976838746197003,0
163,133.74722222222223,0.7944444444444514,0.7805555555555372,0.8000000000000043,0.9930555555555589,0.03703515064584532,0.9748730132325739,47.22222222222222,0.9999999999788236,0.9756944444444163,1.1221842205477728e-10,0.9956440908526131,0
164,134.52777777777777,0.7805555555555372,0.7916666666666856,0.8000000000000043,0.9756944444444163,0.040370707248731985,1.0626745763302718,69.44444444444444,1.4705882352629758,0.9895833333333517,1.8962207377626328e-06,0.9991421653957193,0
165,135.31944444444446,0.7916666666666856,0.8222222222222229,0.7999999999999972,0.9895833333333606,0.03969363176880905,1.0448519780206196,72.22222222222223,1.529411764673495,1.0277777777777821,1.5841890217416221e-06,0.9987364734668811,0
166,136.14166666666668,0.8222222222222229,0.8444444444444343,0.7999999999999972,1.0277777777777821,0.039833016914497664,1.0485210009517456,50.0,1.0588235293893427,1.0555555555555467,5.724741236612374e-10,0.9993668313647315,0
167,136.98611111111111,0.8444444444444343,0.7666666666666515,0.7999999999999972,1.0555555555555467,0.04070562648064656,1.071490625816025,47.22222222222222,0.9999999999788236,0.9583333333333178,0.10030743479728699,0.5862758170755332,0
168,137.75277777777777,0.7666666666666515,0.8083333333333371,0.7972222222222172,0.9616724738675829,0.039727388926512404,1.0457405647139242,47.22222222222222,0.9999999999788236,1.0139372822299764,4.3525898441032496e-09,0.9968371190039897,0
169,138.5611111111111,0.8083333333333371,0.825000000000017,0.8013888888888943,1.0086655112651626,0.03894946456673546,1.0252633302094698,47.22222222222222,0.9999999999788236,1.0294627383015742,1.9067890322244097e-10,0.9990550844680556,0
170,139.38611111111112,0.825000000000017,0.8277777777777828,0.8013888888888943,1.0294627383015742,0.04033690517147781,1.0617848072235814,52.77777777777778,1.1176470587998617,1.032928942807625,1.83647574925061e-09,0.9992573830552791,0
171,140.2138888888889,0.8277777777777828,0.8361111111111086,0.8111111111111171,1.0205479452054782,0.03852530908904229,1.0140983228743576,47.22222222222222,0.9999999999788236,1.0308219178082085,1.265127586025372e-10,0.997435842831043,0
172,141.05,0.8361111111111086,0.8444444444444343,0.81527777777778,1.0255536626916466,0.038397113282520726,1.0107238359340305,47.22222222222222,0.9999999999788236,1.0357751277682983,8.947446950013926e-11,0.997408659261724,0
173,141.89444444444445,0.8444444444444343,0.8333333333333428,0.82361111111112,1.0252951096121183,0.03755899504570965,0.98866212329842,50.0,1.0588235293893427,1.0118043844856668,4.36689642779875e-11,0.9975354142375639,0
174,142.7277777777778,0.8333333333333428,0.8416666666666686,0.8263888888888999,1.0084033613445358,0.03848016036154379,1.0129098768912166,44.44444444444444,0.9411764705683046,1.0184873949579718,1.9808482978889153e-11,0.9990996125497666,0
175,143.56944444444446,0.8416666666666686,0.8499999999999943,0.8305555555555628,1.013377926421398,0.04028258165218574,1.0603548540029752,44.44444444444444,0.9411764705683046,1.0234113712374424,1.7343440572581414e-10,0.9981393780003733,0
176,144.41944444444445,0.8499999999999943,0.8416666666666686,0.8347222222222257,1.0183028286189573,0.03962553473785808,1.0430594658639878,52.77777777777778,1.1176470587998617,1.0083194675540745,7.024006931644067e-10,0.9978815123564837,0
177,145.26111111111112,0.8416666666666686,0.8277777777777828,0.8347222222222257,1.0083194675540745,0.03849074970844937,1.013188619338486,50.0,1.0588235293893427,0.9916805324459254,5.629785526650721e-11,0.9994811805700812,0
178,146.0888888888889,0.8277777777777828,0.8472222222222001,0.8347222222222257,0.9916805324459254,0.03872084490986853,1.0192453950887155,47.22222222222222,0.9999999999788236,1.0149750415973071,1.5557476140681814e-10,0.9977868969827008,0
179,146.9361111111111,0.8472222222222001,0.8499999999999943,0.8388888888888886,1.009933774834411,0.03936880443000626,1.0363015765496721,50.0,1.0588235293893427,1.0132450331125764,1.302327690133609e-10,0.999773143038796,0
180,147.7861111111111,0.8499999999999943,0.836111111111137,0.8416666666666686,1.0099009900990008,0.0382665810166056,1.0072878465785766,47.22222222222222,0.9999999999788236,0.993399339934022,2.6560021543220458e-11,0.9983795973492662,0
181,148.62222222222223,0.836111111111137,0.8555555555555543,0.8416666666666686,0.993399339934022,0.04011994570200311,1.0560738021900467,50.0,1.0588235293893427,1.0165016501650128,5.409706571590789e-10,0.999498950433874,0
182,149.4777777777778,0.8555555555555543,0.8499999999999943,0.8430555555555515,1.0148270181219146,0.040492059067438226,1.0658689095812606,50.0,1.0588235293893427,1.0082372322899487,8.771948722952061e-10,0.9973703210548582,0
183,150.32777777777778,0.8499999999999943,0.8444444444444343,0.8444444444444343,1.0065789473684263,0.03947018412796948,1.0389701854228777,50.0,1.0588235293893427,1.0,1.41732695024821e-10,0.9995997595170976,0
184,151.17222222222222,0.8444444444444343,0.8555555555555543,0.8458333333333172,0.9983579638752124,0.041454309442025224,1.091198141562204,50.0,1.0588235293893427,1.011494252873581,2.6812201348036524e-09,0.9983968434523112,0
185,152.02777777777777,0.8555555555555543,0.88055555555556,0.8486111111110972,1.0081833060556615,0.03901548547203653,1.0270011926932132,50.0,1.0588235293893427,1.037643207855996,2.1964595420254085e-10,0.9979127136888386,0
186,152.90833333333333,0.88055555555556,0.8083333333333371,0.8486111111110972,1.037643207855996,0.036998074918611026,0.9738970721253724,50.0,1.0588235293893427,0.9525368248772704,0.00040697582880966365,0.9315269103965493,0
187,153.71666666666667,0.8083333333333371,0.8416666666666686,0.8486111111110972,0.9525368248772704,0.038950434260424605,1.0252888553711652,47.22222222222222,0.9999999999788236,0.991816693944372,4.131036068777405e-10,0.9980815070920467,0
188,154.55833333333334,0.8416666666666686,0.8611111111111143,0.8486111111110972,0.991816693944372,0.03930270638464491,1.0345616835149065,50.0,1.0588235293893427,1.014729950900184,1.9297514974869756e-10,0.9996323065120116,0
189,155.41944444444445,0.8611111111111143,0.8388888888888744,0.8499999999999943,1.013071895424847,0.040735797572248635,1.072284816806738,50.0,1.0588235293893427,0.9869281045751529,4.6359840966125887e-10,0.9989802569810782,0
190,156.25833333333333,0.8388888888888744,0.86944444444444,0.8472222222222143,0.9901639344262216,0.03784523385175003,0.9961967622152995,50.0,1.0588235293893427,1.0262295081967256,8.124304701206952e-11,0.9987341828028151,0
191,157.12777777777777,0.86944444444444,0.830555555555577,0.8527777777777743,1.019543973941367,0.039882132423065784,1.0498138641641064,47.22222222222222,0.9999999999788236,0.9739413680782051,0.0015505184419453144,0.9239754037274492,0
192,157.95833333333334,0.830555555555577,0.8194444444444287,0.8472222222222143,0.9803278688524935,0.039415213267027044,1.0375231922849424,50.0,1.0588235293893427,0.9672131147540888,5.633569166718644e-10,0.9977279144749325,0
193,158.77777777777777,0.8194444444444287,0.8638888888889085,0.8430555555555515,0.9719934102141541,0.03796032661572491,0.9992263389190746,50.0,1.0588235293893427,1.02471169686988,2.1243143355498262e-10,0.9984495145561132,0
194,159.64166666666668,0.8638888888889085,0.799999999999983,0.8486111111111114,1.018003273322445,0.040135018787874725,1.0564705697037768,66.66666666666667,1.411764705852457,0.9427168576104542,0.04578389599919319,0.9150165074433114,0
195,160.44166666666666,0.799999999999983,0.8166666666666629,0.8402777777777715,0.9520661157024662,0.038773145827284264,1.0206221075380173,50.0,1.0588235293893427,0.9719008264462838,1.1366889651753809e-09,0.9970682763984906,0
196,161.25833333333333,0.8166666666666629,0.830555555555577,0.8347222222222257,0.9783693843593924,0.03727117330411556,0.9810858169081783,44.44444444444444,0.9411764705683046,0.9950083194675756,2.480615018951582e-11,0.996822824079909,0
197,162.0888888888889,0.830555555555577,0.7972222222222172,0.8347222222222257,0.9950083194675756,0.03964342153674798,1.043530298498034,50.0,1.0588235293893427,0.9550748752079766,3.8508793376301753e-10,0.9986430132009891,0
198,162.88611111111112,0.7972222222222172,0.8194444444444287,0.830555555555577,0.959866220735755,0.03854172312425715,1.0145303880797147,50.0,1.0588235293893427,0.9866220735785508,6.159700527419432e-10,0.9980202924109642,0
199,163.70555555555555,0.8194444444444287,0.8222222222222229,0.8250000000000028,0.9932659932659708,0.036726936485862886,0.9667599190065963,47.22222222222222,0.9999999999788236,0.996632996632994,1.2951482768197575e-11,0.9986012456999418,0
200,164.52777777777777,0.8222222222222229,0.8138888888888971,0.8208333333333258,1.0016920473773365,0.0399608239069129,1.051885253172548,50.0,1.0588235293893427,0.9915397631133863,7.197945017800578e-10,0.9985262525318431,0
201,165.34166666666667,0.8138888888888971,0.8222222222222229,0.8194444444444287,0.99322033898308,0.03841997306617532,1.011325572008667,50.0,1.0588235293893427,1.0033898305084947,2.753233474539485e-10,0.9978072621910542,0
202,166.1638888888889,0.8222222222222229,0.8138888888888971,0.8194444444444287,1.0033898305084947,0.039088972293981665,1.0289355798441555,50.0,1.0588235293893427,0.99322033898308,4.0578779225697303e-10,0.9976519599985747,0
203,166.9777777777778,0.8138888888888971,0.7916666666666572,0.8180555555555458,0.9949066213922121,0.03884525255979413,1.0225201667161332,50.0,1.0588235293893427,0.967741935483871,2.8469496204941436e-10,0.9983791150212451,0
204,167.76944444444445,0.7916666666666572,0.8055555555555429,0.81527777777778,0.9710391822827796,0.03544165808082128,0.9329276485901068,47.22222222222222,0.9999999999788236,0.988074957410544,4.113861334920088e-11,0.9949469019087254,0
205,168.575,0.8055555555555429,0.6333333333333542,0.81527777777778,0.988074957410544,0.03804176210376748,1.0013699581086197,50.0,1.0588235293893427,0.7768313458262586,3.0788677163329226e-10,0.9957451420144752,0
206,169.20833333333334,0.6333333333333542,0.8916666666666515,0.8138888888888971,0.7781569965870485,0.03652871295307291,0.9615420983865998,47.22222222222222,0.9999999999788236,1.095563139931711,8.573444461035251e-07,0.9980764849107382,0
207,170.1,0.8916666666666515,0.8166666666666629,0.8138888888888971,1.095563139931711,0.03991995876395633,1.0508095636085655,50.0,1.0588235293893427,1.0034129692832616,4.7577209533189446e-11,0.9995772298902648,0
208,170.91666666666666,0.8166666666666629,0.8222222222222229,0.81527777777778,1.0017035775127694,0.038512064722509835,1.0137496925789575,50.0,1.0588235293893427,1.0085178875638823,1.3196761738942797e-10,0.9995170416462764,0
209,171.73888888888888,0.8222222222222229,0.7888888888888914,0.81527777777778,1.0085178875638823,0.03624706343882431,0.95412826299393,47.22222222222222,0.9999999999788236,0.9676320272572407,9.697917816020585e-12,0.9966359574322865,0
210,172.52777777777777,0.7888888888888914,0.8055555555555713,0.8138888888888971,0.9692832764505053,0.03919122239542654,1.0316271002716575,50.0,1.0588235293893427,0.98976109215018,7.601022589120987e-10,0.9993354796698227,0
211,173.33333333333334,0.8055555555555713,0.8138888888888687,0.8097222222222342,0.994854202401377,0.03886729764922975,1.0231004576664953,50.0,1.0588235293893427,1.005145797598588,2.850638891604973e-10,0.9993711820717933,0
212,174.1472222222222,0.8138888888888687,0.7888888888888914,0.80972222222222,1.0051457975986056,0.03832020924296558,1.0086994976644819,52.77777777777778,1.1176470587998617,0.9742710120068668,4.0325323635848065e-10,0.9980611469084699,0
213,174.9361111111111,0.7888888888888914,0.8138888888888971,0.8055555555555571,0.9793103448275874,0.03781321834268827,0.9953540207860104,50.0,1.0588235293893427,1.010344827586215,2.7021965220974664e-10,0.9983583636943927,0
214,175.75,0.8138888888888971,0.8111111111111029,0.80972222222222,1.0051457975986406,0.039919658605763374,1.0508016625708512,50.0,1.0588235293893427,1.0017152658662019,6.282818709735238e-10,0.9993298578463619,0
215,176.5611111111111,0.8111111111111029,0.8083333333333371,0.8124999999999858,0.9982905982906056,0.03876547874439484,1.0204202875894341,52.77777777777778,1.1176470587998617,0.994871794871817,5.479125486651526e-10,0.9990199809336526,0
216,177.36944444444444,0.8083333333333371,0.8111111111111029,0.8124999999999858,0.994871794871817,0.03753261159188636,0.9879676339638376,47.22222222222222,0.9999999999788236,0.9982905982906056,6.343746361547886e-11,0.9975196549379156,0
217,178.18055555555554,0.8111111111111029,0.825000000000017,0.8111111111111029,1.0,0.03965642404604329,1.043872562406652,50.0,1.0588235293893427,1.0171232876712641,8.928221495452249e-10,0.9982721351666187,0
218,179.00555555555556,0.825000000000017,1.424999999999983,0.8111111111111029,1.0171232876712641,0.03901462306433281,1.0269784916110762,50.0,1.0588235293893427,1.7568493150684898,0.00017629843205213547,0.9985359151277409,0
219,180.43055555555554,1.424999999999983,0.8972222222222399,0.8111111111111029,1.7568493150684898,0.038013598836305854,1.0006286188961688,50.0,1.0588235293893427,1.1061643835616768,2.4805833905919012e-21,0.9988795265683504,0
220,181.32777777777778,0.8972222222222399,0.8305555555555486,0.8124999999999858,1.1042735042735454,0.03980458745009208,1.0477726546605508,47.22222222222222,0.9999999999788236,1.0222222222222315,1.561886384116029e-11,0.9984182240053591,0
221,182.15833333333333,0.8305555555555486,0.8194444444444571,0.8138888888888829,1.0204778156996577,0.04012607372193075,1.0562351095196465,50.0,1.0588235293893427,1.0068259385665759,7.394193035636931e-10,0.998241483739961,0
222,182.9777777777778,0.8194444444444571,0.8027777777777771,0.8166666666666771,1.0034013605442202,0.037815783052871275,0.9954215314265931,47.22222222222222,0.9999999999788236,0.9829931972788982,4.284377366770009e-11,0.9979470075596243,0
223,183.78055555555557,0.8027777777777771,0.7972222222222172,0.8166666666666771,0.9829931972788982,0.03756464550776467,0.9888108599141398,47.22222222222222,0.9999999999788236,0.9761904761904575,5.593725135866201e-11,0.9981168296060603,0
224,184.57777777777778,0.7972222222222172,0.8333333333333144,0.81527777777778,0.9778534923338923,0.03919143894642328,1.0316328005244992,69.44444444444444,1.4705882352629758,1.0221465076660727,6.582679930033919e-07,0.9983467181053279,0
225,185.4111111111111,0.8333333333333144,0.8083333333333371,0.8222222222222371,1.013513513513472,0.03896405668370322,1.025647437221045,47.22222222222222,0.9999999999788236,0.983108108108095,8.00462196526297e-11,0.9981978181999434,0
226,186.21944444444443,0.8083333333333371,0.8055555555555713,0.8222222222222371,0.983108108108095,0.03846597158012407,1.0125363868457997,47.22222222222222,0.9999999999788236,0.9797297297297313,1.1357847301551871e-10,0.9983777285115194,0
227,187.025,0.8055555555555713,0.8277777777777828,0.8222222222222371,0.9797297297297313,0.037669539100206074,0.9915719647226499,47.22222222222222,0.9999999999788236,1.0067567567567448,1.4380850676953827e-10,0.9968478386244911,0
228,187.8527777777778,0.8277777777777828,0.8222222222222229,0.82361111111112,1.0050590219224236,0.03973463375154599,1.0459312696061056,50.0,1.0588235293893427,0.9983136593591806,3.125754655108892e-10,0.9996692516768501,0
229,188.675,0.8222222222222229,0.8083333333333087,0.82083333333334,1.0016920473773192,0.03722244800104023,0.979803225040686,47.22222222222222,0.9999999999788236,0.9847715736040229,3.3298166307593746e-11,0.9969227467181312,0
230,189.48333333333332,0.8083333333333087,0.8444444444444628,0.8138888888888971,0.9931740614334068,0.038247880972271775,1.0067956069562345,44.44444444444444,0.9411764705683046,1.037542662116053,6.859198625752683e-11,0.9984678249113602,0
231,190.32777777777778,0.8444444444444628,0.8444444444444343,0.8138888888888971,1.037542662116053,0.03971920216341576,1.0455250652689518,50.0,1.0588235293893427,1.037542662116018,2.357518069651121e-10,0.9993317794078411,0
232,191.17222222222222,0.8444444444444343,1.5916666666666686,0.81527777777778,1.0357751277682983,0.038716563352902564,1.0191326920412604,50.0,1.0588235293893427,1.9522998296422458,0.00014652877871412784,0.9996545414189533,0
233,192.76388888888889,1.5916666666666686,0.8416666666666686,0.8250000000000028,1.9292929292929248,0.037448231701925704,0.9857465095415611,47.22222222222222,0.9999999999788236,1.020202020202019,1.3343830040923876e-08,0.5657379530916483,0
234,193.60555555555555,0.8416666666666686,0.8666666666666742,0.8305555555555486,1.0133779264214153,0.03910086496550424,1.0292486295906913,50.0,1.0588235293893427,1.0434782608695832,1.6202042485424784e-10,0.999531586115237,0
235,194.47222222222223,0.8666666666666742,0.86388888888888,0.8347222222222257,1.038269550748757,0.039842864250728374,1.0487802115172797,50.0,1.0588235293893427,1.0349417637271066,3.5707864443068615e-10,0.9970645646129851,0
236,195.3361111111111,0.86388888888888,0.8194444444444571,0.8430555555555515,1.0247116968698462,0.038596119823033126,1.0159622675974394,50.0,1.0588235293893427,0.9719934102141877,8.656909217252817e-11,0.9967672282783353,0
237,196.15555555555557,0.8194444444444571,0.8277777777777544,0.8430555555555515,0.9719934102141877,0.039102910628294844,1.0293024773924138,47.22222222222222,0.9999999999788236,0.9818780889620858,2.842451551909875e-10,0.9976230883694162,0
238,196.98333333333332,0.8277777777777544,0.8222222222222229,0.8430555555555515,0.9818780889620858,0.038385525389378145,1.0104188088419863,69.44444444444444,1.4705882352629758,0.9752883031301538,8.789827177224652e-08,0.9987971090565897,0
239,197.80555555555554,0.8222222222222229,0.825000000000017,0.8430555555555515,0.9752883031301538,0.039713788966099194,1.0453825741520753,72.22222222222223,1.529411764673495,0.9785831960461535,1.7261996845263639e-06,0.9976913150287865,0
240,198.63055555555556,0.825000000000017,0.6861111111111029,0.8430555555555515,0.9785831960461535,0.03979465281687382,1.0475111461840911,69.44444444444444,1.4705882352629758,0.8138385502471112,1.6433590133146936e-07,0.9988825988034435,0
241,199.31666666666666,0.6861111111111029,0.9749999999999943,0.8347222222222115,0.8219633943427628,0.03895431179544495,1.0253909233844791,52.77777777777778,1.1176470587998617,1.1680532445923544,2.5185085178236477e-05,0.9981490159767943,0
242,200.29166666666666,0.9749999999999943,0.6611111111111256,0.8347222222222115,1.1680532445923544,0.039893743252598,1.0501194950087178,72.22222222222223,1.529411764673495,0.7920133111481141,7.050748429549003e-09,0.9967913125219736,0
243,200.95277777777778,0.6611111111111256,1.0444444444444514,0.8263888888888857,0.8000000000000206,0.03714424668835225,0.9777447387645561,50.0,1.0588235293893427,1.2638655462185007,9.365056757815182e-05,0.997647483891392,0
244,201.99722222222223,1.0444444444444514,0.8888888888888857,0.8263888888888857,1.2638655462185007,0.04214762655174554,1.1094482668645718,52.77777777777778,1.1176470587998617,1.0756302521008407,9.707768616751267e-11,0.9957128064946869,0
245,202.88611111111112,0.8888888888888857,0.86388888888888,0.8263888888888857,1.0756302521008407,0.03872592245914058,1.0193790509716365,52.77777777777778,1.1176470587998617,1.0453781512604976,1.4431271455617178e-10,0.996933691480976,0
246,203.75,0.86388888888888,0.875,0.8263888888888857,1.0453781512604976,0.03607669418395927,0.9496436480819855,47.22222222222222,0.9999999999788236,1.0588235294117687,4.147872583598611e-12,0.9974243591881875,0
247,204.625,0.875,0.8499999999999943,0.8458333333333172,1.0344827586207093,0.038037450034529255,1.0012564518893057,52.77777777777778,1.1176470587998617,1.0049261083743966,1.0008326112309618e-10,0.9964909209748962,0
248,205.475,0.8499999999999943,0.8277777777777828,0.8569444444444372,0.991896272285253,0.03683554226960739,0.9696187395002931,50.0,1.0588235293893427,0.9659643435980692,1.2051518637201664e-11,0.9985025721320414,0
249,206.30277777777778,0.8277777777777828,0.8583333333333201,0.8569444444444372,0.9659643435980692,0.03691696346791483,0.971761982542397,50.0,1.0588235293893427,1.0016207455429427,7.610476832065061e-11,0.9975492144393152,0
250,207.1611111111111,0.8583333333333201,0.8333333333333428,0.8611111111111001,0.9967741935483845,0.038414439492949363,1.0111799122473144,52.77777777777778,1.1176470587998617,0.9677419354838944,1.4388862323855278e-10,0.9982534212097038,0
251,207.99444444444444,0.8333333333333428,0.8111111111111029,0.8611111111111001,0.9677419354838944,0.03711897991443757,0.9770796436969968,47.22222222222222,0.9999999999788236,0.9419354838709703,4.192904010102971e-11,0.9959804994625439,0
252,208.80555555555554,0.8111111111111029,0.8055555555555713,0.8541666666666572,0.9495934959349602,0.035697080412264805,0.9396511081564626,50.0,1.0588235293893427,0.9430894308943379,1.0389737681304467e-10,0.9941883039877066,0
253,209.61111111111111,0.8055555555555713,0.8333333333333428,0.8541666666666572,0.9430894308943379,0.03588480237588384,0.9445924968947788,50.0,1.0588235293893427,0.9756097560975829,2.4094787276496277e-10,0.9939873196705307,0
254,210.44444444444446,0.8333333333333428,0.8305555555555486,0.8416666666666686,0.9900990099009991,0.033936283044341195,0.8933017939016212,47.22222222222222,0.9999999999788236,0.9867986798679763,3.2502301631348596e-12,0.993195294425747,0
255,211.275,0.8305555555555486,0.8305555555555486,0.8333333333333428,0.996666666666647,0.03675830709050263,0.9675856846735035,50.0,1.0588235293893427,0.996666666666647,2.468386259280031e-11,0.9981715411056791,0
256,212.10555555555555,0.8305555555555486,0.8361111111111086,0.8319444444444457,0.9983305509181871,0.03764746908077329,0.9909910175421648,47.22222222222222,0.9999999999788236,1.0050083472454046,3.311127066973896e-11,0.9981655497633108,0
257,212.94166666666666,0.8361111111111086,0.8305555555555486,0.8319444444444457,1.0050083472454046,0.0404930533741475,1.0658950826293203,50.0,1.0588235293893427,0.9983305509181871,1.5196284230967194e-09,0.9973002448398383,0
258,213.7722222222222,0.8305555555555486,0.8333333333333428,0.8305555555555486,1.0,0.03814580883976022,1.0041087711893122,50.0,1.0588235293893427,1.003344481605371,8.882475310834081e-11,0.9985658604134237,0
259,214.60555555555555,0.8333333333333428,0.8416666666666686,0.8319444444444457,1.0016694490818128,0.03993259554121649,1.0511422003849882,50.0,1.0588235293893427,1.0116861435726219,3.74790920520951e-10,0.999697398150877,0
260,215.44722222222222,0.8416666666666686,0.8416666666666686,0.8319444444444457,1.0116861435726219,0.037682283102033434,0.9919074239619246,50.0,1.0588235293893427,1.0116861435726219,3.837357168134936e-11,0.9986229977237582,0
261,216.2888888888889,0.8416666666666686,0.8333333333333428,0.8319444444444457,1.0116861435726219,0.03618813047061599,0.9525769756548996,50.0,1.0588235293893427,1.0016694490818128,1.2501111257279263e-11,0.9974065368006053,0
262,217.12222222222223,0.8333333333333428,0.8277777777777544,0.8333333333333428,1.0,0.038904126807375816,1.024069908357273,47.22222222222222,0.9999999999788236,0.993333333333294,1.0572915459805543e-10,0.9978887544363115,0
263,217.95,0.8277777777777544,0.8555555555555543,0.8333333333333428,0.993333333333294,0.037933574637257925,0.9985221489427077,47.22222222222222,0.9999999999788236,1.0266666666666535,1.0031756675354941e-10,0.9971946538321804,0
264,218.80555555555554,0.8555555555555543,0.8527777777777885,0.8333333333333428,1.0266666666666535,0.03836706503957341,1.0099328786776522,50.0,1.0588235293893427,1.0233333333333345,5.762621282934255e-11,0.9983950837798445,0
265,219.65833333333333,0.8527777777777885,0.8388888888889028,0.8347222222222257,1.0216306156406076,0.03879208199302201,1.0211205625633082,47.22222222222222,0.9999999999788236,1.0049916805324584,5.051948095968761e-11,0.9979055582524515,0
266,220.49722222222223,0.8388888888889028,0.8388888888888744,0.8375000000000057,1.001658374792713,0.03934065478015489,1.0355605957923781,50.0,1.0588235293893427,1.001658374792679,3.440311369118376e-10,0.9979653613312112,0
267,221.3361111111111,0.8388888888888744,0.8333333333333428,0.8388888888888886,0.999999999999983,0.037901066706756324,0.997666445547166,50.0,1.0588235293893427,0.9933774834437202,5.0441203297557635e-11,0.9986230677304258,0
268,222.16944444444445,0.8333333333333428,0.8416666666666686,0.8388888888888886,0.9933774834437202,0.03739327407257753,0.9842998646977177,47.22222222222222,0.9999999999788236,1.0033112582781483,3.4223381073505976e-11,0.9974839177671362,0
269,223.01111111111112,0.8416666666666686,0.86388888888888,0.8402777777777857,1.0016528925619763,0.04059013519354732,1.0684505588230973,69.44444444444444,1.4705882352629758,1.0280991735536988,6.951349291739461e-07,0.9990459465713295,0
270,223.875,0.86388888888888,0.6722222222222172,0.8402777777777857,1.0280991735536988,0.03921605259256089,1.032280703367025,50.0,1.0588235293893427,0.7999999999999865,4.469482423052895e-11,0.9988338782142732,0
271,224.54722222222222,0.6722222222222172,0.9833333333333485,0.8388888888888886,0.8013245033112526,0.04015800775459074,1.0570757062527774,80.55555555555556,1.7058823529050522,1.1721854304635946,0.9876894950866699,0.8113001728556104,1
272,225.53055555555557,0.9833333333333485,0.8388888888888744,0.8402777777777857,1.1702479338843046,0.04104435208404445,1.0804068700835658,50.0,1.0588235293893427,0.9983471074379898,8.07076887959779e-12,0.9982995282773838,0
273,226.36944444444444,0.8388888888888744,0.8472222222222285,0.8402777777777857,0.9983471074379898,0.03954971091658262,1.0410635620852107,50.0,1.0588235293893427,1.0082644628099153,2.8186805667296255e-10,0.9991828665698042,0
274,227.21666666666667,0.8472222222222285,0.8194444444444287,0.8402777777777857,1.0082644628099153,0.03815044844533328,1.0042308991187614,50.0,1.0588235293893427,0.9752066115702199,3.325063141490503e-11,0.9993116804072324,0
275,228.0361111111111,0.8194444444444287,0.8166666666666913,0.8388888888888886,0.9768211920529617,0.041274124410694106,1.0864551468296342,50.0,1.0588235293893427,0.9735099337748642,4.25926227620721e-09,0.9983358455643238,0
276,228.8527777777778,0.8166666666666913,0.8166666666666629,0.8388888888888744,0.9735099337748807,0.03764710418310211,0.990981412372859,47.22222222222222,0.9999999999788236,0.9735099337748467,3.813163326760183e-11,0.99876836254083,0
277,229.66944444444445,0.8166666666666629,0.8194444444444287,0.8361111111111086,0.97674418604651,0.03839686668826413,1.010717344855102,50.0,1.0588235293893427,0.9800664451827084,1.339440780512291e-10,0.9995528373872185,0
278,230.48888888888888,0.8194444444444287,0.8138888888888971,0.8291666666666515,0.9882747068676707,0.037548520019904594,0.9883863901154254,52.77777777777778,1.1176470587998617,0.9815745393635119,2.163421525258613e-10,0.9977392809883365,0
279,231.30277777777778,0.8138888888888971,0.8138888888888971,0.8194444444444287,0.99322033898308,0.03786415912007175,0.9966949303888668,50.0,1.0588235293893427,0.99322033898308,1.6169811323241134e-10,0.9974320103788841,0
280,232.11666666666667,0.8138888888888971,0.8166666666666629,0.81805555555556,0.9949066213921948,0.037453404093089136,0.9858826619392476,50.0,1.0588235293893427,0.99830220713072,1.425522755393871e-10,0.9966585629817906,0
281,232.93333333333334,0.8166666666666629,0.799999999999983,0.81805555555556,0.99830220713072,0.035256829628334395,0.9280624254908396,50.0,1.0588235293893427,0.9779286926994646,8.022229408544135e-11,0.9921348780782187,0
282,233.73333333333332,0.799999999999983,0.7888888888888914,0.8166666666666771,0.9795918367346605,0.036810778510649886,0.9689668852512116,47.22222222222222,0.9999999999788236,0.9659863945578139,9.262934863585315e-11,0.9952210068108218,0
283,234.5222222222222,0.7888888888888914,0.8000000000000114,0.8166666666666629,0.9659863945578308,0.03362630330536257,0.8851422244950083,50.0,1.0588235293893427,0.9795918367347124,1.9294801312241816e-09,0.9836024681323277,0
284,235.32222222222222,0.8000000000000114,0.8027777777777771,0.81527777777778,0.9812606473594662,0.029794976838075634,0.7842905548593474,50.0,1.0588235293893427,0.9846678023850051,8.486615854508273e-08,0.9647998114767716,0
285,236.125,0.8027777777777771,0.8055555555555429,0.8138888888888971,0.9863481228668834,0.03462895280194652,0.9115348790112003,50.0,1.0588235293893427,0.9897610921501452,6.483984876792803e-11,0.99250042917626,0
286,236.93055555555554,0.8055555555555429,0.8111111111111313,0.80972222222222,0.9948542024013594,0.03547140805843556,0.9337107546343557,47.22222222222222,0.9999999999788236,1.001715265866237,9.778790624470624e-12,0.9969564044923445,0
287,237.74166666666667,0.8111111111111313,0.8027777777777771,0.8083333333333371,1.0034364261168587,0.03741895205483067,0.9849757839662049,50.0,1.0588235293893427,0.9931271477663176,1.4177109486368522e-10,0.9965360294090638,0
288,238.54444444444445,0.8027777777777771,0.799999999999983,0.80416666666666,0.9982728842832544,0.037775215501390326,0.9943536753368505,50.0,1.0588235293893427,0.9948186528497279,1.0672885492057915e-10,0.9988937531427734,0
289,239.34444444444443,0.799999999999983,0.8111111111111313,0.8027777777777771,0.9965397923875228,0.03874222949240749,1.0198082995741282,47.22222222222222,0.9999999999788236,1.0103806228373962,1.7068368940442724e-10,0.9990577252875483,0
290,240.15555555555557,0.8111111111111313,0.8277777777777544,0.8027777777777771,1.0103806228373962,0.040853691168809436,1.075388119580341,50.0,1.0588235293893427,1.0311418685120823,6.71639588389894e-09,0.9964252221478915,0
291,240.98333333333332,0.8277777777777544,0.7833333333333599,0.8027777777777771,1.0311418685120823,0.03820666189979102,1.0057106009365149,50.0,1.0588235293893427,0.9757785467128366,8.561260034234408e-11,0.9984699239315423,0
292,241.76666666666668,0.7833333333333599,0.7972222222222172,0.8027777777777771,0.9757785467128366,0.035892251333509345,0.9447885751512238,44.44444444444444,0.9411764705683046,0.993079584775081,1.558134350709839e-11,0.9965477721086295,0
293,242.5638888888889,0.7972222222222172,0.8277777777777828,0.8027777777777771,0.993079584775081,0.038646755306588024,1.0172951409776962,50.0,1.0588235293893427,1.0311418685121179,2.9587729488689263e-10,0.9996995696681709,0
294,243.39166666666668,0.8277777777777828,0.7916666666666572,0.80416666666666,1.029360967184816,0.03643881795238359,0.959175800189663,47.22222222222222,0.9999999999788236,0.9844559585492192,8.416429879420928e-12,0.9969318567241867,0
295,244.18333333333334,0.7916666666666572,0.8305555555555486,0.80416666666666,0.9844559585492192,0.03821234567341766,1.0058602144098046,47.22222222222222,0.9999999999788236,1.0328151986183074,2.181620717411903e-10,0.9986474995797079,0
296,245.01388888888889,0.8305555555555486,0.8083333333333371,0.8069444444444542,1.029259896729755,0.03701522117817055,0.974348411607755,41.666666666666664,0.8823529411577855,1.0017211703958617,3.71821410466433e-12,0.9949800062327492,0
297,245.82222222222222,0.8083333333333371,0.8249999999999886,0.8055555555555571,1.0034482758620717,0.037932251246658125,0.9984873134483405,47.22222222222222,0.9999999999788236,1.0241379310344667,9.080204643741041e-11,0.9982443373408106,0
298,246.6472222222222,0.8249999999999886,0.8500000000000227,0.8097222222222342,1.0188679245282728,0.0391405690937323,1.0302937578660858,47.22222222222222,0.9999999999788236,1.0497427101200811,4.483316495829115e-10,0.9967169129199658,0
299,247.49722222222223,0.8500000000000227,0.8361111111111086,0.81805555555556,1.039049235993231,0.03843976419119685,1.0118465320519918,55.55555555555556,1.1764705882103808,1.0220713073005008,2.711760149765041e-09,0.993573876268607,0
300,248.33333333333334,0.8361111111111086,0.8416666666666686,0.8263888888888715,1.011764705882371,0.03709803486112467,0.9765283089007454,52.77777777777778,1.1176470587998617,1.0184873949580069,8.920659350097893e-11,0.997424403259587,0
301,249.175,0.8416666666666686,0.8277777777777544,0.8263888888888857,1.0184873949579893,0.038072201812641926,1.0021712198881687,50.0,1.0588235293893427,1.0016806722688831,9.817854862426145e-11,0.9969592534618368,0
302,250.00277777777777,0.8277777777777544,0.836111111111137,0.8277777777777686,0.9999999999999828,0.03677852395623665,0.9681178514521597,52.77777777777778,1.1176470587998617,1.0100671140940023,9.541527290490848e-11,0.9971402841432312,0
303,250.8388888888889,0.836111111111137,0.8666666666666458,0.8291666666666657,1.008375209380267,0.03622076536725084,0.9534360211688003,50.0,1.0588235293893427,1.0452261306532424,4.628321337296626e-11,0.9962354877464943,0
304,251.70555555555555,0.8666666666666458,0.8638888888889085,0.8333333333333286,1.039999999999981,0.03758748671279339,0.9894121069452413,47.22222222222222,0.9999999999788236,1.0366666666666962,9.417956865764854e-12,0.9985459985134146,0
305,252.56944444444446,0.8638888888889085,0.8361111111111086,0.8361111111111228,1.0332225913621351,0.03955660558128957,1.0412450497379104,55.55555555555556,1.1764705882103808,0.999999999999983,3.241270807308183e-09,0.9947847340425395,0
306,253.40555555555557,0.8361111111111086,0.8472222222222001,0.8361111111111228,0.999999999999983,0.03570355468832305,0.9398215299557353,47.22222222222222,0.9999999999788236,1.01328903654481,9.894890462547323e-12,0.9958539731511726,0
307,254.25277777777777,0.8472222222222001,0.8583333333333485,0.8388888888889028,1.009933774834394,0.03829127964715634,1.0079379864583349,52.77777777777778,1.1176470587998617,1.023178807947021,4.146294696472097e-10,0.996463328439487,0
308,255.11111111111111,0.8583333333333485,0.8555555555555543,0.8444444444444343,1.0164473684210829,0.03735317905106692,0.9832444469728256,50.0,1.0588235293893427,1.0131578947368527,1.9623467781282322e-11,0.9983707944065905,0
309,255.96666666666667,0.8555555555555543,0.8777777777777658,0.8444444444444343,1.0131578947368527,0.03697661091937444,0.9733320771612127,47.22222222222222,0.9999999999788236,1.0394736842105246,8.550534412454791e-12,0.9989544639907965,0
310,256.84444444444443,0.8777777777777658,0.8805555555555884,0.8513888888888772,1.030995106035889,0.03832489841166759,1.0088229302398155,50.0,1.0588235293893427,1.0342577487765618,3.477996016187923e-11,0.9984810613570028,0
311,257.725,0.8805555555555884,0.8722222222222058,0.8569444444444514,1.027552674230176,0.037404024337503596,0.9845828429758875,50.0,1.0588235293893427,1.01782820097242,9.802282249782301e-12,0.998669120691674,0
312,258.59722222222223,0.8722222222222058,0.9027777777777715,0.8611111111111285,1.0129032258064121,0.037603377277589944,0.9898303928848159,47.22222222222222,0.9999999999788236,1.048387096774165,2.055886363927506e-11,0.9978200808145464,0
313,259.5,0.9027777777777715,0.8888888888889142,0.8652777777777771,1.0433386837881156,0.03932549695913336,1.0351615978027493,50.0,1.0588235293893427,1.0272873194221808,7.11204775627472e-11,0.9970681607411187,0
314,260.3888888888889,0.8888888888889142,0.8805555555555316,0.8680555555555571,1.0240000000000273,0.03784966311590307,0.996313353346049,50.0,1.0588235293893427,1.0143999999999704,2.6520941692753652e-11,0.9969249452199116,0
315,261.26944444444445,0.8805555555555316,0.8333333333333144,0.8749999999999858,1.0063492063491952,0.034802723988899775,0.9161090426823051,47.22222222222222,0.9999999999788236,0.9523809523809462,4.1753186737041037e-13,0.9942077408328029,0
316,262.10277777777776,0.8333333333333144,0.8666666666666742,0.8749999999999858,0.9523809523809462,0.03736169193666215,0.9834685309116461,50.0,1.0588235293893427,0.9904761904762153,1.0353832374798699e-10,0.9982628140717016,0
317,262.96944444444443,0.8666666666666742,0.8444444444444343,0.8749999999999858,0.9904761904762153,0.03497840217349848,0.9207334040847118,50.0,1.0588235293893427,0.9650793650793692,8.509258402067399e-12,0.9937761820346633,0
318,263.81388888888887,0.8444444444444343,0.8666666666666742,0.8749999999999858,0.9650793650793692,0.03503830325796617,0.9223101750628925,52.77777777777778,1.1176470587998617,0.9904761904762153,9.485390251029457e-10,0.9880810525459855,0
319,264.68055555555554,0.8666666666666742,0.8222222222222513,0.8749999999999858,0.9904761904762153,0.036854476183884176,0.9701171352605752,50.0,1.0588235293893427,0.9396825396825882,1.5741635425725597e-11,0.9966954303398194,0
320,265.5027777777778,0.8222222222222513,0.8111111111110745,0.86944444444444,0.9456869009585047,0.03368931532029107,0.8868008842221045,47.22222222222222,0.9999999999788236,0.9329073482427741,4.331720745986978e-12,0.9935213226536936,0
321,266.31388888888887,0.8111111111110745,0.8083333333333371,0.8666666666666742,0.9358974358973855,0.0371052267146056,0.9767176194274051,50.0,1.0588235293893427,0.9326923076923039,2.330314552434487e-10,0.9964753022386683,0
322,267.1222222222222,0.8083333333333371,0.7944444444444798,0.8555555555555543,0.9448051948052006,0.03770357790132864,0.9924679650909082,52.77777777777778,1.1176470587998617,0.9285714285714712,9.959163493888923e-10,0.9963886501883112,0
323,267.9166666666667,0.7944444444444798,0.8194444444444002,0.8388888888888744,0.9470198675497274,0.03294859975808298,0.867303093623565,47.22222222222222,0.9999999999788236,0.9768211920529444,1.394329096626734e-10,0.9867723542197006,0
324,268.7361111111111,0.8194444444444002,0.8194444444444571,0.8277777777777828,0.9899328859059808,0.03532661451463848,0.9298993669154855,50.0,1.0588235293893427,0.9899328859060494,1.6371052083408166e-11,0.9963289607437291,0
325,269.55555555555554,0.8194444444444571,0.7972222222222172,0.8208333333333542,0.9983079526226635,0.0363965498911467,0.9580631817311736,50.0,1.0588235293893427,0.9712351945854176,3.4002030357971336e-11,0.9966084368165242,0
326,270.35277777777776,0.7972222222222172,0.8138888888889255,0.8194444444444287,0.9728813559322159,0.03703199323684555,0.9747899010331651,50.0,1.0588235293893427,0.9932203389831147,9.006930618005171e-11,0.998373563681526,0
327,271.1666666666667,0.8138888888889255,0.8194444444444002,0.8166666666666629,0.9965986394558318,0.0381635068612038,1.0045746346512419,47.22222222222222,0.9999999999788236,1.0034013605441683,9.625501090626543e-11,0.9977974495142876,0
328,271.9861111111111,0.8194444444444002,0.8194444444444571,0.8166666666666629,1.0034013605441683,0.03804804569613081,1.0015353605577615,47.22222222222222,0.9999999999788236,1.0034013605442378,3.825737643348148e-11,0.999196404877134,0
329,272.80555555555554,0.8194444444444571,0.8444444444444343,0.8166666666666629,1.0034013605442378,0.03803376897162484,1.0011595555942199,47.22222222222222,0.9999999999788236,1.0340136054421694,4.9158871417986916e-11,0.9993712762624622,0
330,273.65,0.8444444444444343,0.8277777777777828,0.8166666666666629,1.0340136054421694,0.03913741339444576,1.0302106906713078,47.22222222222222,0.9999999999788236,1.0136054421768816,5.753077528258821e-11,0.9989269791243596,0
331,274.47777777777776,0.8277777777777828,0.5944444444444343,0.8194444444444002,1.0101694915254844,0.03941765064833304,1.037587351258694,47.22222222222222,0.9999999999788236,0.7254237288135861,7.327723844374745e-11,0.9977434368879704,0
332,275.0722222222222,0.5944444444444343,0.9166666666666856,0.8194444444444002,0.7254237288135861,0.036573100204712515,0.9627105001076784,50.0,1.0588235293893427,1.1186440677966936,3.063866824959405e-05,0.9987620342767736,0
333,275.9888888888889,0.9166666666666856,0.8500000000000227,0.8194444444444287,1.118644067796655,0.0400542475654532,1.0543444359197527,50.0,1.0588235293893427,1.0372881355932682,9.171621795367457e-11,0.9965648877971938,0
334,276.8388888888889,0.8500000000000227,0.8111111111110745,0.8194444444444571,1.0372881355932322,0.03853652804073936,1.01439363835318,50.0,1.0588235293893427,0.9898305084745163,4.6054524777128236e-11,0.999194776211991,0
335,277.65,0.8111111111110745,0.8027777777778056,0.8194444444444287,0.9898305084745507,0.037619857223026375,0.9902641930391383,47.22222222222222,0.9999999999788236,0.9796610169492054,6.690702158973494e-11,0.9972080798337482,0
336,278.4527777777778,0.8027777777778056,0.8138888888888687,0.8194444444444287,0.9796610169492054,0.03852179795437949,1.0140058995854309,50.0,1.0588235293893427,0.9932203389830453,2.3121046743845852e-10,0.999443461336053,0
337,279.26666666666665,0.8138888888888687,0.6222222222222626,0.8194444444444287,0.9932203389830453,0.037751211168894384,0.9937218114037256,50.0,1.0588235293893427,0.759322033898369,3.43370817890154e-11,0.9992510925571347,0
338,279.8888888888889,0.6222222222222626,0.8833333333333258,0.8166666666666629,0.7619047619048149,0.03705984443156911,0.9755230255823785,44.44444444444444,0.9411764705683046,1.0816326530612201,2.105251496686833e-06,0.9968550160905782,0
339,280.77222222222224,0.8833333333333258,0.8555555555555543,0.8208333333333258,1.0761421319796962,0.039161847529166266,1.030853868250589,47.22222222222222,0.9999999999788236,1.0423011844331722,3.464535949793124e-11,0.9972238115018115,0
340,281.6277777777778,0.8555555555555543,0.794444444444423,0.8208333333333258,1.0423011844331722,0.03725405494222969,0.9806352117738057,52.77777777777778,1.1176470587998617,0.967851099830778,4.54577590847105e-11,0.9973811049408827,0
341,282.4222222222222,0.794444444444423,0.8027777777778056,0.8124999999999716,0.9777777777777855,0.03699058518270643,0.9736999204658733,47.22222222222222,0.9999999999788236,0.9880341880342568,3.45837594672993e-11,0.9986946386603246,0
342,283.225,0.8027777777778056,0.8166666666666629,0.8124999999999716,0.9880341880342568,0.03801503658015929,1.0006664645011742,50.0,1.0588235293893427,1.0051282051282355,1.7884085878883127e-10,0.9986357245929302,0
343,284.0416666666667,0.8166666666666629,0.6499999999999773,0.8124999999999716,1.0051282051282355,0.038407420519275884,1.0109951524206215,47.22222222222222,0.9999999999788236,0.8,3.668517573052199e-11,0.9983689842959174,0
344,284.69166666666666,0.6499999999999773,0.9305555555555429,0.80694444444444,0.8055077452667576,0.036086382655922546,0.9498986768773798,50.0,1.0588235293893427,1.1531841652323487,2.0851343833783176e-06,0.997386425756442,0
345,285.6222222222222,0.9305555555555429,0.8916666666667084,0.8083333333333371,1.1512027491408725,0.03836924156837876,1.0099901712539712,50.0,1.0588235293893427,1.1030927835052011,1.0155115463816866e-11,0.9984723183605722,0
346,286.5138888888889,0.8916666666667084,1.4611111111111086,0.8152777777777658,1.093696763202793,0.038944360368837784,1.0251289728571202,50.0,1.0588235293893427,1.79216354344125,3.986345836892724e-05,0.9976101725922218,0
347,287.975,1.4611111111111086,0.908333333333303,0.8361111111111086,1.7475083056478429,0.038797841312140424,1.0212721646139338,52.77777777777778,1.1176470587998617,1.0863787375414953,6.842190034413592e-21,0.9985746712334141,0
348,288.8833333333333,0.908333333333303,0.8333333333333144,0.86944444444444,1.0447284345047627,0.03768445235260453,0.9919645249539233,50.0,1.0588235293893427,0.9584664536741044,7.490740666638018e-12,0.9967235814170987,0
349,289.71666666666664,0.8333333333333144,0.8166666666667197,0.8444444444444343,0.9868421052631473,0.03736696201977952,0.983607254846044,52.77777777777778,1.1176470587998617,0.9671052631579692,3.0066396594641276e-10,0.9954506560305312,0
350,290.53333333333336,0.8166666666667197,0.8444444444444343,0.825000000000017,0.9898989898990338,0.03326439260979208,0.8756156810853225,50.0,1.0588235293893427,1.0235690235689903,5.606919928347054e-10,0.9841051927719411,0
351,291.3777777777778,0.8444444444444343,0.8138888888888687,0.8388888888888744,1.0066225165562968,0.03730988028733037,0.9821046974230873,47.22222222222222,0.9999999999788236,0.9701986754966815,2.224639743253487e-11,0.9961286653469662,0
352,292.19166666666666,0.8138888888888687,0.7722222222222399,0.8388888888888744,0.9701986754966815,0.03593581599752882,0.9459353239707239,50.0,1.0588235293893427,0.9205298013245403,2.9074617713398254e-10,0.9910966875541534,0
353,292.9638888888889,0.7722222222222399,0.875,0.8388888888888744,0.9205298013245403,0.03534908310341059,0.9304908056016357,47.22222222222222,0.9999999999788236,1.0430463576159121,1.17204856930897e-10,0.9972742089095921,0
354,293.8388888888889,0.875,0.8194444444444571,0.8597222222222172,1.0177705977382936,0.03749745534449169,0.9870422191556374,52.77777777777778,1.1176470587998617,0.953150242326353,5.137351308248661e-11,0.9964153864572343,0
355,294.65833333333336,0.8194444444444571,0.8333333333333144,0.8388888888888744,0.9768211920530121,0.03778362115933387,0.9945749367316261,50.0,1.0588235293893427,0.9933774834437032,2.413549360369416e-10,0.9965486957785523,0
356,295.4916666666667,0.8333333333333144,0.8111111111111313,0.8333333333333144,1.0,0.035914866209574285,0.9453838645449173,50.0,1.0588235293893427,0.9733333333333797,4.600676090094069e-11,0.993812597274178,0
357,296.3027777777778,0.8111111111111313,0.8138888888888687,0.8263888888888857,0.981512605042045,0.034425428883206294,0.906177536798001,50.0,1.0588235293893427,0.9848739495798112,4.1277654905247374e-11,0.9927471409251096,0
358,297.1166666666667,0.8138888888888687,0.8555555555555543,0.8180555555555884,0.9949066213921255,0.035537805737887854,0.9354585349109447,50.0,1.0588235293893427,1.0458404074702452,6.99299021467148e-11,0.9951757775929257,0
359,297.97222222222223,0.8555555555555543,0.8222222222221944,0.8180555555555884,1.0458404074702452,0.03631976100458816,0.9560418746238271,50.0,1.0588235293893427,1.0050933786077356,7.512775991591614e-12,0.9975548025414084,0
360,298.7944444444444,0.8222222222221944,0.8166666666666629,0.8208333333333258,1.0016920473773019,0.03543463107719087,0.932742677391564,47.22222222222222,0.9999999999788236,0.9949238578680248,4.316380586288915e-12,0.997355121767657,0
361,299.6111111111111,0.8166666666666629,0.8250000000000455,0.81805555555556,0.99830220713072,0.038982987501625224,1.0261457514762522,47.22222222222222,0.9999999999788236,1.0084889643464,1.757769346744098e-10,0.9982884862375301,0
362,300.43611111111113,0.8250000000000455,0.8194444444444002,0.8208333333333258,1.0050761421320444,0.038800170706369104,1.0213334810533465,52.77777777777778,1.1176470587998617,0.9983079526226288,6.904144478347973e-10,0.9975355185233057,0
363,301.25555555555553,0.8194444444444002,0.8055555555555998,0.8208333333333258,0.9983079526226288,0.03697308282844113,0.9732392075338687,50.0,1.0588235293893427,0.9813874788494708,3.994728159373295e-11,0.9977604649274628,0
364,302.06111111111113,0.8055555555555998,0.7583333333333258,0.8194444444444287,0.9830508474577,0.03621097927808846,0.9531784228044593,52.77777777777778,1.1176470587998617,0.9254237288135679,2.589350678317004e-10,0.9944575633982553,0
365,302.81944444444446,0.7583333333333258,0.7972222222222172,0.8180555555555316,0.9269949066214102,0.03366020227676237,0.8860345441377723,47.22222222222222,0.9999999999788236,0.9745331069609732,1.1485025430690854e-10,0.9916229493265223,0
366,303.6166666666667,0.7972222222222172,0.7638888888888573,0.8152777777777658,0.9778534923339094,0.03582769314830289,0.9430892157198858,44.44444444444444,0.9411764705683046,0.9369676320272323,5.0022017777928696e-12,0.9965636937257715,0
367,304.38055555555553,0.7638888888888573,0.6638888888888914,0.8152777777777658,0.9369676320272323,0.03696248707590473,0.9729602964717428,47.22222222222222,0.9999999999788236,0.8143100511073404,8.067910922671118e-11,0.9977849659857818,0
368,305.0444444444444,0.6638888888888914,0.8500000000000227,0.8111111111111313,0.8184931506849142,0.037436332497322304,0.9854332878253133,47.22222222222222,0.9999999999788236,1.047945205479454,8.708442322813426e-08,0.998247691138888,0
369,305.89444444444445,0.8500000000000227,0.8055555555555429,0.8111111111111313,1.047945205479454,0.03776296093140321,0.9940310993688612,47.22222222222222,0.9999999999788236,0.9931506849314665,9.402090217491832e-12,0.9983431390631947,0
370,306.7,0.8055555555555429,0.7888888888888914,0.8055555555555713,0.9999999999999647,0.03810850170223238,1.003126738689306,50.0,1.0588235293893427,0.9793103448275702,2.0472551431893748e-10,0.9978437132522774,0
371,307.4888888888889,0.7888888888888914,0.7861111111110972,0.80138888888888,0.9844020797227176,0.03789106969899735,0.997403295191157,52.77777777777778,1.1176470587998617,0.9809358752166313,5.599342656203987e-10,0.9982424918574944,0
372,308.275,0.7861111111110972,0.8000000000000114,0.7930555555555543,0.9912434325744148,0.03769664985948223,0.992285598854702,47.22222222222222,0.9999999999788236,1.0087565674255852,9.535922745884662e-11,0.9989054116470358,0
373,309.075,0.8000000000000114,0.6388888888889142,0.7930555555555543,1.0087565674255852,0.037494598458797594,0.9869670176047729,47.22222222222222,0.9999999999788236,0.8056042031523974,2.0654450372248334e-11,0.9986705530887745,0
374,309.7138888888889,0.6388888888889142,0.9111111111110972,0.7874999999999943,0.8112874779541825,0.038180792513414406,1.0050296433541193,50.0,1.0588235293893427,1.1569664902998142,5.375869022827828e-06,0.9994624973616377,0
375,310.625,0.9111111111110972,0.8333333333333144,0.7930555555555543,1.1488616462346604,0.035478375622923455,0.9338941612215778,47.22222222222222,0.9999999999788236,1.050788091068279,4.427579722125763e-13,0.9940972514148569,0
376,311.4583333333333,0.8333333333333144,0.8388888888889028,0.7944444444444514,1.0489510489510159,0.03823432401252698,1.0064387482971981,50.0,1.0588235293893427,1.0559440559440643,9.607085266205573e-11,0.9990650233719649,0
377,312.2972222222222,0.8388888888889028,0.8083333333333371,0.8027777777777771,1.044982698961956,0.03661858760626622,0.9639078609781885,47.22222222222222,0.9999999999788236,1.006920415224919,6.960304728409472e-12,0.9972766022907736,0
378,313.10555555555555,0.8083333333333371,0.8111111111111313,0.80694444444444,1.0017211703958793,0.03603668568159859,0.9485905077930676,47.22222222222222,0.9999999999788236,1.005163511187638,1.8494695358528546e-11,0.9966467642129864,0
379,313.9166666666667,0.8111111111111313,0.8444444444444343,0.80694444444444,1.005163511187638,0.03842928817934095,1.0115707729132675,47.22222222222222,0.9999999999788236,1.0464716006884613,2.4091248440605284e-10,0.9975780130262093,0
380,314.7611111111111,0.8444444444444343,0.8083333333333371,0.8097222222222342,1.0428816466552036,0.03793287148438325,0.9985036399114294,47.22222222222222,0.9999999999788236,0.9982847341337806,1.2706454811939327e-11,0.9987152071561817,0
381,315.56944444444446,0.8083333333333371,0.8111111111110745,0.8097222222222342,0.9982847341337806,0.03799676635057678,1.0001855388547287,44.44444444444444,0.9411764705683046,1.0017152658661492,6.145860903528089e-11,0.9967444304350332,0
382,316.38055555555553,0.8111111111110745,0.8333333333333712,0.8111111111111029,0.9999999999999649,0.03735891960629768,0.9833955551032868,47.22222222222222,0.9999999999788236,1.0273972602740298,4.585896246078747e-11,0.9983221842457899,0
383,317.2138888888889,0.8333333333333712,0.8166666666666629,0.8222222222222229,1.013513513513559,0.04010462847964417,1.0556706082930323,50.0,1.0588235293893427,0.9932432432432379,7.068222673822788e-10,0.9979837663178601,0
384,318.03055555555557,0.8166666666666629,0.8249999999999886,0.8249999999999886,0.9898989898989989,0.03702654028092955,0.9746463633541722,47.22222222222222,0.9999999999788236,1.0,2.721150908768788e-11,0.9979761540641428,0
385,318.85555555555555,0.8249999999999886,0.8222222222222513,0.8208333333333258,1.0050761421319752,0.037996377348206586,1.0001752991795507,47.22222222222222,0.9999999999788236,1.0016920473773712,4.435123449053613e-11,0.9983277491154949,0
386,319.6777777777778,0.8222222222222513,0.827777777777726,0.8194444444444571,1.0033898305084945,0.03856486195778359,1.0151394695595852,50.0,1.0588235293893427,1.010169491525345,1.5294619737371562e-10,0.9988946586783471,0
387,320.50555555555553,0.827777777777726,0.8333333333333712,0.8194444444444571,1.010169491525345,0.03827343960024698,1.0074683844725607,47.22222222222222,0.9999999999788236,1.0169491525424035,3.7605960012676576e-11,0.9995126849041251,0
388,321.3388888888889,0.8333333333333712,0.8249999999999886,0.82361111111112,1.0118043844857012,0.037360053469017704,0.9834254016719434,52.77777777777778,1.1176470587998617,1.001686340640785,1.344452466023327e-10,0.9971178989925524,0
389,322.1638888888889,0.8249999999999886,0.8333333333333144,0.8249999999999886,1.0,0.0378465102696208,0.9962303612506516,47.22222222222222,0.9999999999788236,1.010101010101001,8.131451761927977e-11,0.9968585463233353,0
390,322.9972222222222,0.8333333333333144,0.841666666666697,0.8249999999999886,1.010101010101001,0.03797538289541082,0.9996226640450565,50.0,1.0588235293893427,1.020202020202071,5.690967488924947e-11,0.9991583302096121,0
391,323.8388888888889,0.841666666666697,0.8361111111111086,0.8263888888888573,1.0184873949580588,0.038763237291264775,1.0203612860158258,47.22222222222222,0.9999999999788236,1.0117647058823886,7.993835454689346e-11,0.9976691761578147,0
392,324.675,0.8361111111111086,0.8222222222221944,0.8305555555555202,1.006688963210742,0.03910345903589532,1.0293169130774489,47.22222222222222,0.9999999999788236,0.9899665551839552,7.745763058730759e-11,0.9986351871898164,0
393,325.4972222222222,0.8222222222221944,0.8388888888889028,0.8263888888888573,0.9949579831932817,0.038418962884217235,1.0112989810778292,50.0,1.0588235293893427,1.0151260504202237,1.9136314755030526e-10,0.9983603725545513,0
394,326.3361111111111,0.8388888888889028,0.8333333333333144,0.8305555555555202,1.0100334448161132,0.03838248308724183,1.0103387265904205,50.0,1.0588235293893427,1.0033444816053712,9.753369639708964e-11,0.998137983339678,0
395,327.1694444444444,0.8333333333333144,0.8000000000000114,0.8333333333333144,1.0,0.038333961585525225,1.0090614993681697,52.77777777777778,1.1176470587998617,0.9600000000000355,2.4398114084611677e-10,0.9980824833946053,0
396,327.96944444444443,0.8000000000000114,0.8166666666666629,0.8333333333333144,0.9600000000000355,0.03821132671658949,1.0058333924988334,52.77777777777778,1.1176470587998617,0.9800000000000177,1.010662442624266e-09,0.9977159356970486,0
397,328.7861111111111,0.8166666666666629,0.8166666666666629,0.8333333333333144,0.9800000000000177,0.03649864414642096,0.960750599833633,47.22222222222222,0.9999999999788236,0.9800000000000177,2.7324106519066582e-11,0.9966354725435207,0
398,329.60277777777776,0.8166666666666629,0.8138888888889255,0.8291666666666515,0.9849246231155914,0.03730881964149623,0.9820767781360783,47.22222222222222,0.9999999999788236,0.9815745393635462,3.5234867107325485e-11,0.9978530047039902,0
399,330.4166666666667,0.8138888888889255,0.8499999999999659,0.8277777777777544,0.9832214765101391,0.03986269272512629,1.0493021547049544,47.22222222222222,0.9999999999788236,1.0268456375838804,7.738472085350168e-10,0.998104572677796,0
400,331.26666666666665,0.8499999999999659,0.8222222222222513,0.8277777777777544,1.0268456375838804,0.0380325791896712,1.0011282370684946,52.77777777777778,1.1176470587998617,0.99328859060409,1.105123492717297e-10,0.9979843124135626,0
401,332.0888888888889,0.8222222222222513,0.8249999999999886,0.8222222222222229,1.0000000000000346,0.03720371970276892,0.9793102416924323,47.22222222222222,0.9999999999788236,1.0033783783783639,3.5995456615367516e-11,0.9971963634886327,0
402,332.9138888888889,0.8249999999999886,0.8277777777777828,0.8222222222222229,1.0033783783783639,0.03831485968848314,1.0085586818123307,50.0,1.0588235293893427,1.0067567567567621,7.756555120419506e-11,0.9996533661444663,0
403,333.7416666666667,0.8277777777777828,0.8555555555555543,0.82361111111112,1.0050590219224236,0.038845202153685504,1.022518839880569,50.0,1.0588235293893427,1.0387858347386045,2.1748486345174456e-10,0.9990495047954386,0
404,334.59722222222223,0.8555555555555543,0.8388888888889028,0.82361111111112,1.0387858347386045,0.03827899091487564,1.0076145112392962,47.22222222222222,0.9999999999788236,1.0185497470489098,3.7120299889448205e-11,0.9970287824350306,0
405,335.43611111111113,0.8388888888889028,0.8138888888888687,0.82361111111112,1.0185497470489098,0.034375671815483684,0.9048677858804411,50.0,1.0588235293893427,0.9881956155142988,2.3154488743015733e-11,0.9914661257070225,0
406,336.25,0.8138888888888687,0.8583333333333485,0.82361111111112,0.9881956155142988,0.03426678180256239,0.9020014836471215,47.22222222222222,0.9999999999788236,1.0421585160202433,1.9332466183463737e-11,0.9935033120011877,0
407,337.10833333333335,0.8583333333333485,0.8277777777777828,0.8263888888888857,1.0386554621848962,0.033657955655290756,0.8859754065183638,41.666666666666664,0.8823529411577855,1.0016806722689175,2.6510886110627137e-14,0.9919857717554821,0
408,337.93611111111113,0.8277777777777828,0.8416666666666401,0.8277777777777828,1.0,0.03463207671863931,0.9116171095955582,47.22222222222222,0.9999999999788236,1.0167785234898947,7.976985391677793e-12,0.9942101799779337,0
409,338.77777777777777,0.8416666666666401,0.8333333333333144,0.8333333333333428,1.0099999999999567,0.03446934236124392,0.9073334674182227,44.44444444444444,0.9411764705683046,0.9999999999999659,3.7515224759164523e-13,0.9949015828436587,0
410,339.6111111111111,0.8333333333333144,0.8222222222222513,0.8305555555555486,1.0033444816053367,0.03433805865200706,0.9038776978862998,44.44444444444444,0.9411764705683046,0.9899665551839898,6.972964415076499e-13,0.993860925096713,0
411,340.43333333333334,0.8222222222222513,0.8388888888889028,0.8305555555555486,0.9899665551839898,0.03855215527797409,1.0148049927445044,50.0,1.0588235293893427,1.0100334448160786,1.5300395672657174e-10,0.9993112320830546,0
412,341.27222222222224,0.8388888888889028,0.783333333333303,0.8361111111111086,1.0033222591362323,0.03594355947125277,0.946139154748526,50.0,1.0588235293893427,0.9368770764119267,1.6257786783491213e-11,0.9956776076679648,0
413,342.05555555555554,0.783333333333303,0.8055555555555429,0.8361111111111086,0.9368770764119267,0.03319425548860736,0.8737694678128924,44.44444444444444,0.9411764705683046,0.9634551495016489,9.938696567124428e-12,0.9908857785734324,0
414,342.8611111111111,0.8055555555555429,0.8388888888889028,0.8305555555555486,0.9698996655518324,0.03355564287385426,0.8832822361709554,44.44444444444444,0.9411764705683046,1.0100334448160786,7.587283232246556e-12,0.9903971614748557,0
415,343.7,0.8388888888889028,0.7888888888888914,0.8305555555555486,1.0100334448160786,0.03468485869373984,0.9130064848839882,44.44444444444444,0.9411764705683046,0.9498327759197435,2.974045163785244e-13,0.995232555349842,0
416,344.4888888888889,0.7888888888888914,0.8194444444444571,0.8305555555555486,0.9498327759197435,0.034387251894246115,0.9051726072752441,41.666666666666664,0.8823529411577855,0.9866220735786188,2.5599184230729044e-12,0.9935677906747711,0
417,345.30833333333334,0.8194444444444571,0.8194444444444571,0.825000000000017,0.9932659932659881,0.03619313645987871,0.9527087478699886,47.22222222222222,0.9999999999788236,0.9932659932659881,1.0042433898349579e-11,0.9977003061579971,0
418,346.1277777777778,0.8194444444444571,0.8055555555555429,0.8208333333333542,0.9983079526226635,0.038585412148462735,1.0156804104214563,47.22222222222222,0.9999999999788236,0.9813874788493675,9.579236709411632e-11,0.9978922544476732,0
419,346.93333333333334,0.8055555555555429,0.830555555555577,0.8194444444444571,0.9830508474575965,0.041660025940856854,1.0966131988683134,50.0,1.0588235293893427,1.013559322033909,7.728843343102199e-09,0.9990396606820944,0
420,347.7638888888889,0.830555555555577,0.7777777777777715,0.8194444444444571,1.013559322033909,0.03684940036842633,0.9699835250166929,47.22222222222222,0.9999999999788236,0.9491525423728591,1.25750772642097e-11,0.9964995207850145,0
421,348.5416666666667,0.7777777777777715,0.6166666666666742,0.8125,0.9572649572649495,0.03354007178899224,0.8828723598735992,44.44444444444444,0.9411764705683046,0.7589743589743683,6.065906240845798e-13,0.9929016135198304,0
422,349.15833333333336,0.6166666666666742,0.9611111111111086,0.8055555555555429,0.7655172413793317,0.033130987882572266,0.8721040801835764,41.666666666666664,0.8823529411577855,1.1931034482758776,4.050979441672098e-06,0.9925097149224342,0
423,350.11944444444447,0.9611111111111086,0.8555555555555543,0.8125,1.1829059829059798,0.035879509738953756,0.9444531792783523,44.44444444444444,0.9411764705683046,1.0529914529914515,8.24406240837591e-15,0.9949775933773134,0
424,350.975,0.8555555555555543,0.8333333333333144,0.8194444444444571,1.044067796610152,0.04072693701112364,1.0720515810355258,50.0,1.0588235293893427,1.016949152542334,9.887656249318866e-10,0.9972664479779694,0
425,351.80833333333334,0.8333333333333144,0.8083333333333371,0.8194444444444571,1.016949152542334,0.0343774120345453,0.904913593513749,47.22222222222222,0.9999999999788236,0.9864406779660911,2.178666318533584e-12,0.9948675791632751,0
426,352.6166666666667,0.8083333333333371,0.5916666666666401,0.8194444444444571,0.9864406779660911,0.033616658015095204,0.8848883323675976,44.44444444444444,0.9411764705683046,0.7220338983050413,2.1224360702114253e-13,0.9914236656544173,0
427,353.2083333333333,0.5916666666666401,0.8777777777777942,0.8138888888888971,0.726962457337844,0.03246163009663922,0.8544846340540537,44.44444444444444,0.9411764705683046,1.0784982935153677,6.686779670417309e-05,0.9853560104459191,0
428,354.0861111111111,0.8777777777777942,0.6555555555555657,0.8194444444444571,1.0711864406779696,0.037989606038209126,0.99999705858202,47.22222222222222,0.9999999999788236,0.8,3.928205850878275e-12,0.9974067902697503,0
429,354.7416666666667,0.6555555555555657,0.9583333333333144,0.8194444444444571,0.8,0.036073355965588035,0.9495557764533936,47.22222222222222,0.9999999999788236,1.1694915254236877,2.7674229841068154e-06,0.9964744609059413,0
430,355.7,0.9583333333333144,0.6472222222222399,0.8208333333333258,1.1675126903553177,0.03422984256817603,0.9010291354291516,50.0,1.0588235293893427,0.7884940778342082,2.3879613835365437e-14,0.9932021247819904,0
431,356.34722222222223,0.6472222222222399,0.9361111111111313,0.8208333333333258,0.7884940778342082,0.030747533087813292,0.8093646092444736,44.44444444444444,0.9411764705683046,1.14043993231814,8.36341678223107e-06,0.9817785528427843,0
432,357.28333333333336,0.9361111111111313,0.6444444444444457,0.8444444444444343,1.1085526315789846,0.034604034856263795,0.9108789661185115,47.22222222222222,0.9999999999788236,0.7631578947368527,5.879955336106531e-15,0.9945876536922179,0
433,357.9277777777778,0.6444444444444457,0.9694444444444343,0.8208333333333258,0.7851099830795351,0.036732545809837286,0.9669075727482379,47.22222222222222,0.9999999999788236,1.181049069373941,5.9486969803401735e-06,0.9982295549618654,0
434,358.89722222222224,0.9694444444444343,0.8333333333333144,0.8208333333333258,1.181049069373941,0.03451025917454872,0.9084105170962372,44.44444444444444,0.9411764705683046,1.0152284263959255,1.1106931279108827e-15,0.9932122149401135,0
435,359.73055555555555,0.8333333333333144,0.8166666666666629,0.8208333333333258,1.0152284263959255,0.03445618622374468,0.9069871595679043,44.44444444444444,0.9411764705683046,0.9949238578680248,9.61992963587066e-13,0.9934784510737699,0
436,360.5472222222222,0.8166666666666629,0.5638888888888687,0.8249999999999886,0.9898989898989989,0.03395432310835534,0.8937766609200534,44.44444444444444,0.9411764705683046,0.6835016835016684,3.332511878755516e-14,0.9956370910368084,0
437,361.1111111111111,0.5638888888888687,0.8888888888889142,0.8249999999999886,0.6835016835016684,0.032468492529011364,0.854665273257839,41.666666666666664,0.8823529411577855,1.077441077441123,2.0507279259618372e-05,0.9908768711147543,0
438,362.0,0.8888888888889142,0.8249999999999886,0.8249999999999886,1.077441077441123,0.037452918034940816,0.9858698674733578,50.0,1.0588235293893427,1.0,4.235801813468054e-12,0.9988997651185199,0
439,362.825,0.8249999999999886,0.8555555555555543,0.8291666666666515,0.9949748743718638,0.03756312635682698,0.9887708714376153,50.0,1.0588235293893427,1.0318257956449084,1.049311817991061e-10,0.9980693119234516,0
440,363.68055555555554,0.8555555555555543,0.75,0.8291666666666515,1.0318257956449084,0.03704889939556193,0.9752349203621704,52.77777777777778,1.1176470587998617,0.9045226130653432,0.04645498842000961,0.5642953500671327,0
441,364.43055555555554,0.75,0.7833333333333599,0.8291666666666515,0.9045226130653432,0.03607092711959355,0.9494918421538964,52.77777777777778,1.1176470587998617,0.9447236180905015,6.822569389441924e-07,0.9831294755213533,0
442,365.2138888888889,0.7833333333333599,0.7583333333333258,0.8208333333333258,0.9543147208122239,0.03401121916037289,0.8952743306933397,50.0,1.0588235293893427,0.9238578680203039,1.5811221221184724e-09,0.9847361663710525,0
443,365.97222222222223,0.7583333333333258,0.7722222222222399,0.8208333333333258,0.9238578680203039,0.04188183948828695,1.102451977368955,44.44444444444444,0.9411764705683046,0.9407783417936004,5.677781018675887e-07,0.9897211473110913,0
444,366.74444444444447,0.7722222222222399,0.7777777777777715,0.8000000000000114,0.9652777777777861,0.03592932346271032,0.9457644215477109,52.77777777777778,1.1176470587998617,0.9722222222222006,9.137176570916949e-10,0.9936605268219937,0
445,367.52222222222224,0.7777777777777715,0.7527777777777374,0.7805555555555657,0.9964412811387691,0.03718817883560582,0.9789011608129075,47.22222222222222,0.9999999999788236,0.9644128113878361,1.0829054319927423e-10,0.9971812966063742,0
446,368.275,0.7527777777777374,0.7444444444444684,0.7750000000000057,0.9713261648744926,0.03929861950650809,1.0344541049811493,50.0,1.0588235293893427,0.9605734767025329,3.138726611950915e-09,0.9983788833840811,0
447,369.01944444444445,0.7444444444444684,0.7694444444444457,0.7750000000000057,0.9605734767025329,0.0389059588296681,1.0241181325189477,47.22222222222222,0.9999999999788236,0.9928315412186324,2.3683677241592704e-09,0.9973443121679064,0
448,369.7888888888889,0.7694444444444457,0.7527777777777942,0.7708333333333428,0.9981981981981876,0.037571800065184215,0.9889991886998556,50.0,1.0588235293893427,0.9765765765765859,3.5640024265148895e-10,0.9981189934083186,0
449,370.5416666666667,0.7527777777777942,0.7527777777777374,0.7638888888888857,0.985454545454571,0.038597173752343804,1.015990010085992,47.22222222222222,0.9999999999788236,0.9854545454544966,2.2055202109072525e-09,0.996018325304843,0
450,371.2944444444444,0.7527777777777374,0.7722222222222399,0.75555555555556,0.9963235294117053,0.035111999136553614,0.924250065193444,50.0,1.0588235293893427,1.0220588235294292,3.4535918569389423e-10,0.9939233001560696,0
451,372.06666666666666,0.7722222222222399,0.7805555555555657,0.7638888888888857,1.0109090909091183,0.035324260312665834,0.9298373974640102,47.22222222222222,0.9999999999788236,1.0218181818181993,5.27739831002183e-11,0.995433762709637,0
452,372.84722222222223,0.7805555555555657,0.75,0.7638888888888857,1.0218181818181993,0.03408365796965922,0.8971811310992364,41.666666666666664,0.8823529411577855,0.9818181818181859,3.0449221703060525e-12,0.9916522962181791,0
453,373.59722222222223,0.75,0.7638888888888573,0.76111111111112,0.9854014598540032,0.03674486423823344,0.967231829655512,50.0,1.0588235293893427,1.0036496350364432,3.4519917480047013e-10,0.9977741208981322,0
454,374.3611111111111,0.7638888888888573,0.7694444444444457,0.7583333333333258,1.0073260073259758,0.03640870502632969,0.9583831402855589,52.77777777777778,1.1176470587998617,1.0146520146520264,4.843979106716745e-10,0.9968728557781427,0
455,375.13055555555553,0.7694444444444457,0.7416666666666742,0.7583333333333258,1.0146520146520264,0.03687792460903243,0.9707343660934785,47.22222222222222,0.9999999999788236,0.9780219780219978,1.2777719160528278e-10,0.9966649986554816,0
456,375.8722222222222,0.7416666666666742,0.7472222222222626,0.7583333333333258,0.9780219780219978,0.035630411219765144,0.9378961808658072,44.44444444444444,0.9411764705683046,0.9853479853480485,1.6952994563723678e-10,0.9933301837270173,0
457,376.61944444444447,0.7472222222222626,0.7222222222221717,0.7583333333333258,0.9853479853480485,0.03801129768941297,1.000568046008892,50.0,1.0588235293893427,0.9523809523808953,1.3437686519068848e-09,0.9977487032767515,0
458,377.34166666666664,0.7222222222221717,0.7361111111111427,0.7527777777777658,0.9594095940958891,0.037066588810942006,0.9757005572874473,44.44444444444444,0.9411764705683046,0.9778597785978436,4.834924127727902e-10,0.996328569169739,0
459,378.0777777777778,0.7361111111111427,0.7333333333333485,0.7513888888888687,0.9796672828096802,0.03679628303342573,0.9685853220791081,44.44444444444444,0.9411764705683046,0.9759704251386786,2.063103438088021e-10,0.9961272187659893,0
460,378.81111111111113,0.7333333333333485,0.73888888888888,0.7486111111111313,0.9795918367346876,0.03651042317664089,0.961060658210154,44.44444444444444,0.9411764705683046,0.9870129870129486,1.6650925083183665e-10,0.9963342722785236,0
461,379.55,0.73888888888888,0.7333333333333485,0.7444444444444684,0.992537313432792,0.037358480494850646,0.983383996411286,50.0,1.0588235293893427,0.9850746268656603,7.834426440922471e-10,0.9982472114778344,0
462,380.28333333333336,0.7333333333333485,0.73888888888888,0.7402777777777771,0.9906191369606216,0.037149617580290784,0.9778861162806877,47.22222222222222,0.9999999999788236,0.998123827392109,4.1806164086111153e-10,0.9982192609528028,0
463,381.02222222222224,0.73888888888888,0.7361111111110858,0.73888888888888,1.0,0.037078823850364304,0.9760226191540966,44.44444444444444,0.9411764705683046,0.9962406015037372,4.1543532502963387e-10,0.9952123710671308,0
464,381.7583333333333,0.7361111111110858,0.7305555555555543,0.7375000000000114,0.9981167608285756,0.03437056801701422,0.9047334390422054,47.22222222222222,0.9999999999788236,0.9905838041431092,3.6708271838881146e-11,0.9962212299384521,0
465,382.4888888888889,0.7305555555555543,0.75,0.7361111111111143,0.9924528301886733,0.034544915168088726,0.9093227637662182,44.44444444444444,0.9411764705683046,1.0188679245282974,1.0307625586403191e-10,0.9932274285837319,0
466,383.2388888888889,0.75,0.75,0.7361111111111143,1.0188679245282974,0.03626202024716066,0.9545219697443259,50.0,1.0588235293893427,1.0188679245282974,2.8639146609776844e-10,0.997484887502661,0
467,383.9888888888889,0.75,0.73888888888888,0.7361111111111143,1.0188679245282974,0.035567715312075796,0.9362458420017657,47.22222222222222,0.9999999999788236,1.0037735849056442,8.651808436344055e-11,0.9962557744901068,0
468,384.72777777777776,0.73888888888888,0.7111111111111086,0.7375000000000114,1.0018832391713473,0.03556830144427369,0.9362612707080611,50.0,1.0588235293893427,0.9642184557438612,1.7306828192786838e-10,0.9971722910273221,0
469,385.43888888888887,0.7111111111111086,0.7527777777777942,0.737499999999983,0.9642184557438983,0.03517336117128838,0.9258652926370152,44.44444444444444,0.9411764705683046,1.0207156308851684,1.7007469044205692e-10,0.995974719907782,0
470,386.19166666666666,0.7527777777777942,0.7333333333333485,0.73888888888888,1.0187969924812375,0.03565246922048848,0.9384768116788604,50.0,1.0588235293893427,0.9924812030075512,1.1639993136025595e-10,0.9973508715281109,0
471,386.925,0.7333333333333485,0.7305555555555543,0.737499999999983,0.9943502824859193,0.037154772599543154,0.9780218113990871,47.22222222222222,0.9999999999788236,0.9905838041431474,5.122159363324386e-10,0.9976277980515988,0
472,387.65555555555557,0.7305555555555543,0.7416666666666742,0.737499999999983,0.9905838041431474,0.03617575067396392,0.9522511033564224,44.44444444444444,0.9411764705683046,1.0056497175141579,1.523647180645682e-10,0.9962958613049447,0
473,388.39722222222224,0.7416666666666742,0.75,0.737499999999983,1.0056497175141579,0.034947966149490466,0.919932239301578,47.22222222222222,0.9999999999788236,1.0169491525423964,7.528845602511325e-11,0.9963165630306998,0
474,389.14722222222224,0.75,0.7277777777777601,0.7402777777777771,1.0131332082551603,0.0350651629218639,0.9230171996333821,41.666666666666664,0.8823529411577855,0.9831144465290577,1.7713757544113307e-11,0.9929548528667866,0
475,389.875,0.7277777777777601,0.7305555555555543,0.7402777777777771,0.9831144465290577,0.035667371255121476,0.9388690766258803,47.22222222222222,0.9999999999788236,0.9868667917448397,2.1190292576189762e-10,0.9963022830089652,0
476,390.60555555555555,0.7305555555555543,0.7555555555555316,0.7361111111111143,0.9924528301886733,0.036402191390726236,0.9582116824284395,47.22222222222222,0.9999999999788236,1.0264150943395856,3.2898261892455594e-10,0.9980434865973957,0
477,391.3611111111111,0.7555555555555316,0.7333333333333485,0.7361111111111143,1.0264150943395856,0.03437872747390677,0.9049482197083689,44.44444444444444,0.9411764705683046,0.9962264150943559,4.60617915337691e-12,0.9967722232602279,0
478,392.09444444444443,0.7333333333333485,0.73888888888888,0.7333333333333485,1.0,0.03467187123270275,0.9126646170893479,44.44444444444444,0.9411764705683046,1.0075757575757247,4.733363700992754e-11,0.9945797406053304,0
479,392.8333333333333,0.73888888888888,0.6500000000000341,0.7361111111111143,1.0037735849056442,0.03621215487134402,0.9532093678423328,44.44444444444444,0.9411764705683046,0.8830188679245708,3.981226806559768e-11,0.9966061534320094,0
480,393.48333333333335,0.6500000000000341,0.8000000000000114,0.7333333333333485,0.8863636363636646,0.03397744791551642,0.8943853731851423,44.44444444444444,0.9411764705683046,1.090909090909084,5.578292494590187e-09,0.9948581845560964,0
481,394.28333333333336,0.8000000000000114,0.7194444444444343,0.7361111111111143,1.0867924528301995,0.035912869440474574,0.9453313037675202,44.44444444444444,0.9411764705683046,0.9773584905660199,4.7140264781975194e-12,0.9970047658786714,0
482,395.0027777777778,0.7194444444444343,0.7305555555555543,0.7361111111111143,0.9773584905660199,0.0344249199776305,0.9061641409212873,44.44444444444444,0.9411764705683046,0.9924528301886733,5.662944765894018e-11,0.9945469357720085,0
483,395.73333333333335,0.7305555555555543,0.7138888888888459,0.7319444444444514,0.9981024667931577,0.03448947150211264,0.9078633250229649,47.22222222222222,0.9999999999788236,0.9753320683111275,6.084869413891525e-11,0.9953910871626468,0
484,396.4472222222222,0.7138888888888459,0.716666666666697,0.7305555555555543,0.9771863117870151,0.036092253968742306,0.9500532269283561,44.44444444444444,0.9411764705683046,0.9809885931559368,1.5878214021380899e-10,0.9968081670599304,0
485,397.1638888888889,0.716666666666697,0.705555555555577,0.7305555555555543,0.9809885931559368,0.03588498169429386,0.9445972170775149,41.666666666666664,0.8823529411577855,0.9657794676806394,5.756535526035833e-11,0.9952216256463426,0
486,397.86944444444447,0.705555555555577,0.7083333333333144,0.7249999999999943,0.9731800766283898,0.034737112954416796,0.9143819691920586,44.44444444444444,0.9411764705683046,0.977011494252855,8.206442470015674e-11,0.9953076406808831,0
487,398.5777777777778,0.7083333333333144,0.7027777777777828,0.7180555555555657,0.9864603481624356,0.03482700711058982,0.9167482451588671,44.44444444444444,0.9411764705683046,0.9787234042553125,7.960362230496898e-11,0.9952318287387767,0
488,399.28055555555557,0.7027777777777828,0.7138888888889028,0.7152777777777715,0.982524271844676,0.036513334339091603,0.9611372884833091,44.44444444444444,0.9411764705683046,0.9980582524272127,5.867893393407542e-10,0.9963667449728095,0
489,399.99444444444447,0.7138888888889028,0.702777777777726,0.7138888888888744,1.0000000000000397,0.03515985764174805,0.925509840416552,47.22222222222222,0.9999999999788236,0.9844357976653171,1.874093241704955e-10,0.9963456791600585,0
490,400.6972222222222,0.702777777777726,0.7027777777777828,0.7138888888888744,0.9844357976653171,0.034177293684821725,0.8996458957942572,41.666666666666664,0.8823529411577855,0.9844357976653968,2.249502494000577e-11,0.9944622436962886,0
491,401.4,0.7027777777777828,0.6861111111111313,0.7111111111110802,0.9882812500000501,0.032956787004031755,0.8675186057786114,41.666666666666664,0.8823529411577855,0.9648437500000704,1.915858270640225e-11,0.9907788471869188,0
492,402.0861111111111,0.6861111111111313,0.7027777777777828,0.7069444444444457,0.9705304518664316,0.034982118494724074,0.9208312284814851,44.44444444444444,0.9411764705683046,0.9941060903732863,3.048284125117817e-10,0.9952275351356381,0
493,402.7888888888889,0.7027777777777828,0.705555555555577,0.7041666666666799,0.9980276134122171,0.03590438505095494,0.9451079699283914,44.44444444444444,0.9411764705683046,1.0019723865877828,3.914477353372803e-10,0.9956359685066121,0
494,403.49444444444447,0.705555555555577,0.6861111111110745,0.7041666666666799,1.0019723865877828,0.0341266488109115,0.898312775232503,44.44444444444444,0.9411764705683046,0.974358974358904,9.409666795745508e-11,0.9931487212560233,0
495,404.18055555555554,0.6861111111110745,0.7111111111111086,0.7027777777777828,0.976284584980178,0.03321470470808778,0.8743077508187796,44.44444444444444,0.9411764705683046,1.0118577075098705,6.504125710238284e-11,0.9945681092755991,0
496,404.89166666666665,0.7111111111111086,0.6999999999999886,0.7027777777777828,1.0118577075098705,0.03480424763922428,0.9161491495957931,50.0,1.0588235293893427,0.9960474308300162,5.242227762991547e-10,0.9955671363986974,0
497,405.59166666666664,0.6999999999999886,0.6888888888889255,0.7027777777777828,0.9960474308300162,0.035545083522635655,0.9356501073987845,44.44444444444444,0.9411764705683046,0.9802371541502427,2.0897451824541946e-10,0.9957975945242211,0
498,406.28055555555557,0.6888888888889255,0.6805555555555429,0.7027777777777544,0.9802371541502823,0.03701713247650359,0.9743987225456782,44.44444444444444,0.9411764705683046,0.9683794466403304,9.52249612495848e-10,0.997220166485086,0
499,406.9611111111111,0.6805555555555429,0.705555555555577,0.7013888888888573,0.970297029702996,0.035329384330484555,0.9299722765343983,41.666666666666664,0.8823529411577855,1.0059405940594819,2.571293455932988e-10,0.9948013263818,0
500,407.6666666666667,0.705555555555577,0.7055555555555202,0.7013888888888857,1.005940594059441,0.035414984914371984,0.93222553317555,47.22222222222222,0.9999999999788236,1.00594059405936,8.344174240448865e-10,0.9948678970541639,0
501,408.3722222222222,0.7055555555555202,0.6861111111111313,0.7013888888888857,1.00594059405936,0.03307295048353955,0.8705763668331908,44.44444444444444,0.9411764705683046,0.9782178217822114,2.550868544171081e-11,0.9935774615267151,0
502,409.05833333333334,0.6861111111111313,0.6750000000000114,0.7013888888888857,0.9782178217822114,0.03541310111730289,0.932175946150979,44.44444444444444,0.9411764705683046,0.9623762376237829,2.7135693692059704e-10,0.9957780140181738,0
503,409.73333333333335,0.6750000000000114,0.6833333333333371,0.6944444444444571,0.9719999999999986,0.035363977615119356,0.9308828725233826,44.44444444444444,0.9411764705683046,0.9839999999999876,5.370424105421989e-10,0.9957360910833174,0
504,410.4166666666667,0.6833333333333371,0.6833333333333371,0.6875000000000284,0.9939393939393584,0.0325294599343664,0.8562701129069551,44.44444444444444,0.9411764705683046,0.9939393939393584,1.9495811909298055e-10,0.9895896757108691,0
505,411.1,0.6833333333333371,0.6749999999999545,0.6875000000000284,0.9939393939393584,0.031807632007807875,0.8372694998804634,38.888888888888886,0.8235294117472665,0.9818181818180751,6.266153828454746e-12,0.9897769702992367,0
506,411.775,0.6749999999999545,0.6805555555555998,0.6847222222222342,0.9858012170384559,0.03345515311818785,0.8806370531705586,44.44444444444444,0.9411764705683046,0.9939148073022784,3.1860797333749247e-10,0.9919217455913594,0
507,412.4555555555556,0.6805555555555998,0.6861111111110745,0.6833333333333371,0.9959349593496527,0.03384351052218219,0.8908597509601142,44.44444444444444,0.9411764705683046,1.0040650406503473,4.1876710432653397e-10,0.9921583300279645,0
508,413.14166666666665,0.6861111111110745,0.6722222222222172,0.6833333333333371,1.0040650406503473,0.03467815557963027,0.9128300394008165,44.44444444444444,0.9411764705683046,0.9837398373983611,2.8341309854518215e-10,0.9944582472428449,0
509,413.81388888888887,0.6722222222222172,0.6750000000000114,0.6833333333333371,0.9837398373983611,0.03208406739333831,0.844546084221464,41.666666666666664,0.8823529411577855,0.9878048780487917,1.6951572090473377e-10,0.9865070139486981,0
510,414.4888888888889,0.6750000000000114,0.6805555555555429,0.6819444444444684,0.9898167006109798,0.03125958847184945,0.8228433980835113,41.666666666666664,0.8823529411577855,0.9979633401221459,6.567928839684711e-11,0.9863718578933423,0
511,415.1694444444444,0.6805555555555429,0.6833333333333371,0.6805555555555713,0.9999999999999583,0.03267160755912298,0.8600118523316291,38.888888888888886,0.8235294117472665,1.0040816326530435,4.795786337496999e-11,0.9887851975936168,0
512,415.85277777777776,0.6833333333333371,0.6833333333333371,0.6805555555555713,1.0040816326530435,0.03274918567954643,0.8620539343725891,41.666666666666664,0.8823529411577855,1.0040816326530435,6.493688226028027e-11,0.9906625641293159,0
513,416.5361111111111,0.6833333333333371,0.6805555555555429,0.6819444444444684,1.0020366598777708,0.03379547676821404,0.8895953626789488,41.666666666666664,0.8823529411577855,0.9979633401221459,1.711707581231181e-10,0.9910260035739493,0
514,417.21666666666664,0.6805555555555429,0.6805555555555998,0.6805555555555713,0.9999999999999583,0.031874713379844925,0.8390352769368306,44.44444444444444,0.9411764705683046,1.0000000000000417,1.3127722520156482e-10,0.9889586474606336,0
515,417.89722222222224,0.6805555555555998,0.6666666666666288,0.6805555555555713,1.0000000000000417,0.03281197923168326,0.8637068435228338,41.666666666666664,0.8823529411577855,0.9795918367346155,3.1736946404237187e-10,0.9864355793777941,0
516,418.56388888888887,0.6666666666666288,0.6833333333333371,0.6805555555555713,0.9795918367346155,0.033888214169283455,0.8920364811311035,41.666666666666664,0.8823529411577855,1.0040816326530435,1.348396949651942e-10,0.9935249916628224,0
517,419.2472222222222,0.6833333333333371,0.6750000000000114,0.6805555555555713,1.0040816326530435,0.034629514549922705,0.9115496658537721,47.22222222222222,0.9999999999788236,0.9918367346938712,6.375748817788462e-10,0.9954915034738321,0
518,419.9222222222222,0.6750000000000114,0.6750000000000114,0.6805555555555429,0.9918367346939126,0.032648445293241395,0.8594021540439347,44.44444444444444,0.9411764705683046,0.9918367346939126,2.3686147487822495e-10,0.990229369431469,0
519,420.59722222222223,0.6750000000000114,0.6638888888888914,0.6805555555555429,0.9918367346939126,0.03130369448008883,0.8240043966593009,41.666666666666664,0.8823529411577855,0.9755102040816545,6.756077641778546e-11,0.9856579908792709,0
520,421.2611111111111,0.6638888888888914,0.6861111111110745,0.6805555555555429,0.9755102040816545,0.03276247178507889,0.8624036633600155,41.666666666666664,0.8823529411577855,1.0081632653060872,7.548318081695982e-10,0.9866679833204659,0
521,421.9472222222222,0.6861111111110745,0.6638888888888914,0.6805555555555713,1.0081632653060453,0.032571022739598374,0.8573641669736539,44.44444444444444,0.9411764705683046,0.9755102040816137,1.4415783844423657e-10,0.989687011118483,0
522,422.6111111111111,0.6638888888888914,0.6611111111111541,0.6777777777777771,0.9795081967213162,0.03230365517347468,0.8503262740453879,47.22222222222222,0.9999999999788236,0.975409836065638,8.284230523791791e-10,0.989232369268683,0
523,423.27222222222224,0.6611111111111541,0.658333333333303,0.6750000000000114,0.9794238683128044,0.03380181700975924,0.8897622562995229,44.44444444444444,0.9411764705683046,0.9753086419752472,5.250172518955765e-10,0.9925360376392376,0
