beat_index,peak_time_s,rr_prev_s,rr_next_s,rr_baseline_s,prematurity_index,aa_ratio,morph_index,qrs_width_ms,width_index,pause_index,pvc_score,morphology_score,is_pvc_candidate
0,0.8611111111111112,,0.5027777777777778,0.8916666666666515,,0.026145729853566464,1.0012872411361655,41.666666666666664,0.9999999999760001,0.5638629283489193,0.0,0.9974292430456082,0
1,1.363888888888889,0.5027777777777778,0.09999999999999987,0.8916666666666515,0.5638629283489193,0.059356069085524495,2.2731235651937807,105.55555555555556,2.533333333272534,0.11214953271028213,1.0,0.7302523448801956,1
2,1.4638888888888888,0.09999999999999987,1.252777777777778,0.8916666666666515,0.11214953271028213,0.058499314646433216,2.240312957363996,111.11111111111111,2.666666666602667,1.4049844236760365,1.0,0.6980444273161808,1
3,2.716666666666667,1.252777777777778,0.9388888888888887,0.8916666666666515,1.4049844236760365,0.024761915441689014,0.9482921355310248,41.666666666666664,0.9999999999760001,1.05295950155765,0.0,0.9929367278598893,0
4,3.6555555555555554,0.9388888888888887,0.9333333333333331,0.8916666666666515,1.05295950155765,0.02800799308033151,1.0726052123322367,47.22222222222222,1.1333333333061335,1.0467289719626345,0.0,0.9978540361984181,0
5,4.588888888888889,0.9333333333333331,0.8861111111111111,0.8916666666666515,1.0467289719626345,0.025756609139627868,0.9863853199310337,41.666666666666664,0.9999999999760001,0.9937694704050013,0.0,0.9963461017596895,0
6,5.475,0.8861111111111111,0.9000000000000004,0.8916666666666515,0.9937694704050013,0.028779149217156564,1.1021377136259978,41.666666666666664,0.9999999999760001,1.009345794392541,0.0,0.9956822605722799,0
7,6.375,0.9000000000000004,0.5,0.8916666666666515,1.009345794392541,0.02525851011068361,0.9673099219483621,41.666666666666664,0.9999999999760001,0.5607476635514114,0.0,0.9985761536683273,0
8,6.875,0.5,0.10277777777777786,0.8916666666666515,0.5607476635514114,0.05997046212100755,2.296652604578703,105.55555555555556,2.533333333272534,0.11526479750779021,1.0,0.7190546660133801,1
9,6.977777777777778,0.10277777777777786,1.2361111111111107,0.8916666666666515,0.11526479750779021,0.0579495699053027,2.219259714702246,108.33333333333333,2.5999999999376002,1.3862928348909889,1.0,0.6761207788086918,1
10,8.213888888888889,1.2361111111111107,0.9444444444444446,0.8916666666666515,1.3862928348909889,0.026422223745995916,1.0118759609115258,44.44444444444444,1.0666666666410667,1.0591900311526663,0.0,0.9936395619664307,0
11,9.158333333333333,0.9444444444444446,0.8805555555555564,0.8916666666666515,1.0591900311526663,0.025528193001221864,0.9776378048937234,44.44444444444444,1.0666666666410667,0.9875389408099866,0.0,0.9991974113000839,0
12,10.03888888888889,0.8805555555555564,0.8611111111111107,0.8916666666666515,0.9875389408099866,0.025509604429120272,0.9769259295633921,44.44444444444444,1.0666666666410667,0.9657320872274303,0.0,0.9997052906930741,0
13,10.9,0.8611111111111107,0.9277777777777771,0.8916666666666515,0.9657320872274303,0.025643918444200622,0.9820696723603589,44.44444444444444,1.0666666666410667,1.0404984423676182,0.0,0.9993189942127201,0
14,11.827777777777778,0.9277777777777771,0.49166666666666714,0.8916666666666515,1.0404984423676182,0.02575017296197555,0.9861388375187604,44.44444444444444,1.0666666666410667,0.5514018691588884,0.0,0.9996835492384191,0
15,12.319444444444445,0.49166666666666714,0.09722222222222143,0.8916666666666515,0.5514018691588884,0.06010899354625572,2.301957858988286,105.55555555555556,2.533333333272534,0.10903426791277356,1.0,0.7255910451450007,1
16,12.416666666666666,0.09722222222222143,1.2138888888888903,0.8916666666666515,0.10903426791277356,0.059858619670509684,2.292369441732299,105.55555555555556,2.533333333272534,1.3613707165109281,1.0,0.7160869790978609,1
17,13.630555555555556,1.2138888888888903,0.9249999999999989,0.8916666666666515,1.3613707165109281,0.02776961175733277,1.0634760666330876,44.44444444444444,1.0666666666410667,1.03738317757011,0.0,0.9947135496809615,0
18,14.555555555555555,0.9249999999999989,0.8694444444444454,0.8916666666666515,1.03738317757011,0.024959759586254824,0.9558688533658961,41.666666666666664,0.9999999999760001,0.9750778816199553,0.0,0.9998018983168635,0
19,15.425,0.8694444444444454,0.9166666666666643,0.8916666666666515,0.9750778816199553,0.02513604610922646,0.9626199919733991,41.666666666666664,0.9999999999760001,1.0280373831775849,0.0,0.9982272724077776,0
20,16.341666666666665,0.9166666666666643,0.9111111111111114,0.8916666666666515,1.0280373831775849,0.025636638069960072,0.9817908602606935,41.666666666666664,0.9999999999760001,1.0218068535825722,0.0,0.9982456586300972,0
21,17.252777777777776,0.9111111111111114,0.8638888888888907,0.8916666666666515,1.0218068535825722,0.024648627650908625,0.943953621359869,41.666666666666664,0.9999999999760001,0.9688473520249407,0.0,0.9968541978211931,0
22,18.116666666666667,0.8638888888888907,0.9527777777777757,0.8916666666666515,0.9688473520249407,0.025996432379185894,0.9955696858386711,44.44444444444444,1.0666666666410667,1.0685358255451871,0.0,0.9964489425902858,0
23,19.069444444444443,0.9527777777777757,0.9305555555555571,0.8916666666666515,1.0685358255451871,0.02550323227424074,0.9766818989926199,41.666666666666664,0.9999999999760001,1.0436137071651286,0.0,0.9978279272896884,0
24,20.0,0.9305555555555571,0.8694444444444436,0.8916666666666515,1.0436137071651286,0.023760067810981854,0.9099249812841242,38.888888888888886,0.9333333333109334,0.9750778816199533,0.0,0.9980634292761433,0
25,20.869444444444444,0.8694444444444436,0.5111111111111128,0.8916666666666515,0.9750778816199533,0.03092688174318894,1.184388130337774,44.44444444444444,1.0666666666410667,0.5732087227414447,0.0,0.9967256467966652,0
26,21.380555555555556,0.5111111111111128,0.09722222222222143,0.8916666666666515,0.5732087227414447,0.0594279428955136,2.275876073129761,100.0,2.3999999999424,0.10903426791277356,1.0,0.7473876048155038,1
27,21.477777777777778,0.09722222222222143,1.2416666666666671,0.8916666666666515,0.10903426791277356,0.05813538667190093,2.2263758272998295,105.55555555555556,2.533333333272534,1.3925233644860056,1.0,0.6961950796201388,1
28,22.719444444444445,1.2416666666666671,0.5166666666666657,0.8916666666666515,1.3925233644860056,0.02547366561636036,0.9755496025348631,41.666666666666664,0.9999999999760001,0.5794392523364574,0.0,0.9939936257934905,0
29,23.23611111111111,0.5166666666666657,0.10000000000000142,0.8916666666666515,0.5794392523364574,0.05991136162945423,2.294389268712057,105.55555555555556,2.533333333272534,0.11214953271028387,1.0,0.73068596080461,1
30,23.336111111111112,0.10000000000000142,1.277777777777775,0.8916666666666515,0.11214953271028387,0.05931178096263338,2.271427489672726,111.11111111111111,2.666666666602667,1.4330218068536038,1.0,0.7019799044937307,1
31,24.613888888888887,1.277777777777775,0.49722222222222356,0.8916666666666515,1.4330218068536038,0.025446873472416066,0.9745235599633092,41.666666666666664,0.9999999999760001,0.557632398753905,0.0,0.9927651636270076,0
32,25.11111111111111,0.49722222222222356,0.10000000000000142,0.8916666666666515,0.557632398753905,0.05888139998187978,2.2549454489238245,100.0,2.3999999999424,0.11214953271028387,1.0,0.7498129625047425,1
33,25.211111111111112,0.10000000000000142,1.2638888888888893,0.8916666666666515,0.11214953271028387,0.056316985504601395,2.156737614930869,105.55555555555556,2.533333333272534,1.417445482866068,1.0,0.665581269847081,1
34,26.475,1.2638888888888893,0.5361111111111114,0.8916666666666515,1.417445482866068,0.030999556025052617,1.1871712934621685,44.44444444444444,1.0666666666410667,0.6012461059190137,0.0,0.9938800016006745,0
35,27.011111111111113,0.5361111111111114,0.09722222222222143,0.8916666666666515,0.6012461059190137,0.060119951389502976,2.302377504899695,102.77777777777777,2.466666666607467,0.10903426791277356,1.0,0.7422157167478415,1
36,27.108333333333334,0.09722222222222143,1.2083333333333321,0.8916666666666515,0.10903426791277356,0.05955468606753278,2.280729879917894,102.77777777777777,2.466666666607467,1.3551401869159097,1.0,0.7039274758987076,1
37,28.316666666666666,1.2083333333333321,0.56111111111111,0.8916666666666515,1.3551401869159097,0.030841578349067096,1.1811213177210222,44.44444444444444,1.0666666666410667,0.6292834890965827,0.0,0.9930868892175622,0
38,28.877777777777776,0.56111111111111,0.10000000000000142,0.8916666666666515,0.6292834890965827,0.061573143436409204,2.358029523934431,108.33333333333333,2.5999999999376002,0.11214953271028387,1.0,0.7304829801011992,1
39,28.977777777777778,0.10000000000000142,1.2111111111111121,0.8916666666666515,0.11214953271028387,0.06088815205164941,2.331796822162879,108.33333333333333,2.5999999999376002,1.3582554517134198,1.0,0.701307431781155,1
40,30.18888888888889,1.2111111111111121,0.5166666666666657,0.8916666666666515,1.3582554517134198,0.025327566037078534,0.9699545150965103,41.666666666666664,0.9999999999760001,0.5794392523364574,0.0,0.9946495832456717,0
41,30.705555555555556,0.5166666666666657,0.10277777777777786,0.8916666666666515,0.5794392523364574,0.060206459096798885,2.3056904383714496,105.55555555555556,2.533333333272534,0.11526479750779021,1.0,0.7331558244043396,1
42,30.808333333333334,0.10277777777777786,1.2611111111111093,0.8916666666666515,0.11526479750779021,0.05851419474456775,2.2408828115043242,111.11111111111111,2.666666666602667,1.4143302180685577,1.0,0.6779209035020358,1
43,32.06944444444444,1.2611111111111093,0.8861111111111128,0.8916666666666515,1.4143302180685577,0.03013106439464875,1.1539111934983377,44.44444444444444,1.0666666666410667,0.9937694704050033,0.0,0.987502367298246,0
44,32.955555555555556,0.8861111111111128,0.8972222222222186,0.8916666666666515,0.9937694704050033,0.026814454745967206,1.026896994864256,44.44444444444444,1.0666666666410667,1.0062305295950287,0.0,0.9955149395947884,0
45,33.852777777777774,0.8972222222222186,0.875,0.8916666666666515,1.0062305295950287,0.0234785946631754,0.8991455739698322,41.666666666666664,0.9999999999760001,0.9813084112149699,0.0,0.9971403837797347,0
46,34.727777777777774,0.875,0.8416666666666686,0.8916666666666515,0.9813084112149699,0.029457837836571705,1.1281290421959287,44.44444444444444,1.0666666666410667,0.943925233644878,0.0,0.9957560955618909,0
47,35.56944444444444,0.8416666666666686,0.5083333333333329,0.8916666666666515,0.943925233644878,0.028084797078961422,1.0755465287279569,44.44444444444444,1.0666666666410667,0.5700934579439344,0.0,0.9967625993028051,0
48,36.077777777777776,0.5083333333333329,0.10277777777778141,0.8916666666666515,0.5700934579439344,0.0600714155624424,2.3005187576149213,102.77777777777777,2.466666666607467,0.1152647975077942,1.0,0.7517195635633167,1
49,36.18055555555556,0.10277777777778141,1.2166666666666686,0.8916666666666515,0.1152647975077942,0.056652448579682484,2.169584641915093,108.33333333333333,2.5999999999376002,1.3644859813084365,1.0,0.6526779557999451,1
50,37.397222222222226,1.2166666666666686,0.5055555555555529,0.8916666666666515,1.3644859813084365,0.025189320740863518,0.9646602183978735,41.666666666666664,0.9999999999760001,0.5669781931464241,0.0,0.9931763342427617,0
51,37.90277777777778,0.5055555555555529,0.09722222222222143,0.8916666666666515,0.5669781931464241,0.059761083132586316,2.2886341437882662,105.55555555555556,2.533333333272534,0.10903426791277356,1.0,0.7482324181567253,1
52,38.0,0.09722222222222143,1.2250000000000014,0.8916666666666515,0.10903426791277356,0.058557227687300144,2.2425308181481554,105.55555555555556,2.533333333272534,1.3738317757009595,1.0,0.6998657906269642,1
53,39.225,1.2250000000000014,0.5333333333333314,0.8916666666666515,1.3738317757009595,0.02635104995799248,1.0091502612951715,44.44444444444444,1.0666666666410667,0.5981308411215034,0.0,0.9939852386919212,0
54,39.75833333333333,0.5333333333333314,0.10277777777778141,0.8916666666666515,0.5981308411215034,0.060318222183863617,2.309970561884339,108.33333333333333,2.5999999999376002,0.1152647975077942,1.0,0.7395574298141088,1
55,39.861111111111114,0.10277777777778141,1.2194444444444414,0.8916666666666515,0.1152647975077942,0.058633366633104526,2.245446665417077,111.11111111111111,2.666666666602667,1.3676012461059388,1.0,0.6653903897921553,1
56,41.080555555555556,1.2194444444444414,0.5,0.8916666666666515,1.3676012461059388,0.025158817342621334,0.9634920481596643,41.666666666666664,0.9999999999760001,0.5607476635514114,0.0,0.9957023131328516,0
57,41.580555555555556,0.5,0.09444444444444144,0.8916666666666515,0.5607476635514114,0.05906795445886901,2.262089813171154,102.77777777777777,2.466666666607467,0.10591900311526323,1.0,0.7608037457137506,1
58,41.675,0.09444444444444144,1.2472222222222271,0.8916666666666515,0.10591900311526323,0.058791342859190104,2.25149658563228,102.77777777777777,2.466666666607467,1.3987538940810262,1.0,0.710479388342542,1
59,42.922222222222224,1.2472222222222271,0.8805555555555529,0.8916666666666515,1.3987538940810262,0.0274922463498609,1.0528539709719777,44.44444444444444,1.0666666666410667,0.9875389408099826,0.0,0.9954049265760991,0
60,43.80277777777778,0.8805555555555529,0.8666666666666671,0.8916666666666515,0.9875389408099826,0.02466264176356506,0.9444903113768365,41.666666666666664,0.9999999999760001,0.971962616822447,0.0,0.9972963799094214,0
61,44.669444444444444,0.8666666666666671,0.9027777777777786,0.8916666666666515,0.971962616822447,0.025585459378978437,0.9798309008109108,41.666666666666664,0.9999999999760001,1.0124610591900491,0.0,0.9998324635658612,0
62,45.57222222222222,0.9027777777777786,0.875,0.8916666666666515,1.0124610591900491,0.028070990377732204,1.0750177818212758,44.44444444444444,1.0666666666410667,0.9813084112149699,0.0,0.9959383221559279,0
63,46.44722222222222,0.875,0.48888888888888715,0.8916666666666515,0.9813084112149699,0.024915853828905828,0.954187421067307,41.666666666666664,0.9999999999760001,0.5482866043613781,0.0,0.9998218884471999,0
64,46.93611111111111,0.48888888888888715,0.10277777777778141,0.8916666666666515,0.5482866043613781,0.060188858654276256,2.305016404843414,105.55555555555556,2.533333333272534,0.1152647975077942,1.0,0.7486142500468167,1
65,47.03888888888889,0.10277777777778141,1.2722222222222186,0.8916666666666515,0.1152647975077942,0.05692948747326955,2.180194233270959,108.33333333333333,2.5999999999376002,1.4267912772585871,1.0,0.6589538545273536,1
66,48.31111111111111,1.2722222222222186,0.9194444444444443,0.8916666666666515,1.4267912772585871,0.024913157630540347,0.9540841663852596,41.666666666666664,0.9999999999760001,1.0311526479750952,0.0,0.9943469469702806,0
67,49.230555555555554,0.9194444444444443,0.49166666666666714,0.8916666666666515,1.0311526479750952,0.025718391504340042,0.9849217222110842,41.666666666666664,0.9999999999760001,0.5514018691588884,0.0,0.999559646360724,0
68,49.72222222222222,0.49166666666666714,0.09166666666666856,0.8916666666666515,0.5514018691588884,0.057889560007452025,2.216961551851322,97.22222222222223,2.333333333277334,0.10280373831776088,1.0,0.7532066136744562,1
69,49.81388888888889,0.09166666666666856,1.2666666666666657,0.8916666666666515,0.10280373831776088,0.05798405353295963,2.2205803133848745,100.0,2.3999999999424,1.4205607476635744,1.0,0.7304636206705247,1
70,51.080555555555556,1.2666666666666657,0.93888888888889,0.8916666666666515,1.4205607476635744,0.02470253577942383,0.9460181084320646,41.666666666666664,0.9999999999760001,1.0529595015576516,0.0,0.9903435013805072,0
71,52.019444444444446,0.93888888888889,0.5055555555555529,0.8916666666666515,1.0529595015576516,0.02583116432189955,0.9892405147635097,44.44444444444444,1.0666666666410667,0.5669781931464241,0.0,0.999309046519417,0
72,52.525,0.5055555555555529,0.10000000000000142,0.8916666666666515,0.5669781931464241,0.06023845022660014,2.306915583367551,105.55555555555556,2.533333333272534,0.11214953271028387,1.0,0.7320950153176065,1
73,52.625,0.10000000000000142,1.2749999999999986,0.8916666666666515,0.11214953271028387,0.059577260272246475,2.2815943906156337,111.11111111111111,2.666666666602667,1.4299065420560975,1.0,0.6994251881613047,1
74,53.9,1.2749999999999986,0.5527777777777771,0.8916666666666515,1.4299065420560975,0.027785029914296867,1.0640665264877731,47.22222222222222,1.1333333333061335,0.6199376947040597,0.0,0.9949204632892914,0
75,54.452777777777776,0.5527777777777771,0.45000000000000284,0.8916666666666515,0.6199376947040597,0.06083831579207342,2.3298882729986805,108.33333333333333,2.5999999999376002,0.5046728971962734,1.0,0.7119574191156357,1
76,54.90277777777778,0.45000000000000284,0.9444444444444429,0.8916666666666515,0.5046728971962734,0.02195279976461102,0.8407131273301847,186.11111111111111,4.466666666559467,1.0591900311526643,1.0,0.6084465395104992,1
77,55.84722222222222,0.9444444444444429,0.9250000000000043,0.8916666666666515,1.0591900311526643,0.02583175347673301,0.9892630772706993,44.44444444444444,1.0666666666410667,1.0373831775701159,0.0,0.9929439555966332,0
78,56.772222222222226,0.9250000000000043,0.49444444444444,0.8916666666666515,1.0373831775701159,0.026926679812149756,1.0311948105126847,44.44444444444444,1.0666666666410667,0.5545171339563908,0.0,0.9981533709402473,0
79,57.266666666666666,0.49444444444444,0.09722222222222143,0.8916666666666515,0.5545171339563908,0.059571282437276475,2.2813654610765233,102.77777777777777,2.466666666607467,0.10903426791277356,1.0,0.7362083537908697,1
80,57.36388888888889,0.09722222222222143,1.25277777777778,0.8916666666666515,0.10903426791277356,0.05879113320418081,2.2514885566008846,105.55555555555556,2.533333333272534,1.404984423676039,1.0,0.7092692440810896,1
81,58.61666666666667,1.25277777777778,0.5444444444444443,0.8916666666666515,1.404984423676039,0.030461045493103068,1.166548280531245,44.44444444444444,1.0666666666410667,0.6105919003115367,0.0,0.9891270956255684,0
82,59.16111111111111,0.5444444444444443,1.2944444444444443,0.8916666666666515,0.6105919003115367,0.052365701328957,2.005417668869532,105.55555555555556,2.533333333272534,1.4517133956386539,1.0,0.864073262361239,1
83,60.455555555555556,1.2944444444444443,0.5750000000000028,0.8916666666666515,1.4517133956386539,0.02537399268218369,0.9717324883125155,44.44444444444444,1.0666666666410667,0.6448598130841263,0.0,0.9938006679676386,0
84,61.03055555555556,0.5750000000000028,1.2249999999999943,0.8916666666666515,0.6448598130841263,0.053453654293911496,2.047082347150319,102.77777777777777,2.466666666607467,1.3738317757009515,1.0,0.8697393171513818,1
85,62.25555555555555,1.2249999999999943,0.9250000000000043,0.8916666666666515,1.3738317757009515,0.02628062319307754,1.0064531699713197,44.44444444444444,1.0666666666410667,1.0373831775701159,0.0,0.9970795481107109,0
86,63.18055555555556,0.9250000000000043,0.8833333333333258,0.8916666666666515,1.0373831775701159,0.025700054730190252,0.9842194898349903,44.44444444444444,1.0666666666410667,0.990654205607485,0.0,0.9974187952293249,0
87,64.06388888888888,0.8833333333333258,0.88611111111112,0.8916666666666515,0.990654205607485,0.030549451656796095,1.1699339180422037,47.22222222222222,1.1333333333061335,0.9937694704050112,0.0,0.9966539175632612,0
88,64.95,0.88611111111112,0.9472222222222229,0.8916666666666515,0.9937694704050112,0.02475103407832025,0.9478754185233784,41.666666666666664,0.9999999999760001,1.0623052959501744,0.0,0.999774264918095,0
89,65.89722222222223,0.9472222222222229,0.9194444444444372,0.8916666666666515,1.0623052959501744,0.02649972656431193,1.0148440395831309,44.44444444444444,1.0666666666410667,1.0311526479750872,0.0,0.9991408632431458,0
90,66.81666666666666,0.9194444444444372,0.9777777777777885,0.8916666666666515,1.0311526479750872,0.024391065457106283,0.9340899174243621,44.44444444444444,1.0666666666410667,1.0965732087227722,0.0,0.9976164016206808,0
91,67.79444444444445,0.9777777777777885,0.9499999999999886,0.8916666666666515,1.0965732087227722,0.030572264992402207,1.1708075865914502,44.44444444444444,1.0666666666410667,1.065420560747669,0.0,0.9965059396411118,0
92,68.74444444444444,0.9499999999999886,0.8972222222222257,0.8916666666666515,1.065420560747669,0.02449723501692928,0.938155828999338,41.666666666666664,0.9999999999760001,1.0062305295950367,0.0,0.9985176756627664,0
93,69.64166666666667,0.8972222222222257,0.50277777777778,0.8916666666666515,1.0062305295950367,0.023667349984417323,0.906374222621624,41.666666666666664,0.9999999999760001,0.5638629283489217,0.0,0.997351510910576,0
94,70.14444444444445,0.50277777777778,0.1027777777777743,0.8916666666666515,0.5638629283489217,0.06031562094964672,2.309870943986993,111.11111111111111,2.666666666602667,0.11526479750778623,1.0,0.7301342035569987,1
95,70.24722222222222,0.1027777777777743,1.2999999999999972,0.8916666666666515,0.11526479750778623,0.05877107148895538,2.2507202651971627,113.88888888888889,2.7333333332677334,1.4579439252336666,1.0,0.6840215383560582,1
96,71.54722222222222,1.2999999999999972,0.87777777777778,0.8916666666666515,1.4579439252336666,0.027126624939253035,1.0388519884081626,44.44444444444444,1.0666666666410667,0.9844236760124803,0.0,0.9939805112548613,0
97,72.425,0.87777777777778,0.9166666666666714,0.8916666666666515,0.9844236760124803,0.024388024994176548,0.93397347865001,41.666666666666664,0.9999999999760001,1.0280373831775929,0.0,0.9997441410919683,0
98,73.34166666666667,0.9166666666666714,0.9083333333333314,0.8916666666666515,1.0280373831775929,0.024419117395183345,0.9351642055717199,41.666666666666664,0.9999999999760001,1.0186915887850618,0.0,0.9976095754439903,0
99,74.25,0.9083333333333314,0.88333333333334,0.8916666666666515,1.0186915887850618,0.025881342986257064,0.991162176797036,44.44444444444444,1.0666666666410667,0.990654205607501,0.0,0.9995051976518077,0
100,75.13333333333334,0.88333333333334,0.8861111111111057,0.8916666666666515,0.990654205607501,0.024887725942399894,0.9531102243687924,41.666666666666664,0.9999999999760001,0.9937694704049953,0.0,0.9984311303302346,0
101,76.01944444444445,0.8861111111111057,0.9138888888888914,0.8916666666666515,0.9937694704049953,0.025400581681467922,0.9727507511755906,44.44444444444444,1.0666666666410667,1.0249221183800825,0.0,0.999014987747151,0
102,76.93333333333334,0.9138888888888914,0.48611111111111427,0.8916666666666515,1.0249221183800825,0.02526016487653058,0.9673732935175979,41.666666666666664,0.9999999999760001,0.5451713395638758,0.0,0.9987328921773598,0
103,77.41944444444445,0.48611111111111427,1.3916666666666657,0.8916666666666515,0.5451713395638758,0.06039183423670806,2.3127896382581787,108.33333333333333,2.5999999999376002,1.5607476635514272,1.0,0.7194488205958545,1
104,78.81111111111112,1.3916666666666657,0.9638888888888886,0.8916666666666515,1.5607476635514272,0.025688829711302385,0.9837896120592738,41.666666666666664,0.9999999999760001,1.0809968847352205,0.0,0.9956169984478445,0
105,79.775,0.9638888888888886,0.9361111111111029,0.8916666666666515,1.0809968847352205,0.023936371824948618,0.9166767897337145,38.888888888888886,0.9333333333109334,1.0498442367601333,0.0,0.9979487175134738,0
106,80.71111111111111,0.9361111111111029,0.8916666666666657,0.8916666666666515,1.0498442367601333,0.025830687827886813,0.9892222667597973,44.44444444444444,1.0666666666410667,1.000000000000016,0.0,0.999148858838427,0
107,81.60277777777777,0.8916666666666657,0.9111111111111114,0.8916666666666515,1.000000000000016,0.024780789057675754,0.9490149270150441,41.666666666666664,0.9999999999760001,1.0218068535825722,0.0,0.9968031570461406,0
108,82.51388888888889,0.9111111111111114,0.5333333333333314,0.8916666666666515,1.0218068535825722,0.026012497581563047,0.9961849252011447,44.44444444444444,1.0666666666410667,0.5981308411215034,0.0,0.9993797016873859,0
109,83.04722222222222,0.5333333333333314,0.09722222222222854,0.8916666666666515,0.5981308411215034,0.06024767013363038,2.3072686725842435,105.55555555555556,2.533333333272534,0.10903426791278152,1.0,0.7438545314159972,1
110,83.14444444444445,0.09722222222222854,1.2638888888888857,0.8916666666666515,0.10903426791278152,0.05980013018836716,2.290129505324405,111.11111111111111,2.666666666602667,1.417445482866064,1.0,0.7105717598864937,1
111,84.40833333333333,1.2638888888888857,0.49166666666667425,0.8916666666666515,1.417445482866064,0.025620202566183317,0.9811614396889413,41.666666666666664,0.9999999999760001,0.5514018691588963,0.0,0.9929937121090362,0
112,84.9,0.49166666666667425,0.09999999999999432,0.8916666666666515,0.5514018691588963,0.05993493660655936,2.295292105386254,108.33333333333333,2.5999999999376002,0.1121495327102759,1.0,0.7457711638775187,1
113,85.0,0.09999999999999432,1.2972222222222172,0.8916666666666515,0.1121495327102759,0.0587079934476521,2.2483046035076035,108.33333333333333,2.5999999999376002,1.4548286604361562,1.0,0.6893618917959858,1
114,86.29722222222222,1.2972222222222172,0.5444444444444514,0.8916666666666515,1.4548286604361562,0.02538314912118693,0.9720831469324711,41.666666666666664,0.9999999999760001,0.6105919003115446,0.0,0.9955110617057705,0
115,86.84166666666667,0.5444444444444514,1.2916666666666714,0.8916666666666515,0.6105919003115446,0.05307428990993229,2.032554058227145,102.77777777777777,2.466666666607467,1.4485981308411515,1.0,0.8717502180475333,1
116,88.13333333333334,1.2916666666666714,0.9333333333333229,0.8916666666666515,1.4485981308411515,0.0239193805864091,0.9160260865230562,41.666666666666664,0.9999999999760001,1.046728971962623,0.0,0.9908658982316209,0
117,89.06666666666666,0.9333333333333229,0.8666666666666742,0.8916666666666515,1.046728971962623,0.025311169089310866,0.9693265710809753,44.44444444444444,1.0666666666410667,0.9719626168224549,0.0,0.9994525902368294,0
118,89.93333333333334,0.8666666666666742,0.8944444444444457,0.8916666666666515,0.9719626168224549,0.025086698145402632,0.960730142777007,41.666666666666664,0.9999999999760001,1.0031152647975263,0.0,0.9976203885835531,0
119,90.82777777777778,0.8944444444444457,0.9083333333333314,0.8916666666666515,1.0031152647975263,0.022889822859202217,0.8765977354294346,38.888888888888886,0.9333333333109334,1.0186915887850618,0.0,0.9962566077030316,0
120,91.73611111111111,0.9083333333333314,0.8888888888888857,0.8916666666666515,1.0186915887850618,0.03035051057952165,1.1623151916372259,44.44444444444444,1.0666666666410667,0.9968847352025056,0.0,0.996165163625365,0
121,92.625,0.8888888888888857,0.8972222222222257,0.8916666666666515,0.9968847352025056,0.025213837816941122,0.9655991340680024,44.44444444444444,1.0666666666410667,1.0062305295950367,0.0,0.9993286801240971,0
122,93.52222222222223,0.8972222222222257,0.9249999999999972,0.8916666666666515,1.0062305295950367,0.026154165932914784,1.0016103125770468,41.666666666666664,0.9999999999760001,1.037383177570108,0.0,0.9986432157550398,0
123,94.44722222222222,0.9249999999999972,0.9138888888888914,0.8916666666666515,1.037383177570108,0.022756138961894254,0.8714781238726144,38.888888888888886,0.9333333333109334,1.0249221183800825,0.0,0.9961995863495559,0
124,95.36111111111111,0.9138888888888914,0.9083333333333314,0.8916666666666515,1.0249221183800825,0.026540045848927257,1.0163881228993423,44.44444444444444,1.0666666666410667,1.0186915887850618,0.0,0.998150620314429,0
125,96.26944444444445,0.9083333333333314,0.9416666666666629,0.8916666666666515,1.0186915887850618,0.029320601576091728,1.1228733879300334,44.44444444444444,1.0666666666410667,1.056074766355154,0.0,0.9954176198483833,0
126,97.21111111111111,0.9416666666666629,0.9527777777777828,0.8916666666666515,1.056074766355154,0.02578174286349109,0.9873478509893531,41.666666666666664,0.9999999999760001,1.068535825545195,0.0,0.9980810704709151,0
127,98.16388888888889,0.9527777777777828,0.9111111111111114,0.8916666666666515,1.068535825545195,0.02912375629040272,1.1153349227909042,44.44444444444444,1.0666666666410667,1.0218068535825722,0.0,0.9966897198877562,0
128,99.075,0.9111111111111114,0.9694444444444485,0.8916666666666515,1.0218068535825722,0.02463463246214022,0.9434176560596238,41.666666666666664,0.9999999999760001,1.0872274143302412,0.0,0.9995128034359704,0
129,100.04444444444445,0.9694444444444485,0.9416666666666629,0.8916666666666515,1.0872274143302412,0.026579210310524896,1.0178879806552097,44.44444444444444,1.0666666666410667,1.056074766355154,0.0,0.9986008233212667,0
130,100.98611111111111,0.9416666666666629,0.9166666666666572,0.8916666666666515,1.056074766355154,0.024935662433817517,0.9549460192580581,41.666666666666664,0.9999999999760001,1.0280373831775769,0.0,0.9994116761002689,0
131,101.90277777777777,0.9166666666666572,0.9555555555555628,0.8916666666666515,1.0280373831775769,0.0249722497374591,0.9563471811506146,41.666666666666664,0.9999999999760001,1.0716510903427054,0.0,0.9996658096311037,0
132,102.85833333333333,0.9555555555555628,0.9111111111111114,0.8916666666666515,1.0716510903427054,0.027845428953291406,1.066379592042295,47.22222222222222,1.1333333333061335,1.0218068535825722,0.0,0.9977208435036182,0
133,103.76944444444445,0.9111111111111114,0.9027777777777715,0.8916666666666515,1.0218068535825722,0.024651310677509714,0.9440563716108028,41.666666666666664,0.9999999999760001,1.0124610591900414,0.0,0.9986963278055866,0
134,104.67222222222222,0.9027777777777715,0.9611111111111228,0.8916666666666515,1.0124610591900414,0.02502581353931691,0.9583984817525618,41.666666666666664,0.9999999999760001,1.0778816199377261,0.0,0.999804966142877,0
135,105.63333333333334,0.9611111111111228,0.9027777777777715,0.8916666666666515,1.0778816199377261,0.02331941388135409,0.8930495236103884,41.666666666666664,0.9999999999760001,1.0124610591900414,0.0,0.9977025458752189,0
136,106.53611111111111,0.9027777777777715,0.8972222222222257,0.8916666666666515,1.0124610591900414,0.029133529032227098,1.1157091835881536,44.44444444444444,1.0666666666410667,1.0062305295950367,0.0,0.9961309361986073,0
137,107.43333333333334,0.8972222222222257,0.9416666666666629,0.8916666666666515,1.0062305295950367,0.025942988497731714,0.9935229777560676,41.666666666666664,0.9999999999760001,1.056074766355154,0.0,0.9996572966478752,0
138,108.375,0.9416666666666629,0.9055555555555515,0.8916666666666515,1.056074766355154,0.029392054351658786,1.1256097717647844,41.666666666666664,0.9999999999760001,1.0155763239875517,0.0,0.9947732997102268,0
139,109.28055555555555,0.9055555555555515,0.88333333333334,0.8916666666666515,1.0155763239875517,0.02367002341471275,0.9064766053686297,41.666666666666664,0.9999999999760001,0.990654205607501,0.0,0.9976908709836392,0
140,110.16388888888889,0.88333333333334,0.9055555555555515,0.8916666666666515,0.990654205607501,0.0284680642957297,1.0902242820836736,44.44444444444444,1.0666666666410667,1.0155763239875517,0.0,0.9957827917837634,0
141,111.06944444444444,0.9055555555555515,0.87777777777778,0.8916666666666515,1.0155763239875517,0.025874115450133392,0.9908853882068526,41.666666666666664,0.9999999999760001,0.9844236760124803,0.0,0.9997936215367791,0
142,111.94722222222222,0.87777777777778,0.9055555555555515,0.8916666666666515,0.9844236760124803,0.024315101321561765,0.9311807647584904,41.666666666666664,0.9999999999760001,1.0155763239875517,0.0,0.9972178975873707,0
143,112.85277777777777,0.9055555555555515,0.9027777777777857,0.8916666666666515,1.0155763239875517,0.025993584745149245,0.9954606317160939,44.44444444444444,1.0666666666410667,1.0124610591900571,0.0,0.9987495467155667,0
144,113.75555555555556,0.9027777777777857,0.9083333333333314,0.8916666666666515,1.0124610591900571,0.02543072942666299,0.9739053011836382,41.666666666666664,0.9999999999760001,1.0186915887850618,0.0,0.9980024980568294,0
145,114.66388888888889,0.9083333333333314,0.9138888888888914,0.8916666666666515,1.0186915887850618,0.02604126154232212,0.9972864812515555,44.44444444444444,1.0666666666410667,1.0249221183800825,0.0,0.9993814605754827,0
146,115.57777777777778,0.9138888888888914,0.9138888888888772,0.8916666666666515,1.0249221183800825,0.029571060176935473,1.1324650498519688,44.44444444444444,1.0666666666410667,1.0249221183800665,0.0,0.9949607326381356,0
147,116.49166666666666,0.9138888888888772,0.5277777777777857,0.8916666666666515,1.0249221183800665,0.02560516243678297,0.9805854569277812,41.666666666666664,0.9999999999760001,0.5919003115264987,0.0,0.9998459446589318,0
148,117.01944444444445,0.5277777777777857,1.3027777777777771,0.8916666666666515,0.5919003115264987,0.052883618397869044,2.0252520263716054,102.77777777777777,2.466666666607467,1.4610591900311767,1.0,0.8699052302947341,1
149,118.32222222222222,1.3027777777777771,0.9222222222222172,0.8916666666666515,1.4610591900311767,0.02588747634859018,0.9913970624737338,41.666666666666664,0.9999999999760001,1.0342679127725976,0.0,0.9962100420439958,0
150,119.24444444444444,0.9222222222222172,0.8944444444444457,0.8916666666666515,1.0342679127725976,0.025662713492769315,0.9827894549953731,41.666666666666664,0.9999999999760001,1.0031152647975263,0.0,0.9970175331476951,0
151,120.13888888888889,0.8944444444444457,0.8694444444444542,0.8916666666666515,1.0031152647975263,0.025569317727067116,0.9792127337067532,44.44444444444444,1.0666666666410667,0.9750778816199652,0.0,0.9969205334657582,0
152,121.00833333333334,0.8694444444444542,0.8861111111111057,0.8916666666666515,0.9750778816199652,0.024978059888861565,0.9565696890133111,41.666666666666664,0.9999999999760001,0.9937694704049953,0.0,0.9975049301080122,0
153,121.89444444444445,0.8861111111111057,0.9027777777777715,0.8916666666666515,0.9937694704049953,0.02485325322708307,0.9517900435894693,41.666666666666664,0.9999999999760001,1.0124610591900414,0.0,0.9979730581234544,0
154,122.79722222222222,0.9027777777777715,0.8638888888888943,0.8916666666666515,1.0124610591900414,0.025419547508585095,0.9734770740136364,41.666666666666664,0.9999999999760001,0.9688473520249447,0.0,0.9973460617203785,0
155,123.66111111111111,0.8638888888888943,0.88055555555556,0.8916666666666515,0.9688473520249447,0.02475286097755799,0.9479453821812237,44.44444444444444,1.0666666666410667,0.9875389408099906,0.0,0.9991086906962277,0
156,124.54166666666667,0.88055555555556,0.5416666666666572,0.8916666666666515,0.9875389408099906,0.024441720752785303,0.9360298327200318,41.666666666666664,0.9999999999760001,0.6074766355140184,0.0,0.9996032482696775,0
157,125.08333333333333,0.5416666666666572,1.2861111111111114,0.8916666666666515,0.6074766355140184,0.05279468536842723,2.021846211800951,105.55555555555556,2.533333333272534,1.4423676012461308,1.0,0.8687962266385951,1
158,126.36944444444444,1.2861111111111114,0.9444444444444429,0.8916666666666515,1.4423676012461308,0.025422361930503005,0.9735848562317408,41.666666666666664,0.9999999999760001,1.0591900311526643,0.0,0.9946618266874516,0
159,127.31388888888888,0.9444444444444429,0.9111111111111114,0.8916666666666515,1.0591900311526643,0.02732338006041303,1.0463870005707252,44.44444444444444,1.0666666666410667,1.0218068535825722,0.0,0.9988309249154871,0
160,128.225,0.9111111111111114,0.8916666666666799,0.8916666666666515,1.0218068535825722,0.02463933210607938,0.9435976354880247,41.666666666666664,0.9999999999760001,1.000000000000032,0.0,0.9997077499179426,0
161,129.11666666666667,0.8916666666666799,0.924999999999983,0.8916666666666515,1.000000000000032,0.024943666016150456,0.9552525276216891,41.666666666666664,0.9999999999760001,1.037383177570092,0.0,0.9981725240233852,0
162,130.04166666666666,0.924999999999983,0.8833333333333542,0.8916666666666515,1.037383177570092,0.025639866319901228,0.9819144906009204,41.666666666666664,0.9999999999760001,0.9906542056075168,0.0,0.9996984090686605,0
163,130.925,0.8833333333333542,0.5027777777777658,0.8916666666666515,0.9906542056075168,0.02652930471666129,1.015976776237631,44.44444444444444,1.0666666666410667,0.5638629283489058,0.0,0.9987778458661591,0
164,131.42777777777778,0.5027777777777658,0.10277777777778851,0.8916666666666515,0.5638629283489058,0.06052879434041394,2.318034716714716,108.33333333333333,2.5999999999376002,0.11526479750780216,1.0,0.7466299145696114,1
165,131.53055555555557,0.10277777777778851,1.2361111111111143,0.8916666666666515,0.11526479750780216,0.05760641599062336,2.206118156274208,108.33333333333333,2.5999999999376002,1.3862928348909929,1.0,0.6647458482848612,1
166,132.76666666666668,1.2361111111111143,0.5083333333333258,0.8916666666666515,1.3862928348909929,0.02409000015787934,0.9225602013080739,38.888888888888886,0.9333333333109334,0.5700934579439264,0.0,0.9907102104811456,0
167,133.275,0.5083333333333258,0.09999999999999432,0.8916666666666515,0.5700934579439264,0.05957690726992505,2.2815808718987145,105.55555555555556,2.533333333272534,0.1121495327102759,1.0,0.7446902757380063,1
168,133.375,0.09999999999999432,1.2472222222222342,0.8916666666666515,0.1121495327102759,0.05814051888328601,2.2265723725027167,105.55555555555556,2.533333333272534,1.3987538940810342,1.0,0.6768162897879676,1
169,134.62222222222223,1.2472222222222342,0.6111111111110858,0.8916666666666515,1.3987538940810342,0.02630910754017137,1.007544017825898,44.44444444444444,1.0666666666410667,0.6853582554516967,0.0,0.9962027450611117,0
170,135.23333333333332,0.6111111111110858,1.2916666666666856,0.8916666666666515,0.6853582554516967,0.06130377259691862,2.3477135914197658,108.33333333333333,2.5999999999376002,1.4485981308411673,1.0,0.6893770534980436,1
171,136.525,1.2916666666666856,0.9499999999999886,0.8916666666666515,1.4485981308411673,0.024435476971029386,0.9357907183773208,38.888888888888886,0.9333333333109334,1.065420560747669,0.0,0.9904213987712454,0
172,137.475,0.9499999999999886,0.88055555555556,0.8916666666666515,1.065420560747669,0.025754833531796847,0.9863173205492448,44.44444444444444,1.0666666666410667,0.9875389408099906,0.0,0.9971797922722512,0
173,138.35555555555555,0.88055555555556,0.5083333333333258,0.8916666666666515,0.9875389408099906,0.025871824238740435,0.9907976430665424,44.44444444444444,1.0666666666410667,0.5700934579439264,0.0,0.9973826152438621,0
174,138.86388888888888,0.5083333333333258,0.10277777777778851,0.8916666666666515,0.5700934579439264,0.06054883792711317,2.318802313861208,102.77777777777777,2.466666666607467,0.11526479750780216,1.0,0.737743460440289,1
175,138.96666666666667,0.10277777777778851,1.2249999999999943,0.8916666666666515,0.11526479750780216,0.05748577345396146,2.201497981837525,108.33333333333333,2.5999999999376002,1.3738317757009515,1.0,0.661154604488103,1
176,140.19166666666666,1.2249999999999943,0.9083333333333314,0.8916666666666515,1.3738317757009515,0.024497205804032727,0.9381547102506644,41.666666666666664,0.9999999999760001,1.0186915887850618,0.0,0.9906507804052103,0
177,141.1,0.9083333333333314,0.49444444444444,0.8916666666666515,1.0186915887850618,0.025605864916892384,0.9806123593846889,41.666666666666664,0.9999999999760001,0.5545171339563908,0.0,0.998630347212061,0
178,141.59444444444443,0.49444444444444,1.3527777777777885,0.8916666666666515,0.5545171339563908,0.06000240466456922,2.297875888896902,108.33333333333333,2.5999999999376002,1.5171339563863306,1.0,0.7494200299653895,1
179,142.94722222222222,1.3527777777777885,0.9083333333333314,0.8916666666666515,1.5171339563863306,0.026330145331521015,1.008349689428032,44.44444444444444,1.0666666666410667,1.0186915887850618,0.0,0.9938390579050391,0
180,143.85555555555555,0.9083333333333314,0.9111111111111256,0.8916666666666515,1.0186915887850618,0.02526173078183462,0.9674332620482355,41.666666666666664,0.9999999999760001,1.0218068535825882,0.0,0.9975488761584461,0
181,144.76666666666668,0.9111111111111256,0.8861111111110915,0.8916666666666515,1.0218068535825882,0.026560341536061235,1.0171653745840787,44.44444444444444,1.0666666666410667,0.9937694704049793,0.0,0.997164476245823,0
182,145.65277777777777,0.8861111111110915,0.86944444444444,0.8916666666666515,0.9937694704049793,0.024965556411541297,0.9560908508863688,44.44444444444444,1.0666666666410667,0.9750778816199493,0.0,0.9994976044984683,0
183,146.5222222222222,0.86944444444444,0.50555555555556,0.8916666666666515,0.9750778816199493,0.022644388375607043,0.8671984790944592,38.888888888888886,0.9333333333109334,0.566978193146432,0.0,0.9968498152501031,0
184,147.02777777777777,0.50555555555556,0.09444444444446276,0.8916666666666515,0.566978193146432,0.058246822489245356,2.2306434175616996,102.77777777777777,2.466666666607467,0.10591900311528714,1.0,0.764385242673915,1
185,147.12222222222223,0.09444444444446276,1.23333333333332,0.8916666666666515,0.10591900311528714,0.05778286350653196,2.212875460331082,105.55555555555556,2.533333333272534,1.3831775700934665,1.0,0.7071760854752458,1
186,148.35555555555555,1.23333333333332,0.9555555555555486,0.8916666666666515,1.3831775700934665,0.02650175227376248,1.0149216169557438,44.44444444444444,1.0666666666410667,1.0716510903426895,0.0,0.9950192611399222,0
187,149.3111111111111,0.9555555555555486,0.9111111111111256,0.8916666666666515,1.0716510903426895,0.026180357822637737,1.0026133675748503,44.44444444444444,1.0666666666410667,1.0218068535825882,0.0,0.9982231388778096,0
188,150.22222222222223,0.9111111111111256,0.8777777777777658,0.8916666666666515,1.0218068535825882,0.02436657856282107,0.9331521576081263,41.666666666666664,0.9999999999760001,0.9844236760124644,0.0,0.9987208455662695,0
189,151.1,0.8777777777777658,0.9194444444444514,0.8916666666666515,0.9844236760124644,0.026367348612804698,1.009774441044697,44.44444444444444,1.0666666666410667,1.0311526479751032,0.0,0.9990897252118498,0
190,152.01944444444445,0.9194444444444514,0.8916666666666515,0.8916666666666515,1.0311526479751032,0.02813193896723037,1.077351893179863,44.44444444444444,1.0666666666410667,1.0,0.0,0.996690574931949,0
191,152.9111111111111,0.8916666666666515,0.88611111111112,0.8916666666666515,1.0,0.0252705693281593,0.9677717465240815,41.666666666666664,0.9999999999760001,0.9937694704050112,0.0,0.9967619603345431,0
192,153.79722222222222,0.88611111111112,0.9222222222222172,0.8916666666666515,0.9937694704050112,0.022408800200836493,0.858176300907755,38.888888888888886,0.9333333333109334,1.0342679127725976,0.0,0.9964838357594301,0
193,154.71944444444443,0.9222222222222172,0.8916666666666799,0.8916666666666515,1.0342679127725976,0.026905371272834388,1.0303787702390637,44.44444444444444,1.0666666666410667,1.000000000000032,0.0,0.9966968755475096,0
194,155.61111111111111,0.8916666666666799,0.8833333333333258,0.8916666666666515,1.000000000000032,0.02400909298073656,0.9194617479605054,41.666666666666664,0.9999999999760001,0.990654205607485,0.0,0.9984820131909515,0
195,156.49444444444444,0.8833333333333258,0.9277777777777771,0.8916666666666515,0.990654205607485,0.02440744313937254,0.9347171236406134,41.666666666666664,0.9999999999760001,1.0404984423676182,0.0,0.9986385747294901,0
196,157.42222222222222,0.9277777777777771,0.875,0.8916666666666515,1.0404984423676182,0.02912200908453041,1.1152680111017916,44.44444444444444,1.0666666666410667,0.9813084112149699,0.0,0.9959659744608715,0
197,158.29722222222222,0.875,0.48611111111111427,0.8916666666666515,0.9813084112149699,0.023116647110196308,0.8852842869149985,38.888888888888886,0.9333333333109334,0.5451713395638758,0.0,0.9973173540443929,0
198,158.78333333333333,0.48611111111111427,0.09722222222222854,0.8916666666666515,0.5451713395638758,0.0602596540773148,2.307727614444995,102.77777777777777,2.466666666607467,0.10903426791278152,1.0,0.755064642718815,1
199,158.88055555555556,0.09722222222222854,1.2666666666666515,0.8916666666666515,0.10903426791278152,0.05887764905009639,2.2548018017524467,108.33333333333333,2.5999999999376002,1.4205607476635584,1.0,0.6962596345009893,1
200,160.1472222222222,1.2666666666666515,0.88611111111112,0.8916666666666515,1.4205607476635584,0.025660194117015023,0.9826929719821801,41.666666666666664,0.9999999999760001,0.9937694704050112,0.0,0.9947878934814727,0
201,161.03333333333333,0.88611111111112,0.4833333333333485,0.8916666666666515,0.9937694704050112,0.02322130853657919,0.889292442413553,38.888888888888886,0.9333333333109334,0.5420560747663814,0.0,0.9972448443262631,0
202,161.51666666666668,0.4833333333333485,0.09999999999999432,0.8916666666666515,0.5420560747663814,0.06179871077767081,2.3666679403063284,108.33333333333333,2.5999999999376002,0.1121495327102759,1.0,0.7486008205631699,1
203,161.61666666666667,0.09999999999999432,1.2305555555555543,0.8916666666666515,0.1121495327102759,0.059794888222708335,2.2899287569283167,113.88888888888889,2.7333333332677334,1.3800623052959722,1.0,0.6975719286412525,1
204,162.84722222222223,1.2305555555555543,0.8861111111110915,0.8916666666666515,1.3800623052959722,0.026232902956878672,1.0046256568776888,41.666666666666664,0.9999999999760001,0.9937694704049793,0.0,0.9930895035883951,0
205,163.73333333333332,0.8861111111110915,0.5027777777777942,0.8916666666666515,0.9937694704049793,0.02568609011636991,0.9836846954450835,41.666666666666664,0.9999999999760001,0.5638629283489377,0.0,0.9960214273953776,0
206,164.23611111111111,0.5027777777777942,1.2972222222222172,0.8916666666666515,0.5638629283489377,0.0609034878030098,2.332384126179879,116.66666666666667,2.7999999999328007,1.4548286604361562,1.0,0.7082895810024828,1
207,165.53333333333333,1.2972222222222172,0.5194444444444457,0.8916666666666515,1.4548286604361562,0.024133946690377068,0.9242431951479323,38.888888888888886,0.9333333333109334,0.5825545171339677,0.0,0.9931399296102504,0
208,166.05277777777778,0.5194444444444457,0.09999999999999432,0.8916666666666515,0.5825545171339677,0.06170508932031703,2.3630825758406995,105.55555555555556,2.533333333272534,0.1121495327102759,1.0,0.7447512599149738,1
209,166.15277777777777,0.09999999999999432,1.2305555555555543,0.8916666666666515,0.1121495327102759,0.05974480573251541,2.2880107780187444,108.33333333333333,2.5999999999376002,1.3800623052959722,1.0,0.6921520089818867,1
210,167.38333333333333,1.2305555555555543,0.8666666666666742,0.8916666666666515,1.3800623052959722,0.02558515402980561,0.9798192070378721,41.666666666666664,0.9999999999760001,0.9719626168224549,0.0,0.9922840810177773,0
211,168.25,0.8666666666666742,0.4777777777777885,0.8916666666666515,0.9719626168224549,0.029603037011570594,1.1336896473947182,44.44444444444444,1.0666666666410667,0.5358255451713607,0.0,0.9942886466597094,0
212,168.7277777777778,0.4777777777777885,0.09999999999999432,0.8916666666666515,0.5358255451713607,0.060241114889592814,2.3070176303584535,105.55555555555556,2.533333333272534,0.1121495327102759,1.0,0.7517029959898113,1
213,168.82777777777778,0.09999999999999432,1.1944444444444287,0.8916666666666515,0.1121495327102759,0.05900680140643632,2.2597478716189263,108.33333333333333,2.5999999999376002,1.339563862928354,1.0,0.6804398959423443,1
214,170.0222222222222,1.1944444444444287,0.8611111111111143,0.8916666666666515,1.339563862928354,0.02490378894675119,0.953725379554796,41.666666666666664,0.9999999999760001,0.9657320872274343,0.0,0.9939181614530972,0
215,170.88333333333333,0.8611111111111143,0.9083333333333314,0.8916666666666515,0.9657320872274343,0.02445236220795077,0.9364373621079656,41.666666666666664,0.9999999999760001,1.0186915887850618,0.0,0.9967464100848034,0
216,171.79166666666666,0.9083333333333314,0.9138888888888914,0.8916666666666515,1.0186915887850618,0.02623485226868306,1.0047003084957413,44.44444444444444,1.0666666666410667,1.0249221183800825,0.0,0.998001058135109,0
217,172.70555555555555,0.9138888888888914,0.88611111111112,0.8916666666666515,1.0249221183800825,0.023508077347298144,0.9002746545352587,41.666666666666664,0.9999999999760001,0.9937694704050112,0.0,0.997859953617496,0
218,173.59166666666667,0.88611111111112,0.51111111111112,0.8916666666666515,0.9937694704050112,0.025763554534279705,0.9866513035195007,41.666666666666664,0.9999999999760001,0.5732087227414527,0.0,0.9973513106927667,0
219,174.1027777777778,0.51111111111112,0.1027777777777601,0.8916666666666515,0.5732087227414527,0.05927043005257917,2.2698438988195146,108.33333333333333,2.5999999999376002,0.11526479750777029,1.0,0.7361089121273628,1
220,174.20555555555555,0.1027777777777601,1.3361111111111086,0.8916666666666515,0.11526479750777029,0.05750056177657239,2.2020643213059987,113.88888888888889,2.7333333332677334,1.4984423676012688,1.0,0.6713672515666709,1
221,175.54166666666666,1.3361111111111086,0.9027777777777999,0.8916666666666515,1.4984423676012688,0.024955522915514144,0.955706604142742,44.44444444444444,1.0666666666410667,1.0124610591900731,0.0,0.9962255976401097,0
222,176.44444444444446,0.9027777777777999,0.5138888888888857,0.8916666666666515,1.0124610591900731,0.025396160157539094,0.9725814227414215,44.44444444444444,1.0666666666410667,0.5763239875389471,0.0,0.9989461428734461,0
223,176.95833333333334,0.5138888888888857,0.09722222222220012,0.8916666666666515,0.5763239875389471,0.059730737586894095,2.287472018733922,102.77777777777777,2.466666666607467,0.10903426791274964,1.0,0.7468771966614617,1
224,177.05555555555554,0.09722222222220012,1.3166666666666913,0.8916666666666515,0.10903426791274964,0.058742556230880726,2.2496282335634024,105.55555555555556,2.533333333272534,1.4766355140187444,1.0,0.7057487624167151,1
225,178.37222222222223,1.3166666666666913,0.9861111111110858,0.8916666666666515,1.4766355140187444,0.0259845029937048,0.9951128333605145,44.44444444444444,1.0666666666410667,1.1059190031152553,0.0,0.9931618264536554,0
226,179.35833333333332,0.9861111111110858,0.5027777777777942,0.8916666666666515,1.1059190031152553,0.02515460282009259,0.9633306471332196,41.666666666666664,0.9999999999760001,0.5638629283489377,0.0,0.9993498857089944,0
227,179.86111111111111,0.5027777777777942,0.09999999999999432,0.8916666666666515,0.5638629283489377,0.06171840992950672,2.363592707173827,105.55555555555556,2.533333333272534,0.1121495327102759,1.0,0.7433452575932054,1
228,179.9611111111111,0.09999999999999432,1.2888888888888914,0.8916666666666515,0.1121495327102759,0.05952010600433224,2.2794055881014366,111.11111111111111,2.666666666602667,1.4454828660436412,1.0,0.6982482878086322,1
229,181.25,1.2888888888888914,0.9361111111111029,0.8916666666666515,1.4454828660436412,0.02455010551556849,0.9401805785862282,41.666666666666664,0.9999999999760001,1.0498442367601333,0.0,0.9946730593560746,0
230,182.1861111111111,0.9361111111111029,0.49444444444444,0.8916666666666515,1.0498442367601333,0.02464636093741776,0.9438668144009345,41.666666666666664,0.9999999999760001,0.5545171339563908,0.0,0.9983809700002206,0
231,182.68055555555554,0.49444444444444,0.09722222222222854,0.8916666666666515,0.5545171339563908,0.0598533032205719,2.2921658408567196,105.55555555555556,2.533333333272534,0.10903426791278152,1.0,0.7566602505066211,1
232,182.77777777777777,0.09722222222222854,1.2583333333333258,0.8916666666666515,0.10903426791278152,0.05893280851618627,2.256914210544743,111.11111111111111,2.666666666602667,1.4112149532710436,1.0,0.7024983039023531,1
233,184.0361111111111,1.2583333333333258,0.9277777777778056,0.8916666666666515,1.4112149532710436,0.025651142576601737,0.9823463306002331,44.44444444444444,1.0666666666410667,1.0404984423676502,0.0,0.9957962951918198,0
234,184.9638888888889,0.9277777777778056,0.5111111111110915,0.8916666666666515,1.0404984423676502,0.02609004381262898,0.9991546664246403,44.44444444444444,1.0666666666410667,0.5732087227414208,0.0,0.999163258845393,0
235,185.475,0.5111111111110915,0.09722222222222854,0.8916666666666515,0.5732087227414208,0.06000814486579214,2.298095717919777,105.55555555555556,2.533333333272534,0.10903426791278152,1.0,0.7536024449142912,1
236,185.57222222222222,0.09722222222222854,1.2694444444444457,0.8916666666666515,0.10903426791278152,0.05937549402803037,2.2738674704968598,108.33333333333333,2.5999999999376002,1.4236760124610848,1.0,0.6978435715784668,1
237,186.84166666666667,1.2694444444444457,0.51111111111112,0.8916666666666515,1.4236760124610848,0.026584843075387502,1.0181036952526157,41.666666666666664,0.9999999999760001,0.5732087227414527,0.0,0.9959357984743333,0
238,187.3527777777778,0.51111111111112,0.09999999999999432,0.8916666666666515,0.5732087227414527,0.059912178469324215,2.2944205507357163,105.55555555555556,2.533333333272534,0.1121495327102759,1.0,0.7376691492097877,1
239,187.45277777777778,0.09999999999999432,1.2583333333333258,0.8916666666666515,0.1121495327102759,0.058581716890332265,2.243468666381079,108.33333333333333,2.5999999999376002,1.4112149532710436,1.0,0.6976370281915178,1
240,188.7111111111111,1.2583333333333258,0.9166666666666572,0.8916666666666515,1.4112149532710436,0.02563892775031542,0.9818785467677801,44.44444444444444,1.0666666666410667,1.0280373831775769,0.0,0.9945769717573856,0
241,189.62777777777777,0.9166666666666572,0.49444444444446844,0.8916666666666515,1.0280373831775769,0.024556891246744796,0.9404404476389059,38.888888888888886,0.9333333333109334,0.5545171339564227,0.0,0.9983058186735978,0
242,190.12222222222223,0.49444444444446844,0.09722222222220012,0.8916666666666515,0.5545171339564227,0.059764420105152906,2.2887619378132813,105.55555555555556,2.533333333272534,0.10903426791274964,1.0,0.7585746937770399,1
243,190.21944444444443,0.09722222222220012,1.2138888888889028,0.8916666666666515,0.10903426791274964,0.05851696747176312,2.2409889969647963,108.33333333333333,2.5999999999376002,1.361370716510942,1.0,0.6967800165348432,1
244,191.43333333333334,1.2138888888889028,0.5305555555555657,0.8916666666666515,1.361370716510942,0.02588714505293835,0.9913843750440434,44.44444444444444,1.0666666666410667,0.595015576324009,0.0,0.996093233140581,0
245,191.9638888888889,0.5305555555555657,0.09999999999999432,0.8916666666666515,0.595015576324009,0.0595483030447049,2.2804854331438613,100.0,2.3999999999424,0.1121495327102759,1.0,0.7467837358548078,1
246,192.0638888888889,0.09999999999999432,1.2249999999999943,0.8916666666666515,0.1121495327102759,0.05665409028670608,2.1696475133784494,105.55555555555556,2.533333333272534,1.3738317757009515,1.0,0.6659431086856149,1
247,193.2888888888889,1.2249999999999943,0.5333333333333314,0.8916666666666515,1.3738317757009515,0.0243963061851902,0.9342906184257906,38.888888888888886,0.9333333333109334,0.5981308411215034,0.0,0.992718304493428,0
248,193.82222222222222,0.5333333333333314,0.09722222222222854,0.8916666666666515,0.5981308411215034,0.059252446204282605,2.269155182231883,100.0,2.3999999999424,0.10903426791278152,1.0,0.7567411578957135,1
249,193.91944444444445,0.09722222222222854,1.2222222222222285,0.8916666666666515,0.10903426791278152,0.057640350632144136,2.207417730766011,105.55555555555556,2.533333333272534,1.3707165109034571,1.0,0.6894377986288915,1
250,195.14166666666668,1.2222222222222285,0.5972222222222001,0.8916666666666515,1.3707165109034571,0.02573390376151134,0.9855157857646294,44.44444444444444,1.0666666666410667,0.6697819314641611,0.0,0.994901734885091,0
251,195.73888888888888,0.5972222222222001,1.2944444444444514,0.8916666666666515,0.6697819314641611,0.06275704345537862,2.403368628653026,108.33333333333333,2.5999999999376002,1.4517133956386619,1.0,0.7135735071716873,1
252,197.03333333333333,1.2944444444444514,0.4972222222222342,0.8916666666666515,1.4517133956386619,0.02478744911402708,0.9492699831747756,41.666666666666664,0.9999999999760001,0.557632398753917,0.0,0.9987242076790716,0
253,197.53055555555557,0.4972222222222342,0.09999999999999432,0.8916666666666515,0.557632398753917,0.0601581716877032,2.303841204599594,105.55555555555556,2.533333333272534,0.1121495327102759,1.0,0.7428974286774978,1
254,197.63055555555556,0.09999999999999432,1.25555555555556,0.8916666666666515,0.1121495327102759,0.058128913538077,2.22612792959935,108.33333333333333,2.5999999999376002,1.408099688473549,1.0,0.6890650235012337,1
255,198.88611111111112,1.25555555555556,0.5249999999999773,0.8916666666666515,1.408099688473549,0.025070724794176914,0.9601184209826614,41.666666666666664,0.9999999999760001,0.5887850467289565,0.0,0.9946718738576542,0
256,199.4111111111111,0.5249999999999773,0.09722222222222854,0.8916666666666515,0.5887850467289565,0.06062430411941019,2.3216923970949646,105.55555555555556,2.533333333272534,0.10903426791278152,1.0,0.7547853075966685,1
257,199.50833333333333,0.09722222222222854,1.2361111111111143,0.8916666666666515,0.10903426791278152,0.05928619273418516,2.2704475527265413,105.55555555555556,2.533333333272534,1.3862928348909929,1.0,0.6940740709128919,1
258,200.74444444444444,1.2361111111111143,0.9388888888888971,0.8916666666666515,1.3862928348909929,0.0257299057580278,0.9853626766374218,41.666666666666664,0.9999999999760001,1.0529595015576596,0.0,0.996624257099481,0
259,201.68333333333334,0.9388888888888971,0.8972222222222115,0.8916666666666515,1.0529595015576596,0.026411810259735245,1.0114771619111937,44.44444444444444,1.0666666666410667,1.0062305295950207,0.0,0.9992002127000239,0
260,202.58055555555555,0.8972222222222115,0.8944444444444457,0.8916666666666515,1.0062305295950207,0.025253690875872415,0.9671253626204904,41.666666666666664,0.9999999999760001,1.0031152647975263,0.0,0.9997533256467814,0
261,203.475,0.8944444444444457,0.9555555555555486,0.8916666666666515,1.0031152647975263,0.02518154548564486,0.9643624541399767,41.666666666666664,0.9999999999760001,1.0716510903426895,0.0,0.9997798270232392,0
262,204.43055555555554,0.9555555555555486,0.9138888888888914,0.8916666666666515,1.0716510903426895,0.024124499788244064,0.9238814128367474,41.666666666666664,0.9999999999760001,1.0249221183800825,0.0,0.998528931419979,0
263,205.34444444444443,0.9138888888888914,0.48611111111111427,0.8916666666666515,1.0249221183800825,0.02588550821851949,0.9913216901838908,44.44444444444444,1.0666666666410667,0.5451713395638758,0.0,0.9956521291112814,0
264,205.83055555555555,0.48611111111111427,0.09166666666666856,0.8916666666666515,0.5451713395638758,0.05882724400571775,2.252871470179838,97.22222222222223,2.333333333277334,0.10280373831776088,1.0,0.7742927681758087,1
265,205.92222222222222,0.09166666666666856,1.2888888888888914,0.8916666666666515,0.10280373831776088,0.0585129125823039,2.2408337093097,100.0,2.3999999999424,1.4454828660436412,1.0,0.7216888959901513,1
266,207.2111111111111,1.2888888888888914,0.5666666666666629,0.8916666666666515,1.4454828660436412,0.02517813460263383,0.9642318296112646,41.666666666666664,0.9999999999760001,0.6355140186915953,0.0,0.9927648463165282,0
267,207.77777777777777,0.5666666666666629,1.3361111111111086,0.8916666666666515,0.6355140186915953,0.05237047399351965,2.005600444724694,108.33333333333333,2.5999999999376002,1.4984423676012688,1.0,0.8588195290766003,1
268,209.11388888888888,1.3361111111111086,0.9250000000000114,0.8916666666666515,1.4984423676012688,0.024966384715056605,0.9561225719263364,41.666666666666664,0.9999999999760001,1.0373831775701239,0.0,0.9941693312977481,0
269,210.0388888888889,0.9250000000000114,0.88611111111112,0.8916666666666515,1.0373831775701239,0.025057159897073973,0.9595989343027114,44.44444444444444,1.0666666666410667,0.9937694704050112,0.0,0.9994940784358124,0
270,210.925,0.88611111111112,0.5194444444444457,0.8916666666666515,0.9937694704050112,0.0246204794341222,0.9428756460848688,41.666666666666664,0.9999999999760001,0.5825545171339677,0.0,0.9995379727121967,0
271,211.44444444444446,0.5194444444444457,0.1027777777777601,0.8916666666666515,0.5825545171339677,0.06146413849904425,2.3538550276164605,111.11111111111111,2.666666666602667,0.11526479750777029,1.0,0.7283245642549009,1
272,211.54722222222222,0.1027777777777601,1.26666666666668,0.8916666666666515,0.11526479750777029,0.06012836298513011,2.3026996387022782,116.66666666666667,2.7999999999328007,1.4205607476635904,1.0,0.6911525555185758,1
273,212.8138888888889,1.26666666666668,0.5083333333333258,0.8916666666666515,1.4205607476635904,0.02564819067809015,0.9822332835239674,41.666666666666664,0.9999999999760001,0.5700934579439264,0.0,0.9957793332671727,0
274,213.32222222222222,0.5083333333333258,0.09722222222222854,0.8916666666666515,0.5700934579439264,0.058832716202055886,2.2530810355813418,102.77777777777777,2.466666666607467,0.10903426791278152,1.0,0.7692429734300389,1
275,213.41944444444445,0.09722222222222854,1.2694444444444457,0.8916666666666515,0.10903426791278152,0.05699101368319879,2.182550465410687,102.77777777777777,2.466666666607467,1.4236760124610848,1.0,0.6764608355687289,1
276,214.6888888888889,1.2694444444444457,0.5138888888888857,0.8916666666666515,1.4236760124610848,0.026293369118010314,1.006941292968197,41.666666666666664,0.9999999999760001,0.5763239875389471,0.0,0.9968971243427044,0
277,215.20277777777778,0.5138888888888857,0.09444444444443434,0.8916666666666515,0.5763239875389471,0.058553353554525206,2.2423824528227376,102.77777777777777,2.466666666607467,0.10591900311525526,1.0,0.7677612808897564,1
278,215.29722222222222,0.09444444444443434,1.25,0.8916666666666515,0.10591900311525526,0.05784177714282602,2.215131640314604,102.77777777777777,2.466666666607467,1.4018691588785286,1.0,0.7033220207943828,1
279,216.54722222222222,1.25,0.9333333333333371,0.8916666666666515,1.4018691588785286,0.025847551222745874,0.9898680740181598,44.44444444444444,1.0666666666410667,1.046728971962639,0.0,0.9947153191422686,0
280,217.48055555555555,0.9333333333333371,0.8722222222222342,0.8916666666666515,1.046728971962639,0.024974806110727374,0.9564450810352779,41.666666666666664,0.9999999999760001,0.9781931464174756,0.0,0.9998855257431893,0
281,218.3527777777778,0.8722222222222342,0.9305555555555429,0.8916666666666515,0.9781931464174756,0.024775538078525783,0.9488138334347239,41.666666666666664,0.9999999999760001,1.0436137071651126,0.0,0.9996714339718114,0
282,219.28333333333333,0.9305555555555429,0.9277777777777771,0.8916666666666515,1.0436137071651126,0.0261678085034744,1.0021327738705028,44.44444444444444,1.0666666666410667,1.0404984423676182,0.0,0.9983218349734101,0
283,220.2111111111111,0.9277777777777771,0.875,0.8916666666666515,1.0404984423676182,0.0252631404380916,0.9674872468033908,41.666666666666664,0.9999999999760001,0.9813084112149699,0.0,0.998098048516451,0
284,221.0861111111111,0.875,0.9250000000000114,0.8916666666666515,0.9813084112149699,0.023315492727538106,0.8928993575485318,38.888888888888886,0.9333333333109334,1.0373831775701239,0.0,0.9975137964924209,0
285,222.01111111111112,0.9250000000000114,0.9416666666666629,0.8916666666666515,1.0373831775701239,0.02969965732083165,1.1373898570824783,44.44444444444444,1.0666666666410667,1.056074766355154,0.0,0.9959248701023046,0
286,222.95277777777778,0.9416666666666629,0.9416666666666629,0.8916666666666515,1.056074766355154,0.02939587731639836,1.1257561775388243,44.44444444444444,1.0666666666410667,1.056074766355154,0.0,0.9958378428402515,0
287,223.89444444444445,0.9416666666666629,0.9416666666666629,0.8916666666666515,1.056074766355154,0.02507487222391949,0.9602772525971548,44.44444444444444,1.0666666666410667,1.056074766355154,0.0,0.9993205882866811,0
288,224.8361111111111,0.9416666666666629,0.9583333333333428,0.8916666666666515,1.056074766355154,0.02508778635005392,0.9607718170939675,41.666666666666664,0.9999999999760001,1.0747663551402158,0.0,0.9995949847479977,0
289,225.79444444444445,0.9583333333333428,0.9694444444444343,0.8916666666666515,1.0747663551402158,0.023462341936714686,0.8985231531106735,38.888888888888886,0.9333333333109334,1.0872274143302252,0.0,0.9976802116676187,0
290,226.76388888888889,0.9694444444444343,0.48888888888888005,0.8916666666666515,1.0872274143302252,0.025214078031591928,0.9656083334235505,41.666666666666664,0.9999999999760001,0.5482866043613701,0.0,0.9997509198937762,0
291,227.25277777777777,0.48888888888888005,1.3555555555555543,0.8916666666666515,0.5482866043613701,0.06093072811493459,2.3334273319701793,108.33333333333333,2.5999999999376002,1.520249221183825,1.0,0.7370378141384081,1
292,228.60833333333332,1.3555555555555543,0.950000000000017,0.8916666666666515,1.520249221183825,0.026758821949790245,1.024766459235199,41.666666666666664,0.9999999999760001,1.0654205607477008,0.0,0.9967763905000572,0
293,229.55833333333334,0.950000000000017,0.8888888888888857,0.8916666666666515,1.0654205607477008,0.030039493910596744,1.150404373919789,44.44444444444444,1.0666666666410667,0.9968847352025056,0.0,0.9964893492752382,0
294,230.44722222222222,0.8888888888888857,0.5,0.8916666666666515,0.9968847352025056,0.023886836187951954,0.9147797533310552,41.666666666666664,0.9999999999760001,0.5607476635514114,0.0,0.9984348688426956,0
295,230.94722222222222,0.5,0.10555555555555429,0.8916666666666515,0.5607476635514114,0.06067258501665671,2.323541381486462,111.11111111111111,2.666666666602667,0.11838006230529655,1.0,0.7186968936380025,1
296,231.05277777777778,0.10555555555555429,1.25555555555556,0.8916666666666515,0.11838006230529655,0.05839565205757709,2.2363430537435534,113.88888888888889,2.7333333332677334,1.408099688473549,1.0,0.6736829282490465,1
297,232.30833333333334,1.25555555555556,0.5416666666666572,0.8916666666666515,1.408099688473549,0.025252007767257553,0.9670609056253732,41.666666666666664,0.9999999999760001,0.6074766355140184,0.0,0.9958197944368092,0
298,232.85,0.5416666666666572,1.3333333333333428,0.8916666666666515,0.6074766355140184,0.05226506585400653,2.001563692803921,100.0,2.3999999999424,1.4953271028037745,1.0,0.8748796953118022,1
299,234.18333333333334,1.3333333333333428,0.9138888888888914,0.8916666666666515,1.4953271028037745,0.026752977595733966,1.0245426415341057,44.44444444444444,1.0666666666410667,1.0249221183800825,0.0,0.9965141649416374,0
300,235.09722222222223,0.9138888888888914,0.8472222222222285,0.8916666666666515,1.0249221183800825,0.023937110521257056,0.9167050791405452,38.888888888888886,0.9333333333109334,0.9501557632398986,0.0,0.9991289772230398,0
301,235.94444444444446,0.8472222222222285,0.5138888888888857,0.8916666666666515,0.9501557632398986,0.025762219708739008,0.9866001845111376,41.666666666666664,0.9999999999760001,0.5763239875389471,0.0,0.9973245524549759,0
302,236.45833333333334,0.5138888888888857,0.09999999999999432,0.8916666666666515,0.5763239875389471,0.06023708405376742,2.3068632638708593,102.77777777777777,2.466666666607467,0.1121495327102759,1.0,0.7334756419055173,1
303,236.55833333333334,0.09999999999999432,1.22777777777776,0.8916666666666515,0.1121495327102759,0.05871633888206159,2.248624203573953,108.33333333333333,2.5999999999376002,1.3769470404984459,1.0,0.6925588055660536,1
304,237.7861111111111,1.22777777777776,0.51111111111112,0.8916666666666515,1.3769470404984459,0.024951568836271636,0.9555551771556914,38.888888888888886,0.9333333333109334,0.5732087227414527,0.0,0.9936483100087039,0
305,238.29722222222222,0.51111111111112,1.3472222222222285,0.8916666666666515,0.5732087227414527,0.06014187468718723,2.303217088203654,105.55555555555556,2.533333333272534,1.51090342679131,1.0,0.7510219139001192,1
306,239.64444444444445,1.3472222222222285,0.8777777777777658,0.8916666666666515,1.51090342679131,0.029409668815090516,1.126284342243116,44.44444444444444,1.0666666666410667,0.9844236760124644,0.0,0.9880044637026744,0
307,240.5222222222222,0.8777777777777658,0.51111111111112,0.8916666666666515,0.9844236760124644,0.025492646088621042,0.9762764862291335,44.44444444444444,1.0666666666410667,0.5732087227414527,0.0,0.9987043169967562,0
308,241.03333333333333,0.51111111111112,0.10555555555555429,0.8916666666666515,0.5732087227414527,0.06198535166883372,2.373815613905129,113.88888888888889,2.7333333332677334,0.11838006230529655,1.0,0.725087665022278,1
309,241.13888888888889,0.10555555555555429,1.2333333333333485,0.8916666666666515,0.11838006230529655,0.0595556221787646,2.280765729604935,113.88888888888889,2.7333333332677334,1.3831775700934985,1.0,0.6774963798931576,1
310,242.37222222222223,1.2333333333333485,0.8861111111110915,0.8916666666666515,1.3831775700934985,0.02554919199109118,0.9784419905389762,44.44444444444444,1.0666666666410667,0.9937694704049793,0.0,0.9953325659463245,0
311,243.25833333333333,0.8861111111110915,0.5138888888888857,0.8916666666666515,0.9937694704049793,0.025459659354302954,0.9750132131675501,41.666666666666664,0.9999999999760001,0.5763239875389471,0.0,0.9986849112250821,0
312,243.7722222222222,0.5138888888888857,0.10000000000002274,0.8916666666666515,0.5763239875389471,0.0604301464740247,2.3142568588949475,105.55555555555556,2.533333333272534,0.11214953271030778,1.0,0.7475432408389322,1
313,243.87222222222223,0.10000000000002274,1.23333333333332,0.8916666666666515,0.11214953271030778,0.05866966730403193,2.246836850309519,111.11111111111111,2.666666666602667,1.3831775700934665,1.0,0.6823750049590505,1
314,245.10555555555555,1.23333333333332,0.9333333333333371,0.8916666666666515,1.3831775700934665,0.030092461185257647,1.1524328296795918,44.44444444444444,1.0666666666410667,1.046728971962639,0.0,0.988592464100005,0
315,246.0388888888889,0.9333333333333371,0.50555555555556,0.8916666666666515,1.046728971962639,0.026004228852976628,0.9958682626914205,44.44444444444444,1.0666666666410667,0.566978193146432,0.0,0.998343365058528,0
316,246.54444444444445,0.50555555555556,1.3472222222222285,0.8916666666666515,0.566978193146432,0.059867696493561044,2.292717051348182,102.77777777777777,2.466666666607467,1.51090342679131,1.0,0.7500136081022404,1
317,247.89166666666668,1.3472222222222285,0.7305555555555543,0.8916666666666515,1.51090342679131,0.024885385603948068,0.9530205978391496,41.666666666666664,0.9999999999760001,0.8193146417445608,0.0,0.9941367378776722,0
318,248.62222222222223,0.7305555555555543,1.2361111111110858,0.8916666666666515,0.8193146417445608,0.05483115548004766,2.09983567895834,116.66666666666667,2.7999999999328007,1.386292834890961,0.0,0.8527561815990816,0
319,249.85833333333332,1.2361111111110858,0.88055555555556,0.8916666666666515,1.386292834890961,0.02459656258985044,0.9419597171300577,38.888888888888886,0.9333333333109334,0.9875389408099906,0.0,0.9940361014460974,0
320,250.73888888888888,0.88055555555556,0.5027777777777942,0.8916666666666515,0.9875389408099906,0.025332015409167196,0.9701249100148543,41.666666666666664,0.9999999999760001,0.5638629283489377,0.0,0.9994765874831452,0
321,251.24166666666667,0.5027777777777942,0.09722222222222854,0.8916666666666515,0.5638629283489377,0.06078489650218789,2.327842506684544,105.55555555555556,2.533333333272534,0.10903426791278152,1.0,0.7487577873018334,1
322,251.3388888888889,0.09722222222222854,1.2638888888888857,0.8916666666666515,0.10903426791278152,0.05908223388959918,2.2626366639143107,105.55555555555556,2.533333333272534,1.417445482866064,1.0,0.7037269763706572,1
323,252.6027777777778,1.2638888888888857,0.9666666666666686,0.8916666666666515,1.417445482866064,0.02415218497030313,0.9249416555501667,38.888888888888886,0.9333333333109334,1.0841121495327308,0.0,0.9927346659745279,0
324,253.56944444444446,0.9666666666666686,0.8916666666666515,0.8916666666666515,1.0841121495327308,0.025413316953995683,0.9732384662237402,44.44444444444444,1.0666666666410667,1.0,0.0,0.9992058047503481,0
325,254.4611111111111,0.8916666666666515,0.86944444444444,0.8916666666666515,1.0,0.028820130525473768,1.103707150064487,44.44444444444444,1.0666666666410667,0.9750778816199493,0.0,0.9953977562127447,0
326,255.33055555555555,0.86944444444444,0.950000000000017,0.8916666666666515,0.9750778816199493,0.025960945066781087,0.9942106496468281,44.44444444444444,1.0666666666410667,1.0654205607477008,0.0,0.9989282210942692,0
327,256.28055555555557,0.950000000000017,0.49166666666667425,0.8916666666666515,1.0654205607477008,0.024809033329106223,0.9500965808367926,41.666666666666664,0.9999999999760001,0.5514018691588963,0.0,0.9989111206956516,0
328,256.77222222222224,0.49166666666667425,0.09722222222222854,0.8916666666666515,0.5514018691588963,0.06013932569888182,2.3031194711364575,105.55555555555556,2.533333333272534,0.10903426791278152,1.0,0.7446415889116085,1
329,256.86944444444447,0.09722222222222854,1.2416666666666174,0.8916666666666515,0.10903426791278152,0.05928543991189975,2.2704187223456933,108.33333333333333,2.5999999999376002,1.3925233644859498,1.0,0.7053644211256761,1
330,258.1111111111111,1.2416666666666174,0.9527777777777828,0.8916666666666515,1.3925233644859498,0.027570219617207594,1.0558400661462648,44.44444444444444,1.0666666666410667,1.068535825545195,0.0,0.9947419783645488,0
331,259.06388888888887,0.9527777777777828,0.9166666666666856,0.8916666666666515,1.068535825545195,0.03099291287710485,1.1869168848333664,44.44444444444444,1.0666666666410667,1.0280373831776088,0.0,0.9967383686253672,0
332,259.98055555555555,0.9166666666666856,0.9055555555555657,0.8916666666666515,1.0280373831776088,0.025739091488753117,0.9857144570247847,41.666666666666664,0.9999999999760001,1.0155763239875675,0.0,0.9978639094036368,0
333,260.8861111111111,0.9055555555555657,0.8944444444444457,0.8916666666666515,1.0155763239875675,0.030562437238342337,1.1704312190238098,44.44444444444444,1.0666666666410667,1.0031152647975263,0.0,0.996665005429251,0
334,261.78055555555557,0.8944444444444457,0.49166666666667425,0.8916666666666515,1.0031152647975263,0.024888229263309587,0.9531294997459915,41.666666666666664,0.9999999999760001,0.5514018691588963,0.0,0.9994485475023711,0
335,262.27222222222224,0.49166666666667425,0.0999999999999659,0.8916666666666515,0.5514018691588963,0.05931303631784954,2.271475565254019,102.77777777777777,2.466666666607467,0.11214953271024403,1.0,0.7395003604834312,1
336,262.3722222222222,0.0999999999999659,1.2638888888889142,0.8916666666666515,0.11214953271024403,0.05748900980055066,2.201621922250197,105.55555555555556,2.533333333272534,1.417445482866096,1.0,0.6789721929388802,1
337,263.6361111111111,1.2638888888889142,0.9361111111110745,0.8916666666666515,1.417445482866096,0.02408901358314005,0.9225224190505348,38.888888888888886,0.9333333333109334,1.0498442367601013,0.0,0.9914630492040827,0
338,264.5722222222222,0.9361111111110745,0.8916666666667084,0.8916666666666515,1.0498442367601013,0.02455250914558583,0.9402726289547685,41.666666666666664,0.9999999999760001,1.0000000000000637,0.0,0.9995496781683424,0
339,265.4638888888889,0.8916666666667084,0.875,0.8916666666666515,1.0000000000000637,0.02524588848673794,0.9668265592313907,41.666666666666664,0.9999999999760001,0.9813084112149699,0.0,0.9971507778600588,0
340,266.3388888888889,0.875,0.8999999999999773,0.8916666666666515,0.9813084112149699,0.025754921027731983,0.9863206713282819,41.666666666666664,0.9999999999760001,1.009345794392515,0.0,0.9996277952418013,0
341,267.2388888888889,0.8999999999999773,0.5055555555555884,0.8916666666666515,1.009345794392515,0.023915999593661474,0.9158966066837275,41.666666666666664,0.9999999999760001,0.5669781931464639,0.0,0.9979777031363524,0
342,267.74444444444447,0.5055555555555884,0.0999999999999659,0.8916666666666515,0.5669781931464639,0.06055735019062702,2.3191283028811105,105.55555555555556,2.533333333272534,0.11214953271024403,1.0,0.7246098562466918,1
343,267.84444444444443,0.0999999999999659,1.2638888888889142,0.8916666666666515,0.11214953271024403,0.05950732255287413,2.2789160279738603,108.33333333333333,2.5999999999376002,1.417445482866096,1.0,0.7022844292266145,1
344,269.10833333333335,1.2638888888889142,0.9333333333333371,0.8916666666666515,1.417445482866096,0.024883858500418143,0.9529621152766443,41.666666666666664,0.9999999999760001,1.046728971962639,0.0,0.9911265631881527,0
345,270.0416666666667,0.9333333333333371,0.9361111111110745,0.8916666666666515,1.046728971962639,0.026100756061498094,0.999564906956329,41.666666666666664,0.9999999999760001,1.0498442367601013,0.0,0.9994759645852154,0
346,270.97777777777776,0.9361111111110745,0.8916666666667084,0.8916666666666515,1.0498442367601013,0.0248156136505539,0.9503485834370273,41.666666666666664,0.9999999999760001,1.0000000000000637,0.0,0.9995162317662867,0
347,271.86944444444447,0.8916666666667084,0.4944444444444116,0.8916666666666515,1.0000000000000637,0.024706748466377715,0.9461794391626064,41.666666666666664,0.9999999999760001,0.5545171339563589,0.0,0.9997367904452807,0
348,272.3638888888889,0.4944444444444116,0.1027777777777601,0.8916666666666515,0.5545171339563589,0.05936868407405661,2.273606673798323,105.55555555555556,2.533333333272534,0.11526479750777029,1.0,0.722465492230818,1
349,272.46666666666664,0.1027777777777601,1.2361111111111427,0.8916666666666515,0.11526479750777029,0.05783244379122833,2.214774206579759,111.11111111111111,2.666666666602667,1.3862928348910246,1.0,0.6803019681592152,1
350,273.7027777777778,1.2361111111111427,0.5,0.8916666666666515,1.3862928348910246,0.025343271576069876,0.9705559806473009,41.666666666666664,0.9999999999760001,0.5607476635514114,0.0,0.9938469493335413,0
351,274.2027777777778,0.5,0.09722222222222854,0.8916666666666515,0.5607476635514114,0.059080983278624793,2.262588770020383,102.77777777777777,2.466666666607467,0.10903426791278152,1.0,0.7579654481098311,1
352,274.3,0.09722222222222854,1.26111111111112,0.8916666666666515,0.10903426791278152,0.05817428944153995,2.22786566319665,105.55555555555556,2.533333333272534,1.4143302180685697,1.0,0.6893556399723482,1
353,275.56111111111113,1.26111111111112,0.9166666666666288,0.8916666666666515,1.4143302180685697,0.025537662103615966,0.978000437394913,44.44444444444444,1.0666666666410667,1.0280373831775451,0.0,0.9950204497698425,0
354,276.47777777777776,0.9166666666666288,0.875,0.8916666666666515,1.0280373831775451,0.024900903474088718,0.9536148763491955,41.666666666666664,0.9999999999760001,0.9813084112149699,0.0,0.9984482791700227,0
355,277.35277777777776,0.875,0.49722222222226264,0.8916666666666515,0.9813084112149699,0.024439743743786626,0.935954120399241,38.888888888888886,0.9333333333109334,0.5576323987539489,0.0,0.999029394449487,0
356,277.85,0.49722222222226264,0.0999999999999659,0.8916666666666515,0.5576323987539489,0.06088488325495841,2.3316716390282375,108.33333333333333,2.5999999999376002,0.11214953271024403,1.0,0.7530216197276514,1
357,277.95,0.0999999999999659,1.25,0.8916666666666515,0.11214953271024403,0.05868025494081788,2.2472423186474435,108.33333333333333,2.5999999999376002,1.4018691588785286,1.0,0.6895697605924677,1
358,279.2,1.25,0.8916666666666515,0.8916666666666515,1.4018691588785286,0.025291582671496234,0.9685764818554232,41.666666666666664,0.9999999999760001,1.0,0.0,0.9963744737920133,0
359,280.09166666666664,0.8916666666666515,0.88611111111112,0.8916666666666515,1.0,0.025398675205552047,0.9726777400177155,41.666666666666664,0.9999999999760001,0.9937694704050112,0.0,0.9997635653733896,0
360,280.97777777777776,0.88611111111112,0.49722222222226264,0.8916666666666515,0.9937694704050112,0.02524779792591671,0.9668996838715571,41.666666666666664,0.9999999999760001,0.5576323987539489,0.0,0.9992809527866053,0
361,281.475,0.49722222222226264,0.0972222222221717,0.8916666666666515,0.5576323987539489,0.058555578697363504,2.2424676677754722,102.77777777777777,2.466666666607467,0.10903426791271777,1.0,0.7452889353530507,1
362,281.5722222222222,0.0972222222221717,1.2416666666666742,0.8916666666666515,0.10903426791271777,0.05886587975379522,2.2543510801130235,105.55555555555556,2.533333333272534,1.3925233644860135,1.0,0.701289679896073,1
363,282.81388888888887,1.2416666666666742,0.5500000000000114,0.8916666666666515,1.3925233644860135,0.027558325371905248,1.0553845594103317,44.44444444444444,1.0666666666410667,0.6168224299065653,0.0,0.9963812300333231,0
364,283.3638888888889,0.5500000000000114,1.2805555555555657,0.8916666666666515,0.6168224299065653,0.05208059527884239,1.9944991344874619,108.33333333333333,2.5999999999376002,1.4361370716511261,1.0,0.8661576202754904,1
365,284.64444444444445,1.2805555555555657,0.544444444444423,0.8916666666666515,1.4361370716511261,0.02536301045786245,0.9713119086938268,41.666666666666664,0.9999999999760001,0.6105919003115128,0.0,0.9922179910040504,0
366,285.18888888888887,0.544444444444423,0.10555555555555429,0.8916666666666515,0.6105919003115128,0.061633959941976235,2.360358576954401,113.88888888888889,2.7333333332677334,0.11838006230529655,1.0,0.705588355914534,1
367,285.2944444444444,0.10555555555555429,1.2361111111111427,0.8916666666666515,0.11838006230529655,0.060377689580258825,2.3122479488843424,116.66666666666667,2.7999999999328007,1.3862928348910246,1.0,0.6848352464483425,1
368,286.53055555555557,1.2361111111111427,0.8833333333333258,0.8916666666666515,1.3862928348910246,0.026537061160364576,1.0162738200822738,41.666666666666664,0.9999999999760001,0.990654205607485,0.0,0.9948630986011548,0
369,287.4138888888889,0.8833333333333258,0.4972222222222058,0.8916666666666515,0.990654205607485,0.024719942944207207,0.9466847401191342,41.666666666666664,0.9999999999760001,0.5576323987538852,0.0,0.996952320935816,0
370,287.9111111111111,0.4972222222222058,0.10000000000002274,0.8916666666666515,0.5576323987538852,0.06025537487140197,2.307563736278017,108.33333333333333,2.5999999999376002,0.11214953271030778,1.0,0.7473008602432025,1
371,288.0111111111111,0.10000000000002274,1.1916666666666629,0.8916666666666515,0.11214953271030778,0.059317189635415664,2.271634622350938,111.11111111111111,2.666666666602667,1.3364485981308596,1.0,0.6881911739098836,1
372,289.2027777777778,1.1916666666666629,0.8722222222222058,0.8916666666666515,1.3364485981308596,0.02581675624952423,0.9886887375088845,41.666666666666664,0.9999999999760001,0.9781931464174437,0.0,0.9904630653068052,0
373,290.075,0.8722222222222058,0.5083333333333258,0.8916666666666515,0.9781931464174437,0.02516309304201704,0.963655792039672,44.44444444444444,1.0666666666410667,0.5700934579439264,0.0,0.9986051228943147,0
374,290.5833333333333,0.5083333333333258,0.10000000000002274,0.8916666666666515,0.5700934579439264,0.05952534114013439,2.2796060749386244,108.33333333333333,2.5999999999376002,0.11214953271030778,1.0,0.7437922869464716,1
375,290.68333333333334,0.10000000000002274,1.1722222222222172,0.8916666666666515,0.11214953271030778,0.05874319814511256,2.2496528165654386,108.33333333333333,2.5999999999376002,1.3146417445483032,1.0,0.6866114713762532,1
376,291.85555555555555,1.1722222222222172,0.8777777777777942,0.8916666666666515,1.3146417445483032,0.0299779321754305,1.1480467812914936,44.44444444444444,1.0666666666410667,0.9844236760124963,0.0,0.9941008470506179,0
377,292.73333333333335,0.8777777777777942,0.544444444444423,0.8916666666666515,0.9844236760124963,0.026406172501492093,1.0112612560853058,44.44444444444444,1.0666666666410667,0.6105919003115128,0.0,0.9962794189882529,0
378,293.27777777777777,0.544444444444423,1.2583333333333258,0.8916666666666515,0.6105919003115128,0.060422843011197845,2.3139771625856227,108.33333333333333,2.5999999999376002,1.4112149532710436,1.0,0.7070168533279124,1
379,294.5361111111111,1.2583333333333258,0.49166666666667425,0.8916666666666515,1.4112149532710436,0.029841829739362336,1.142834548415003,44.44444444444444,1.0666666666410667,0.5514018691588963,0.0,0.9962898560114175,0
380,295.02777777777777,0.49166666666667425,0.09722222222222854,0.8916666666666515,0.5514018691588963,0.060026099950198586,2.2987833329540632,102.77777777777777,2.466666666607467,0.10903426791278152,1.0,0.7592978929922056,1
381,295.125,0.09722222222222854,1.2638888888889142,0.8916666666666515,0.10903426791278152,0.058356769897036656,2.2348540071009473,108.33333333333333,2.5999999999376002,1.417445482866096,1.0,0.6939467346004987,1
382,296.3888888888889,1.2638888888889142,0.5055555555555316,0.8916666666666515,1.417445482866096,0.026687233555715343,1.022024881700279,44.44444444444444,1.0666666666410667,0.5669781931464002,0.0,0.9979924081859748,0
383,296.89444444444445,0.5055555555555316,1.3388888888889028,0.8916666666666515,0.5669781931464002,0.058693136985615034,2.247735654544639,102.77777777777777,2.466666666607467,1.501557632398795,1.0,0.7598117013323475,1
384,298.23333333333335,1.3388888888889028,0.544444444444423,0.8916666666666515,1.501557632398795,0.027646901504497973,1.058776706117691,47.22222222222222,1.1333333333061335,0.6105919003115128,0.0,0.9978544349884615,0
385,298.77777777777777,0.544444444444423,0.10000000000002274,0.8916666666666515,0.6105919003115128,0.060956190513844904,2.3344024500984704,108.33333333333333,2.5999999999376002,0.11214953271030778,1.0,0.7285649501275688,1
386,298.8777777777778,0.10000000000002274,1.1999999999999886,0.8916666666666515,0.11214953271030778,0.060538692215676204,2.3184137696717366,108.33333333333333,2.5999999999376002,1.3457943925233746,1.0,0.6975984063194166,1
387,300.0777777777778,1.1999999999999886,0.9305555555555429,0.8916666666666515,1.3457943925233746,0.027054988589950642,1.0361085743608291,44.44444444444444,1.0666666666410667,1.0436137071651126,0.0,0.9970962199555258,0
388,301.0083333333333,0.9305555555555429,0.4972222222222058,0.8916666666666515,1.0436137071651126,0.024542929267246986,0.9399057541340599,38.888888888888886,0.9333333333109334,0.5576323987538852,0.0,0.9990521792046088,0
389,301.50555555555553,0.4972222222222058,1.3166666666666629,0.8916666666666515,0.5576323987538852,0.05965526630501109,2.2845817405873614,105.55555555555556,2.533333333272534,1.4766355140187124,1.0,0.7349502865160337,1
390,302.8222222222222,1.3166666666666629,0.9027777777778283,0.8916666666666515,1.4766355140187124,0.029672788029707225,1.1363608600519137,44.44444444444444,1.0666666666410667,1.012461059190105,0.0,0.9929577026456002,0
391,303.725,0.9027777777778283,0.4944444444444116,0.8916666666666515,1.012461059190105,0.026181106923572218,1.0026420554413669,44.44444444444444,1.0666666666410667,0.5545171339563589,0.0,0.9986060525333227,0
392,304.21944444444443,0.4944444444444116,0.09722222222222854,0.8916666666666515,0.5545171339563589,0.05894534250134027,2.257394217011787,102.77777777777777,2.466666666607467,0.10903426791278152,1.0,0.7451093804920998,1
393,304.31666666666666,0.09722222222222854,1.2305555555555543,0.8916666666666515,0.10903426791278152,0.05831907382457523,2.2334103833578745,105.55555555555556,2.533333333272534,1.3800623052959722,1.0,0.7016103725784465,1
394,305.5472222222222,1.2305555555555543,0.8916666666666515,0.8916666666666515,1.3800623052959722,0.026312580941981474,1.0076770365993373,44.44444444444444,1.0666666666410667,1.0,0.0,0.9923316018861562,0
395,306.43888888888887,0.8916666666666515,0.49166666666667425,0.8916666666666515,1.0,0.02514064247176471,0.962796016096304,41.666666666666664,0.9999999999760001,0.5514018691588963,0.0,0.999559450768132,0
396,306.93055555555554,0.49166666666667425,0.10000000000002274,0.8916666666666515,0.5514018691588963,0.06053268603661976,2.3181837546562494,105.55555555555556,2.533333333272534,0.11214953271030778,1.0,0.7544004254660048,1
397,307.03055555555557,0.10000000000002274,1.2333333333333485,0.8916666666666515,0.11214953271030778,0.058245854837305995,2.230606359979212,108.33333333333333,2.5999999999376002,1.3831775700934985,1.0,0.679714052053526,1
398,308.2638888888889,1.2333333333333485,0.9055555555555088,0.8916666666666515,1.3831775700934985,0.024080989617724122,0.9222151300882728,41.666666666666664,0.9999999999760001,1.0155763239875037,0.0,0.9919959853098131,0
399,309.1694444444444,0.9055555555555088,0.5222222222222399,0.8916666666666515,1.0155763239875037,0.025595144344105678,0.9802018000769503,44.44444444444444,1.0666666666410667,0.585669781931494,0.0,0.9990270926465366,0
400,309.69166666666666,0.5222222222222399,1.294444444444423,0.8916666666666515,0.585669781931494,0.05344421454015676,2.0467208385962636,102.77777777777777,2.466666666607467,1.4517133956386299,1.0,0.8683069046536762,1
401,310.9861111111111,1.294444444444423,0.9027777777778283,0.8916666666666515,1.4517133956386299,0.025538583448382293,0.9780357215795343,44.44444444444444,1.0666666666410667,1.012461059190105,0.0,0.9920374800832364,0
402,311.8888888888889,0.9027777777778283,0.5,0.8916666666666515,1.012461059190105,0.03033538437790706,1.1617359126204085,44.44444444444444,1.0666666666410667,0.5607476635514114,0.0,0.9961532125803325,0
403,312.3888888888889,0.5,0.0999999999999659,0.8916666666666515,0.5607476635514114,0.06062357838764471,2.3216646041834137,108.33333333333333,2.5999999999376002,0.11214953271024403,1.0,0.7421671996193443,1
404,312.4888888888889,0.0999999999999659,1.22777777777776,0.8916666666666515,0.11214953271024403,0.059187274850122866,2.2666593542028632,111.11111111111111,2.666666666602667,1.3769470404984459,1.0,0.6953491335292987,1
405,313.71666666666664,1.22777777777776,0.49444444444446844,0.8916666666666515,1.3769470404984459,0.025168948863101188,0.9638800488866129,41.666666666666664,0.9999999999760001,0.5545171339564227,0.0,0.9953285589596572,0
406,314.2111111111111,0.49444444444446844,0.10000000000002274,0.8916666666666515,0.5545171339564227,0.06015519039341997,2.3037270317711975,105.55555555555556,2.533333333272534,0.11214953271030778,1.0,0.7396056010561336,1
407,314.31111111111113,0.10000000000002274,1.2444444444444116,0.8916666666666515,0.11214953271030778,0.05808648367468618,2.2245030187211943,108.33333333333333,2.5999999999376002,1.395638629283476,1.0,0.6903294504089625,1
408,315.55555555555554,1.2444444444444116,0.8583333333333485,0.8916666666666515,1.395638629283476,0.026825344595677234,1.0273140368681937,44.44444444444444,1.0666666666410667,0.96261682242994,0.0,0.998481516585555,0
409,316.4138888888889,0.8583333333333485,0.8361111111111086,0.8916666666666515,0.96261682242994,0.024963066501143657,0.9559954962901617,44.44444444444444,1.0666666666410667,0.9376947040498573,0.0,0.9995287202074619,0
410,317.25,0.8361111111111086,0.875,0.8916666666666515,0.9376947040498573,0.023810893116640194,0.9118714073493962,41.666666666666664,0.9999999999760001,0.9813084112149699,0.0,0.9967886057429594,0
411,318.125,0.875,0.8472222222222285,0.8916666666666515,0.9813084112149699,0.028963254013276995,1.1091882639231132,44.44444444444444,1.0666666666410667,0.9501557632398986,0.0,0.9956755686998784,0
412,318.97222222222223,0.8472222222222285,0.88611111111112,0.8916666666666515,0.9501557632398986,0.024668483200805336,0.9447140173743872,41.666666666666664,0.9999999999760001,0.9937694704050112,0.0,0.99794108571993,0
413,319.85833333333335,0.88611111111112,0.9138888888888914,0.8916666666666515,0.9937694704050112,0.024638782041824087,0.9435765700091218,44.44444444444444,1.0666666666410667,1.0249221183800825,0.0,0.999364011509478,0
414,320.77222222222224,0.9138888888888914,0.86388888888888,0.8916666666666515,1.0249221183800825,0.024948619330005646,0.9554422216938119,44.44444444444444,1.0666666666410667,0.9688473520249287,0.0,0.9993252771178276,0
415,321.6361111111111,0.86388888888888,0.48888888888888005,0.8916666666666515,0.9688473520249287,0.024453877253214962,0.9364953828823435,41.666666666666664,0.9999999999760001,0.5482866043613701,0.0,0.9991531379292987,0
416,322.125,0.48888888888888005,0.10000000000002274,0.8916666666666515,0.5482866043613701,0.059745353005328725,2.2880317365954785,105.55555555555556,2.533333333272534,0.11214953271030778,1.0,0.7341505277735889,1
417,322.225,0.10000000000002274,1.272222222222183,0.8916666666666515,0.11214953271030778,0.05886804382912589,2.254433956400264,108.33333333333333,2.5999999999376002,1.4267912772585474,1.0,0.6950841303382087,1
418,323.4972222222222,1.272222222222183,0.5083333333333258,0.8916666666666515,1.4267912772585474,0.02629662952461719,1.0070661547928492,41.666666666666664,0.9999999999760001,0.5700934579439264,0.0,0.9932240463387088,0
419,324.00555555555553,0.5083333333333258,0.10000000000002274,0.8916666666666515,0.5700934579439264,0.0600436474361537,2.299455338436384,108.33333333333333,2.5999999999376002,0.11214953271030778,1.0,0.7362992726468505,1
420,324.10555555555555,0.10000000000002274,1.2194444444444343,0.8916666666666515,0.11214953271030778,0.05949401257176834,2.2784063036580493,108.33333333333333,2.5999999999376002,1.3676012461059308,1.0,0.6932289118319129,1
421,325.325,1.2194444444444343,0.9027777777777715,0.8916666666666515,1.3676012461059308,0.02579991695150251,0.9880438530725628,44.44444444444444,1.0666666666410667,1.0124610591900414,0.0,0.9976175436580625,0
422,326.22777777777776,0.9027777777777715,0.8611111111111427,0.8916666666666515,1.0124610591900414,0.024424925721654535,0.9353866435461244,38.888888888888886,0.9333333333109334,0.9657320872274662,0.0,0.9988453907288957,0
423,327.0888888888889,0.8611111111111427,0.5083333333333258,0.8916666666666515,0.9657320872274662,0.02590462818352451,0.9920539159476282,41.666666666666664,0.9999999999760001,0.5700934579439264,0.0,0.9996310988968269,0
424,327.59722222222223,0.5083333333333258,1.3277777777777828,0.8916666666666515,0.5700934579439264,0.061271878684448645,2.346492169497144,111.11111111111111,2.666666666602667,1.4890965732087538,1.0,0.7425583920620429,1
425,328.925,1.3277777777777828,0.8805555555555316,0.8916666666666515,1.4890965732087538,0.025369677235124,0.9715672222402021,41.666666666666664,0.9999999999760001,0.9875389408099587,0.0,0.9906112491028813,0
426,329.80555555555554,0.8805555555555316,0.5611111111111313,0.8916666666666515,0.9875389408099587,0.02564164996426958,0.9819827977531307,41.666666666666664,0.9999999999760001,0.6292834890966066,0.0,0.9979239369490023,0
427,330.3666666666667,0.5611111111111313,1.2777777777777715,0.8916666666666515,0.6292834890966066,0.05252722370476598,2.0116033938411175,113.88888888888889,2.7333333332677334,1.4330218068535998,1.0,0.849958161362635,1
428,331.64444444444445,1.2777777777777715,0.875,0.8916666666666515,1.4330218068535998,0.02509651874462586,0.9611062363401854,41.666666666666664,0.9999999999760001,0.9813084112149699,0.0,0.9943676555847699,0
429,332.51944444444445,0.875,0.5027777777777942,0.8916666666666515,0.9813084112149699,0.02584169672256696,0.9896438677571295,41.666666666666664,0.9999999999760001,0.5638629283489377,0.0,0.9997336046664027,0
430,333.02222222222224,0.5027777777777942,0.10555555555555429,0.8916666666666515,0.5638629283489377,0.06168353637584763,2.3622571757303565,108.33333333333333,2.5999999999376002,0.11838006230529655,1.0,0.7276362118039207,1
431,333.1277777777778,0.10555555555555429,1.1916666666666629,0.8916666666666515,0.11838006230529655,0.05814879380128452,2.2268892720446214,111.11111111111111,2.666666666602667,1.3364485981308596,1.0,0.6591059561763112,1
432,334.31944444444446,1.1916666666666629,0.8888888888888573,0.8916666666666515,1.3364485981308596,0.024362117038840093,0.932981297316094,41.666666666666664,0.9999999999760001,0.9968847352024738,0.0,0.9921578540407683,0
433,335.2083333333333,0.8888888888888573,0.5027777777777942,0.8916666666666515,0.9968847352024738,0.02617208395846357,1.0022965083906208,44.44444444444444,1.0666666666410667,0.5638629283489377,0.0,0.9958573159693306,0
434,335.7111111111111,0.5027777777777942,0.10000000000002274,0.8916666666666515,0.5638629283489377,0.06056218514300044,2.3193134641349795,102.77777777777777,2.466666666607467,0.11214953271030778,1.0,0.7444077085489462,1
435,335.81111111111113,0.10000000000002274,1.1611111111110972,0.8916666666666515,0.11214953271030778,0.05968099638188016,2.2855671098169354,108.33333333333333,2.5999999999376002,1.302180685358262,1.0,0.6879554947587371,1
436,336.97222222222223,1.1611111111110972,0.9111111111110972,0.8916666666666515,1.302180685358262,0.0292962587931622,1.1219411470594365,44.44444444444444,1.0666666666410667,1.0218068535825564,0.0,0.9836754219045819,0
437,337.8833333333333,0.9111111111110972,0.48888888888888005,0.8916666666666515,1.0218068535825564,0.02632188909733163,1.0080335054086926,41.666666666666664,0.9999999999760001,0.5482866043613701,0.0,0.9988597411137647,0
438,338.3722222222222,0.48888888888888005,0.10000000000002274,0.8916666666666515,0.5482866043613701,0.0617082588219544,2.3632039563325824,108.33333333333333,2.5999999999376002,0.11214953271030778,1.0,0.7459347370822295,1
439,338.47222222222223,0.10000000000002274,1.1611111111110972,0.8916666666666515,0.11214953271030778,0.06028290288776643,2.308617960111656,113.88888888888889,2.7333333332677334,1.302180685358262,1.0,0.6934455986212293,1
440,339.6333333333333,1.1611111111110972,0.8805555555555884,0.8916666666666515,1.302180685358262,0.025258967559809636,0.9673274406015389,41.666666666666664,0.9999999999760001,0.9875389408100225,0.0,0.9906861714556042,0
441,340.5138888888889,0.8805555555555884,0.4916666666666174,0.8916666666666515,0.9875389408100225,0.02377081938934628,0.9103367279937655,38.888888888888886,0.9333333333109334,0.5514018691588326,0.0,0.9965490364537688,0
442,341.00555555555553,0.4916666666666174,0.10277777777781694,0.8916666666666515,0.5514018691588326,0.06131861124883284,2.3482818583192016,111.11111111111111,2.666666666602667,0.11526479750783404,1.0,0.7376662283826474,1
443,341.10833333333335,0.10277777777781694,1.1999999999999886,0.8916666666666515,0.11526479750783404,0.059627890838147755,2.283533358849926,113.88888888888889,2.7333333332677334,1.3457943925233746,1.0,0.6813019046954663,1
444,342.30833333333334,1.1999999999999886,0.908333333333303,0.8916666666666515,1.3457943925233746,0.026299290762744287,1.0071680706237407,41.666666666666664,0.9999999999760001,1.01869158878503,0.0,0.9952899542027005,0
445,343.21666666666664,0.908333333333303,0.8833333333333826,0.8916666666666515,1.01869158878503,0.024556217577793155,0.9404146485455241,41.666666666666664,0.9999999999760001,0.9906542056075487,0.0,0.9984311870980306,0
446,344.1,0.8833333333333826,0.875,0.8916666666666515,0.9906542056075487,0.02483595713844185,0.9511276657183978,41.666666666666664,0.9999999999760001,0.9813084112149699,0.0,0.9981559635613022,0
447,344.975,0.875,0.4972222222222058,0.8916666666666515,0.9813084112149699,0.026648174358982847,1.0205290552094404,44.44444444444444,1.0666666666410667,0.5576323987538852,0.0,0.9989000701775919,0
448,345.47222222222223,0.4972222222222058,0.0999999999999659,0.8916666666666515,0.5576323987538852,0.05999303043133633,2.29751688954274,102.77777777777777,2.466666666607467,0.11214953271024403,1.0,0.7342863260006058,1
449,345.5722222222222,0.0999999999999659,1.2000000000000455,0.8916666666666515,0.11214953271024403,0.058449274561786696,2.238396602434049,105.55555555555556,2.533333333272534,1.3457943925234384,1.0,0.6829266564750777,1
450,346.77222222222224,1.2000000000000455,0.5083333333333258,0.8916666666666515,1.3457943925234384,0.025069006734546477,0.9600526254895885,38.888888888888886,0.9333333333109334,0.5700934579439264,0.0,0.9919168337484623,0
451,347.28055555555557,0.5083333333333258,0.0999999999999659,0.8916666666666515,0.5700934579439264,0.05953380324609285,2.279930143104891,105.55555555555556,2.533333333272534,0.11214953271024403,1.0,0.7310981975161575,1
452,347.38055555555553,0.0999999999999659,1.1888888888889255,0.8916666666666515,0.11214953271024403,0.05942390435595821,2.275721411617067,108.33333333333333,2.5999999999376002,1.333333333333397,1.0,0.6941939175214524,1
453,348.56944444444446,1.1888888888889255,0.8888888888888573,0.8916666666666515,1.333333333333397,0.024139657668817486,0.9244619050435374,41.666666666666664,0.9999999999760001,0.9968847352024738,0.0,0.9907218627472714,0
454,349.4583333333333,0.8888888888888573,0.8555555555555543,0.8916666666666515,0.9968847352024738,0.026514306733458125,1.0154024075239556,44.44444444444444,1.0666666666410667,0.9595015576324136,0.0,0.9986805307270628,0
455,350.31388888888887,0.8555555555555543,0.8611111111111427,0.8916666666666515,0.9595015576324136,0.024346137278379924,0.9323693300711637,41.666666666666664,0.9999999999760001,0.9657320872274662,0.0,0.9989986133768098,0
456,351.175,0.8611111111111427,0.8805555555555316,0.8916666666666515,0.9657320872274662,0.024804829756038895,0.9499355991352654,41.666666666666664,0.9999999999760001,0.9875389408099587,0.0,0.9996622011209045,0
457,352.05555555555554,0.8805555555555316,0.8555555555555543,0.8916666666666515,0.9875389408099587,0.026158506083798598,1.0017765247168078,44.44444444444444,1.0666666666410667,0.9595015576324136,0.0,0.9993839623640247,0
458,352.9111111111111,0.8555555555555543,0.8777777777777942,0.8916666666666515,0.9595015576324136,0.024614647904094265,0.9426523194978514,41.666666666666664,0.9999999999760001,0.9844236760124963,0.0,0.9997297773208487,0
459,353.7888888888889,0.8777777777777942,0.8888888888889142,0.8916666666666515,0.9844236760124963,0.024898802911119726,0.9535344323565499,41.666666666666664,0.9999999999760001,0.9968847352025375,0.0,0.9994778394249854,0
460,354.6777777777778,0.8888888888889142,0.8555555555555543,0.8916666666666515,0.9968847352025375,0.02471356247260663,0.9464403910479141,44.44444444444444,1.0666666666410667,0.9595015576324136,0.0,0.9990127293751541,0
461,355.53333333333336,0.8555555555555543,0.8833333333333258,0.8916666666666515,0.9595015576324136,0.025351767118361894,0.9708813293046599,44.44444444444444,1.0666666666410667,0.990654205607485,0.0,0.9994871181275107,0
462,356.4166666666667,0.8833333333333258,0.9305555555555429,0.8916666666666515,0.990654205607485,0.02631882447690876,1.0079161414894013,41.666666666666664,0.9999999999760001,1.0436137071651126,0.0,0.9988999999887254,0
463,357.34722222222223,0.9305555555555429,0.8694444444444116,0.8916666666666515,1.0436137071651126,0.026135751138467552,1.0009050923046956,44.44444444444444,1.0666666666410667,0.9750778816199175,0.0,0.9988099761608085,0
464,358.21666666666664,0.8694444444444116,0.8833333333333826,0.8916666666666515,0.9750778816199175,0.0259685869816251,0.9945033074488483,41.666666666666664,0.9999999999760001,0.9906542056075487,0.0,0.9990093183222983,0
465,359.1,0.8833333333333826,0.9222222222222172,0.8916666666666515,0.9906542056075487,0.026326715021277012,1.0082183209063003,44.44444444444444,1.0666666666410667,1.0342679127725976,0.0,0.9997417723352078,0
466,360.02222222222224,0.9222222222222172,0.8722222222222058,0.8916666666666515,1.0342679127725976,0.028910011042356555,1.1071492499900006,44.44444444444444,1.0666666666410667,0.9781931464174437,0.0,0.9957624447583042,0
467,360.89444444444445,0.8722222222222058,0.4805555555555543,0.8916666666666515,0.9781931464174437,0.025353552143426283,0.9709496893325532,44.44444444444444,1.0666666666410667,0.5389408099688551,0.0,0.9963216922216802,0
468,361.375,0.4805555555555543,0.10000000000002274,0.8916666666666515,0.5389408099688551,0.060407717405492965,2.31339790639,102.77777777777777,2.466666666607467,0.11214953271030778,1.0,0.7528434822155751,1
469,361.475,0.10000000000002274,1.2222222222221717,0.8916666666666515,0.11214953271030778,0.05748475182223118,2.2014588570235536,105.55555555555556,2.533333333272534,1.3707165109033934,1.0,0.6749366594876371,1
470,362.6972222222222,1.2222222222221717,0.5027777777777942,0.8916666666666515,1.3707165109033934,0.02494935163606805,0.9554702663772459,41.666666666666664,0.9999999999760001,0.5638629283489377,0.0,0.9962035882431644,0
471,363.2,0.5027777777777942,0.09444444444443434,0.8916666666666515,0.5638629283489377,0.059256957841102055,2.269327961665055,100.0,2.3999999999424,0.10591900311525526,1.0,0.7572444800860438,1
472,363.2944444444444,0.09444444444443434,1.238888888888937,0.8916666666666515,0.10591900311525526,0.058367537897640195,2.235266382723171,102.77777777777777,2.466666666607467,1.389408099688551,1.0,0.7132453613598977,1
473,364.53333333333336,1.238888888888937,0.908333333333303,0.8916666666666515,1.389408099688551,0.030989629216666103,1.1867911324707452,44.44444444444444,1.0666666666410667,1.01869158878503,0.0,0.9932967602388747,0
474,365.44166666666666,0.908333333333303,0.8527777777777601,0.8916666666666515,1.01869158878503,0.025037026760263748,0.958827907709649,41.666666666666664,0.9999999999760001,0.9563862928348874,0.0,0.9971659494438619,0
475,366.2944444444444,0.8527777777777601,0.5277777777777715,0.8916666666666515,0.9563862928348874,0.026770360632394345,1.0252083492010067,41.666666666666664,0.9999999999760001,0.5919003115264827,0.0,0.9986016585588233,0
476,366.8222222222222,0.5277777777777715,1.3166666666667197,0.8916666666666515,0.5919003115264827,0.061027462862494074,2.337131924232408,111.11111111111111,2.666666666602667,1.4766355140187761,1.0,0.7198327037033213,1
477,368.1388888888889,1.3166666666667197,0.5361111111110972,0.8916666666666515,1.4766355140187761,0.02564352793375126,0.9820547172172948,41.666666666666664,0.9999999999760001,0.6012461059189977,0.0,0.9963278015081244,0
478,368.675,0.5361111111110972,1.283333333333303,0.8916666666666515,0.6012461059189977,0.051988162796810226,1.9909593034923547,100.0,2.3999999999424,1.4392523364485885,1.0,0.871334747259553,1
479,369.9583333333333,1.283333333333303,0.875,0.8916666666666515,1.4392523364485885,0.02508745432383032,0.9607591016860108,41.666666666666664,0.9999999999760001,0.9813084112149699,0.0,0.9895787136744089,0
480,370.8333333333333,0.875,0.49166666666667425,0.8916666666666515,0.9813084112149699,0.03069669071656196,1.1755726434771465,44.44444444444444,1.0666666666410667,0.5514018691588963,0.0,0.9971146551511101,0
481,371.325,0.49166666666667425,0.10277777777781694,0.8916666666666515,0.5514018691588963,0.0612701920073953,2.346427575843691,111.11111111111111,2.666666666602667,0.11526479750783404,1.0,0.7332480489063771,1
482,371.4277777777778,0.10277777777781694,1.2055555555555202,0.8916666666666515,0.11526479750783404,0.059392297243375254,2.2745109730966773,111.11111111111111,2.666666666602667,1.3520249221183633,1.0,0.6828945917346187,1
483,372.6333333333333,1.2055555555555202,0.875,0.8916666666666515,1.3520249221183633,0.024932133003135803,0.9548108547807279,41.666666666666664,0.9999999999760001,0.9813084112149699,0.0,0.9906714516971984,0
484,373.5083333333333,0.875,0.4805555555555543,0.8916666666666515,0.9813084112149699,0.02464274626102304,0.9437283853199664,41.666666666666664,0.9999999999760001,0.5389408099688551,0.0,0.9986498219343801,0
485,373.9888888888889,0.4805555555555543,0.1027777777777601,0.8916666666666515,0.5389408099688551,0.06176107847670548,2.3652267587817652,111.11111111111111,2.666666666602667,0.11526479750777029,1.0,0.7297992122158325,1
486,374.09166666666664,0.1027777777777601,1.2111111111111654,0.8916666666666515,0.11526479750777029,0.06006796073274849,2.3003864500866102,113.88888888888889,2.7333333332677334,1.3582554517134797,1.0,0.6910456639644467,1
487,375.3027777777778,1.2111111111111654,0.875,0.8916666666666515,1.3582554517134797,0.02536772144128963,0.9714923223837584,41.666666666666664,0.9999999999760001,0.9813084112149699,0.0,0.9928991234462247,0
488,376.1777777777778,0.875,0.48611111111108585,0.8916666666666515,0.9813084112149699,0.02416180346846512,0.925310009370941,38.888888888888886,0.9333333333109334,0.5451713395638439,0.0,0.9979252626157433,0
489,376.6638888888889,0.48611111111108585,0.10000000000002274,0.8916666666666515,0.5451713395638439,0.06138821904825073,2.350947586215537,108.33333333333333,2.5999999999376002,0.11214953271030778,1.0,0.7447450866113933,1
490,376.7638888888889,0.10000000000002274,1.2055555555555202,0.8916666666666515,0.11214953271030778,0.06072016137907715,2.3253633847328072,113.88888888888889,2.7333333332677334,1.3520249221183633,1.0,0.6975091515223778,1
491,377.96944444444443,1.2055555555555202,0.88611111111112,0.8916666666666515,1.3520249221183633,0.026487270173460385,1.0143670046982718,44.44444444444444,1.0666666666410667,0.9937694704050112,0.0,0.9905219803898853,0
492,378.85555555555555,0.88611111111112,0.5083333333333258,0.8916666666666515,0.9937694704050112,0.02479829271262772,0.9496852539278827,41.666666666666664,0.9999999999760001,0.5700934579439264,0.0,0.9978209476856748,0
493,379.3638888888889,0.5083333333333258,0.10000000000002274,0.8916666666666515,0.5700934579439264,0.060861227339645226,2.3307657027123208,108.33333333333333,2.5999999999376002,0.11214953271030778,1.0,0.7395447432990497,1
494,379.4638888888889,0.10000000000002274,1.2194444444444343,0.8916666666666515,0.11214953271030778,0.059965545566207035,2.2964643182459183,111.11111111111111,2.666666666602667,1.3676012461059308,1.0,0.6951956952322176,1
495,380.68333333333334,1.2194444444444343,0.8805555555555316,0.8916666666666515,1.3676012461059308,0.024463593251505825,0.9368674706067264,41.666666666666664,0.9999999999760001,0.9875389408099587,0.0,0.9921249295035854,0
496,381.56388888888887,0.8805555555555316,0.5166666666667084,0.8916666666666515,0.9875389408099587,0.025217684030381497,0.9657464301835097,41.666666666666664,0.9999999999760001,0.5794392523365052,0.0,0.9993883104847445,0
497,382.0805555555556,0.5166666666667084,0.1027777777777601,0.8916666666666515,0.5794392523365052,0.06060179685398049,2.3208304499305963,108.33333333333333,2.5999999999376002,0.11526479750777029,1.0,0.7529497971422601,1
498,382.18333333333334,0.1027777777777601,1.2250000000000227,0.8916666666666515,0.11526479750777029,0.05725543846091082,2.192676981581633,111.11111111111111,2.666666666602667,1.3738317757009835,1.0,0.6575700817732453,1
499,383.40833333333336,1.2250000000000227,0.8555555555555543,0.8916666666666515,1.3738317757009835,0.025004895336866038,0.95759738997433,41.666666666666664,0.9999999999760001,0.9595015576324136,0.0,0.9938370488397115,0
500,384.2638888888889,0.8555555555555543,0.48611111111108585,0.8916666666666515,0.9595015576324136,0.025509847450339976,0.9769352364004158,41.666666666666664,0.9999999999760001,0.5451713395638439,0.0,0.9994635492817441,0
501,384.75,0.48611111111108585,0.10000000000002274,0.8916666666666515,0.5451713395638439,0.06012100017395472,2.302417669565058,105.55555555555556,2.533333333272534,0.11214953271030778,1.0,0.7366929929289291,1
502,384.85,0.10000000000002274,1.1916666666666629,0.8916666666666515,0.11214953271030778,0.05821556712742064,2.2294464498278685,108.33333333333333,2.5999999999376002,1.3364485981308596,1.0,0.6924543807756359,1
503,386.0416666666667,1.1916666666666629,0.8888888888888573,0.8916666666666515,1.3364485981308596,0.02585874284206868,0.9902966727108847,41.666666666666664,0.9999999999760001,0.9968847352024738,0.0,0.9907211940531548,0
504,386.93055555555554,0.8888888888888573,0.875,0.8916666666666515,0.9968847352024738,0.024546418137122175,0.940039365278655,41.666666666666664,0.9999999999760001,0.9813084112149699,0.0,0.9987790883387964,0
505,387.80555555555554,0.875,0.8916666666666515,0.8916666666666515,0.9813084112149699,0.02624342303796247,1.005028538075648,44.44444444444444,1.0666666666410667,1.0,0.0,0.9966669265101313,0
506,388.6972222222222,0.8916666666666515,0.9250000000000114,0.8916666666666515,1.0,0.024312072582978666,0.9310647749843675,38.888888888888886,0.9333333333109334,1.0373831775701239,0.0,0.9984738578754435,0
507,389.6222222222222,0.9250000000000114,0.9000000000000341,0.8916666666666515,1.0373831775701239,0.029209464920408632,1.1186172544818083,44.44444444444444,1.0666666666410667,1.0093457943925788,0.0,0.9962868074496667,0
508,390.52222222222224,0.9000000000000341,0.908333333333303,0.8916666666666515,1.0093457943925788,0.026159718398087426,1.0018229519856752,44.44444444444444,1.0666666666410667,1.01869158878503,0.0,0.9971678187391497,0
509,391.43055555555554,0.908333333333303,0.9055555555555657,0.8916666666666515,1.01869158878503,0.025243718305621388,0.9667434491145522,44.44444444444444,1.0666666666410667,1.0155763239875675,0.0,0.9987421102916234,0
510,392.3361111111111,0.9055555555555657,0.8944444444444457,0.8916666666666515,1.0155763239875675,0.02544722575564587,0.9745370511416104,41.666666666666664,0.9999999999760001,1.0031152647975263,0.0,0.9959404439316225,0
511,393.23055555555555,0.8944444444444457,0.9333333333333371,0.8916666666666515,1.0031152647975263,0.02929583968001298,1.1219250965360335,44.44444444444444,1.0666666666410667,1.046728971962639,0.0,0.9953130605981981,0
512,394.1638888888889,0.9333333333333371,0.51111111111112,0.8916666666666515,1.046728971962639,0.02587226874159661,0.990814665924234,44.44444444444444,1.0666666666410667,0.5732087227414527,0.0,0.9984872211337257,0
513,394.675,0.51111111111112,0.0999999999999659,0.8916666666666515,0.5732087227414527,0.059945122753578634,2.2956821981128237,105.55555555555556,2.533333333272534,0.11214953271024403,1.0,0.7497023958149445,1
514,394.775,0.0999999999999659,1.238888888888937,0.8916666666666515,0.11214953271024403,0.05717261498760955,2.1895051409962827,105.55555555555556,2.533333333272534,1.389408099688551,1.0,0.6674314191738313,1
515,396.0138888888889,1.238888888888937,0.9611111111111086,0.8916666666666515,1.389408099688551,0.026026107361633813,0.9967061307370333,41.666666666666664,0.9999999999760001,1.0778816199377101,0.0,0.9934483649313629,0
516,396.975,0.9611111111111086,0.8888888888888573,0.8916666666666515,1.0778816199377101,0.025474346387971587,0.9755756736345136,44.44444444444444,1.0666666666410667,0.9968847352024738,0.0,0.9997606920672861,0
517,397.8638888888889,0.8888888888888573,0.8500000000000227,0.8916666666666515,0.9968847352024738,0.024899753662120674,0.9535708426939962,41.666666666666664,0.9999999999760001,0.9532710280374249,0.0,0.9982037559397883,0
518,398.7138888888889,0.8500000000000227,0.9111111111110972,0.8916666666666515,0.9532710280374249,0.025893333672094846,0.991621376857967,44.44444444444444,1.0666666666410667,1.0218068535825564,0.0,0.9959273936988942,0
519,399.625,0.9111111111110972,0.86388888888888,0.8916666666666515,1.0218068535825564,0.024980977320148107,0.9566814161190552,41.666666666666664,0.9999999999760001,0.9688473520249287,0.0,0.9996483544255712,0
520,400.4888888888889,0.86388888888888,0.8888888888889142,0.8916666666666515,0.9688473520249287,0.029507157427543187,1.1300178048143135,44.44444444444444,1.0666666666410667,0.9968847352025375,0.0,0.9968704527268728,0
521,401.3777777777778,0.8888888888889142,0.9111111111110972,0.8916666666666515,0.9968847352025375,0.02598380318885757,0.9950860333565086,41.666666666666664,0.9999999999760001,1.0218068535825564,0.0,0.9996969125304865,0
522,402.2888888888889,0.9111111111110972,0.8666666666666742,0.8916666666666515,1.0218068535825564,0.02362022447249527,0.9045694853247945,38.888888888888886,0.9333333333109334,0.9719626168224549,0.0,0.9982132151089369,0
523,403.15555555555557,0.8666666666666742,0.8972222222222399,0.8916666666666515,0.9719626168224549,0.0254164209704472,0.9733573388689709,41.666666666666664,0.9999999999760001,1.0062305295950524,0.0,0.9995596156763256,0
524,404.0527777777778,0.8972222222222399,0.9249999999999545,0.8916666666666515,1.0062305295950524,0.026306471272744013,1.0074430582828284,41.666666666666664,0.9999999999760001,1.0373831775700602,0.0,0.9989732525026616,0
525,404.97777777777776,0.9249999999999545,0.8805555555555884,0.8916666666666515,1.0373831775700602,0.026034265551548863,0.9970185600139537,41.666666666666664,0.9999999999760001,0.9875389408100225,0.0,0.9994149460289525,0
526,405.85833333333335,0.8805555555555884,0.875,0.8916666666666515,0.9875389408100225,0.02254347301770496,0.8633337845203178,38.888888888888886,0.9333333333109334,0.9813084112149699,0.0,0.9965455828414795,0
527,406.73333333333335,0.875,0.9166666666666288,0.8916666666666515,0.9813084112149699,0.030088001486104483,1.1522620392718892,44.44444444444444,1.0666666666410667,1.0280373831775451,0.0,0.995020060638951,0
528,407.65,0.9166666666666288,0.8944444444444457,0.8916666666666515,1.0280373831775451,0.025790315810845853,0.9876761639816976,44.44444444444444,1.0666666666410667,1.0031152647975263,0.0,0.9996853737788134,0
529,408.5444444444444,0.8944444444444457,0.9083333333333599,0.8916666666666515,1.0031152647975263,0.024793612915534297,0.9495060345621585,41.666666666666664,0.9999999999760001,1.0186915887850938,0.0,0.9997277537561149,0
530,409.4527777777778,0.9083333333333599,0.8944444444444457,0.8916666666666515,1.0186915887850938,0.025814216907350085,0.9885914898537572,41.666666666666664,0.9999999999760001,1.0031152647975263,0.0,0.9974639047284828,0
531,410.34722222222223,0.8944444444444457,0.8805555555555316,0.8916666666666515,1.0031152647975263,0.025232390227154584,0.9663096245283224,44.44444444444444,1.0666666666410667,0.9875389408099587,0.0,0.9990598536455174,0
532,411.22777777777776,0.8805555555555316,0.9000000000000341,0.8916666666666515,0.9875389408099587,0.024595433366491767,0.9419164719444091,41.666666666666664,0.9999999999760001,1.0093457943925788,0.0,0.9996368924197292,0
533,412.1277777777778,0.9000000000000341,0.8944444444444457,0.8916666666666515,1.0093457943925788,0.02918147919838008,1.1175455021705087,44.44444444444444,1.0666666666410667,1.0031152647975263,0.0,0.9956615120058288,0
534,413.02222222222224,0.8944444444444457,0.8611111111110858,0.8916666666666515,1.0031152647975263,0.025354140560358365,0.970972223580779,44.44444444444444,1.0666666666410667,0.9657320872274024,0.0,0.9989991270597278,0
535,413.8833333333333,0.8611111111110858,0.88611111111112,0.8916666666666515,0.9657320872274024,0.026273218664344556,1.0061696032019662,44.44444444444444,1.0666666666410667,0.9937694704050112,0.0,0.9987743179700507,0
536,414.76944444444445,0.88611111111112,0.9111111111110972,0.8916666666666515,0.9937694704050112,0.02953627861829595,1.1311330414862573,44.44444444444444,1.0666666666410667,1.0218068535825564,0.0,0.9949226211345894,0
537,415.68055555555554,0.9111111111110972,0.8944444444444457,0.8916666666666515,1.0218068535825564,0.024664822178811507,0.9445738134239727,41.666666666666664,0.9999999999760001,1.0031152647975263,0.0,0.997466832094028,0
538,416.575,0.8944444444444457,0.8694444444444684,0.8916666666666515,1.0031152647975263,0.025113701525256348,0.9617642749227344,44.44444444444444,1.0666666666410667,0.9750778816199812,0.0,0.9992653642976628,0
539,417.44444444444446,0.8694444444444684,0.9027777777777715,0.8916666666666515,0.9750778816199812,0.023484411213996796,0.8993683269072145,41.666666666666664,0.9999999999760001,1.0124610591900414,0.0,0.9978559966683624,0
540,418.34722222222223,0.9027777777777715,0.9111111111110972,0.8916666666666515,1.0124610591900414,0.025588738936239953,0.9799564960366293,41.666666666666664,0.9999999999760001,1.0218068535825564,0.0,0.9978364559121056,0
541,419.2583333333333,0.9111111111110972,0.8388888888889028,0.8916666666666515,1.0218068535825564,0.025358282059573207,0.9711308280774299,41.666666666666664,0.9999999999760001,0.9408099688473835,0.0,0.9978617604984319,0
542,420.09722222222223,0.8388888888889028,0.8694444444444116,0.8916666666666515,0.9408099688473835,0.024642757292843178,0.9437288077989261,41.666666666666664,0.9999999999760001,0.9750778816199175,0.0,0.99986965049534,0
543,420.96666666666664,0.8694444444444116,0.49444444444446844,0.8916666666666515,0.9750778816199175,0.02266158279332091,0.867856963335369,38.888888888888886,0.9333333333109334,0.5545171339564227,0.0,0.9963458431830722,0
544,421.4611111111111,0.49444444444446844,0.10000000000002274,0.8916666666666515,0.5545171339564227,0.05988207671035819,2.2932677618345365,108.33333333333333,2.5999999999376002,0.11214953271030778,1.0,0.7372657838714294,1
545,421.56111111111113,0.10000000000002274,1.2027777777777828,0.8916666666666515,0.11214953271030778,0.05859348358727561,2.2439192884744634,108.33333333333333,2.5999999999376002,1.348909657320901,1.0,0.6876040010783334,1
546,422.7638888888889,1.2027777777777828,0.9388888888888687,0.8916666666666515,1.348909657320901,0.030039259155261764,1.1503953836363652,44.44444444444444,1.0666666666410667,1.0529595015576276,0.0,0.9932921132303221,0
547,423.7027777777778,0.9388888888888687,0.9027777777777715,0.8916666666666515,1.0529595015576276,0.02611300373626488,1.0000339487672196,44.44444444444444,1.0666666666410667,1.0124610591900414,0.0,0.9981694296491314,0
548,424.60555555555555,0.9027777777777715,0.8583333333333485,0.8916666666666515,1.0124610591900414,0.02926420535887982,1.1207136160262126,41.666666666666664,0.9999999999760001,0.96261682242994,0.0,0.995502768037341,0
549,425.4638888888889,0.8583333333333485,0.9027777777777715,0.8916666666666515,0.96261682242994,0.024456685623100306,0.9366029333294082,41.666666666666664,0.9999999999760001,1.0124610591900414,0.0,0.9981690141646948,0
550,426.3666666666667,0.9027777777777715,0.5138888888888573,0.8916666666666515,1.0124610591900414,0.027924556486081706,1.069409891423848,44.44444444444444,1.0666666666410667,0.5763239875389152,0.0,0.9962165251259291,0
551,426.88055555555553,0.5138888888888573,0.10000000000002274,0.8916666666666515,0.5763239875389152,0.059649032362178604,2.2843430030399645,105.55555555555556,2.533333333272534,0.11214953271030778,1.0,0.7300857888457922,1
552,426.98055555555555,0.10000000000002274,1.22777777777776,0.8916666666666515,0.11214953271030778,0.05986591909961924,2.292648983564786,108.33333333333333,2.5999999999376002,1.3769470404984459,1.0,0.6916958581332073,1
553,428.2083333333333,1.22777777777776,0.9333333333333371,0.8916666666666515,1.3769470404984459,0.023179884160244333,0.8877060380665175,38.888888888888886,0.9333333333109334,1.046728971962639,0.0,0.9922170399416481,0
