beat_index,peak_time_s,rr_prev_s,rr_next_s,rr_baseline_s,prematurity_index,aa_ratio,morph_index,qrs_width_ms,width_index,pause_index,pvc_score,morphology_score,is_pvc_candidate
0,0.45555555555555555,,0.9722222222222223,0.9972222222222253,,0.04300863918445673,1.0070346150876266,69.44444444444444,1.0416666666510415,0.9749303621169887,0.0,0.9996430252344526,0
1,1.4277777777777778,0.9722222222222223,0.9999999999999998,0.9972222222222253,0.9749303621169887,0.040380486411194724,0.9454971922209697,63.888888888888886,0.9583333333189582,1.002785515320331,0.0,0.998462626382125,0
2,2.4277777777777776,0.9999999999999998,0.9555555555555557,0.9972222222222253,1.002785515320331,0.040908741553015084,0.95786613072957,63.888888888888886,0.9583333333189582,0.9582172701949833,0.0,0.9982007350904738,0
3,3.3833333333333333,0.9555555555555557,0.9750000000000001,0.9972222222222253,0.9582172701949833,0.04486025474920359,1.0503896480041062,72.22222222222223,1.0833333333170834,0.9777158774373229,0.0,0.9988591580471857,0
4,4.358333333333333,0.9750000000000001,0.9833333333333334,0.9972222222222253,0.9777158774373229,0.04414647930749313,1.0336768063324806,69.44444444444444,1.0416666666510415,0.9860724233983257,0.0,0.9988194224801228,0
5,5.341666666666667,0.9833333333333334,0.9972222222222218,0.9972222222222253,0.9860724233983257,0.0475684006561842,1.1138000865288145,75.0,1.1249999999831248,0.9999999999999964,0.0,0.9969841972129332,0
6,6.338888888888889,0.9972222222222218,1.0,0.9972222222222253,0.9999999999999964,0.044782080782905916,1.0485592276152438,69.44444444444444,1.0416666666510415,1.0027855153203311,0.0,0.9986549524009853,0
7,7.338888888888889,1.0,1.0277777777777786,0.9972222222222253,1.0027855153203311,0.03854214866685663,0.9024530555573849,63.888888888888886,0.9583333333189582,1.0306406685236744,0.0,0.9974173701983695,0
8,8.366666666666667,1.0277777777777786,1.0222222222222221,0.9972222222222253,1.0306406685236744,0.041734674271677694,0.9772051019967026,66.66666666666667,0.999999999985,1.025069637883005,0.0,0.9986638210115897,0
9,9.38888888888889,1.0222222222222221,1.0,0.9972222222222253,1.025069637883005,0.04398634453657298,1.0299272978510776,72.22222222222223,1.0833333333170834,1.0027855153203311,0.0,0.9984312854247563,0
10,10.38888888888889,1.0,1.0333333333333332,0.9972222222222253,1.0027855153203311,0.044144065633097376,1.0336202908576326,69.44444444444444,1.0416666666510415,1.036211699164342,0.0,0.9984423305051027,0
11,11.422222222222222,1.0333333333333332,0.9749999999999996,0.9972222222222253,1.036211699164342,0.04240335826242322,0.9928621406290488,69.44444444444444,1.0416666666510415,0.9777158774373225,0.0,0.9976070546679328,0
12,12.397222222222222,0.9749999999999996,0.9944444444444454,0.9972222222222253,0.9777158774373225,0.03889467645910974,0.9107073899495225,61.111111111111114,0.9166666666529166,0.9972144846796636,0.0,0.9966867859689283,0
13,13.391666666666667,0.9944444444444454,1.0166666666666657,0.9972222222222253,0.9972144846796636,0.04292204276544415,1.0050069854499093,66.66666666666667,0.999999999985,1.0194986072423358,0.0,0.9989157084214886,0
14,14.408333333333333,1.0166666666666657,0.9916666666666671,0.9972222222222253,1.0194986072423358,0.04283506588471079,1.0029704474130932,66.66666666666667,0.999999999985,0.9944289693593289,0.0,0.9991962990531493,0
15,15.4,0.9916666666666671,0.9944444444444454,0.9972222222222253,0.9944289693593289,0.04364125503977981,1.0218471289556275,69.44444444444444,1.0416666666510415,0.9972144846796636,0.0,0.995714392754997,0
16,16.394444444444446,0.9944444444444454,1.0083333333333329,0.9972222222222253,0.9972144846796636,0.043665159642992,1.0224068481969493,69.44444444444444,1.0416666666510415,1.0111420612813333,0.0,0.9986802720443719,0
17,17.40277777777778,1.0083333333333329,1.0027777777777764,0.9972222222222253,1.0111420612813333,0.04081590681058528,0.9556924325870038,66.66666666666667,0.999999999985,1.005571030640664,0.0,0.9986432141056936,0
18,18.405555555555555,1.0027777777777764,0.9972222222222236,0.9972222222222253,1.005571030640664,0.04210159293603435,0.9857963944192354,66.66666666666667,0.999999999985,0.9999999999999982,0.0,0.9994760723205842,0
19,19.40277777777778,0.9972222222222236,0.99722222222222,0.9972222222222253,0.9999999999999982,0.043451682717682995,1.0174083488864587,69.44444444444444,1.0416666666510415,0.9999999999999947,0.0,0.9991840714006122,0
20,20.4,0.99722222222222,0.9805555555555578,0.9972222222222253,0.9999999999999947,0.04227344496288911,0.9898202589961518,66.66666666666667,0.999999999985,0.9832869080779937,0.0,0.9985059497691299,0
21,21.380555555555556,0.9805555555555578,0.9749999999999979,0.9972222222222253,0.9832869080779937,0.04299870909305524,1.006802104923113,66.66666666666667,0.999999999985,0.9777158774373207,0.0,0.9987353727466635,0
22,22.355555555555554,0.9749999999999979,0.9750000000000014,0.9972222222222253,0.9777158774373207,0.040872070999571825,0.9570075005247547,66.66666666666667,0.999999999985,0.9777158774373242,0.0,0.9983601037157808,0
23,23.330555555555556,0.9750000000000014,0.9722222222222214,0.9972222222222253,0.9777158774373242,0.044039393920181864,1.03116943353861,72.22222222222223,1.0833333333170834,0.9749303621169878,0.0,0.9991117805644771,0
24,24.302777777777777,0.9722222222222214,0.9805555555555578,0.9972222222222253,0.9749303621169878,0.04075530805659969,0.9542735306163336,66.66666666666667,0.999999999985,0.9832869080779937,0.0,0.9986496067943766,0
25,25.283333333333335,0.9805555555555578,0.966666666666665,0.9972222222222253,0.9832869080779937,0.04299489934911448,1.0067129008911857,69.44444444444444,1.0416666666510415,0.9693593314763185,0.0,0.9990301239123178,0
26,26.25,0.966666666666665,0.9638888888888886,0.9972222222222253,0.9693593314763185,0.042005049309729134,0.983535853853456,66.66666666666667,0.999999999985,0.9665738161559855,0.0,0.9987868566628779,0
27,27.21388888888889,0.9638888888888886,1.0083333333333329,0.9972222222222253,0.9665738161559855,0.040833273582966914,0.956099070445636,66.66666666666667,0.999999999985,1.0111420612813333,0.0,0.9977226950321193,0
28,28.22222222222222,1.0083333333333329,0.9750000000000014,0.9972222222222253,1.0111420612813333,0.04397384083294414,1.0296345273145109,69.44444444444444,1.0416666666510415,0.9777158774373242,0.0,0.9994028202113763,0
29,29.197222222222223,0.9750000000000014,0.966666666666665,0.9972222222222253,0.9777158774373242,0.043211280427792306,1.0117794000971712,69.44444444444444,1.0416666666510415,0.9693593314763185,0.0,0.9984022548036453,0
30,30.163888888888888,0.966666666666665,1.0111111111111128,0.9972222222222253,0.9693593314763185,0.041894079594807385,0.9809375306730055,66.66666666666667,0.999999999985,1.01392757660167,0.0,0.9992736773238508,0
31,31.175,1.0111111111111128,0.9833333333333307,0.9972222222222253,1.01392757660167,0.04358680287610396,1.0205721475861211,72.22222222222223,1.0833333333170834,0.986072423398323,0.0,0.9988979379269525,0
32,32.15833333333333,0.9833333333333307,0.9888888888888943,0.9972222222222253,0.986072423398323,0.04242158644924862,0.9932889482530878,66.66666666666667,0.999999999985,0.9916434540389995,0.0,0.9985518097246479,0
33,33.147222222222226,0.9888888888888943,1.0055555555555529,0.9972222222222253,0.9916434540389995,0.041311286628546245,0.9672916050733258,63.888888888888886,0.9583333333189582,1.0083565459609969,0.0,0.9992482250825783,0
34,34.15277777777778,1.0055555555555529,1.0,0.9972222222222253,1.0083565459609969,0.038457969248542355,0.9004820192789096,61.111111111111114,0.9166666666529166,1.0027855153203311,0.0,0.9966117403452017,0
35,35.15277777777778,1.0,1.0194444444444457,0.9972222222222253,1.0027855153203311,0.04078340362957519,0.9549313801798994,66.66666666666667,0.999999999985,1.0222841225626722,0.0,0.9980554813107856,0
36,36.172222222222224,1.0194444444444457,1.0388888888888843,0.9972222222222253,1.0222841225626722,0.04166008674030479,0.9754586569249507,66.66666666666667,0.999999999985,1.041782729805006,0.0,0.9995773763635016,0
37,37.21111111111111,1.0388888888888843,1.0250000000000057,0.9972222222222253,1.041782729805006,0.03748872351390124,0.8777874159662248,61.111111111111114,0.9166666666529166,1.027855153203345,0.0,0.9969266792411553,0
38,38.236111111111114,1.0250000000000057,1.0472222222222172,0.9972222222222253,1.027855153203345,0.04278909008512821,1.0018939376114828,66.66666666666667,0.999999999985,1.0501392757660084,0.0,0.999229168960208,0
39,39.28333333333333,1.0472222222222172,1.0361111111111114,0.9972222222222253,1.0501392757660084,0.043624272391859675,1.0214494852580887,72.22222222222223,1.0833333333170834,1.0389972144846766,0.0,0.9990775808226312,0
40,40.31944444444444,1.0361111111111114,1.0388888888888914,0.9972222222222253,1.0389972144846766,0.04359322704639029,1.020722567640655,69.44444444444444,1.0416666666510415,1.0417827298050133,0.0,0.9994388024596055,0
41,41.358333333333334,1.0388888888888914,1.0527777777777771,0.9972222222222253,1.0417827298050133,0.041206188658530644,0.9648307670698905,66.66666666666667,0.999999999985,1.0557103064066813,0.0,0.9990742388940548,0
42,42.41111111111111,1.0527777777777771,1.0249999999999986,0.9972222222222253,1.0557103064066813,0.04313215240539875,1.0099266407659124,69.44444444444444,1.0416666666510415,1.027855153203338,0.0,0.9985453265480458,0
43,43.43611111111111,1.0249999999999986,1.0249999999999986,0.9972222222222253,1.027855153203338,0.043441380393760685,1.017167123007139,69.44444444444444,1.0416666666510415,1.027855153203338,0.0,0.997094569685657,0
44,44.46111111111111,1.0249999999999986,1.0555555555555571,0.9972222222222253,1.027855153203338,0.04357793439770372,1.0203644947772543,69.44444444444444,1.0416666666510415,1.0584958217270177,0.0,0.9990000118200557,0
45,45.516666666666666,1.0555555555555571,1.00277777777778,0.9972222222222253,1.0584958217270177,0.039161785311913534,0.9169616650410017,63.888888888888886,0.9583333333189582,1.0055710306406676,0.0,0.9982879144797183,0
46,46.519444444444446,1.00277777777778,1.0222222222222186,0.9972222222222253,1.0055710306406676,0.040790128227533855,0.9550888346598674,63.888888888888886,0.9583333333189582,1.0250696378830015,0.0,0.9979890582952404,0
47,47.541666666666664,1.0222222222222186,1.0194444444444457,0.9972222222222253,1.0250696378830015,0.043342728050103696,1.0148572074458486,72.22222222222223,1.0833333333170834,1.0222841225626722,0.0,0.9975189200693715,0
48,48.56111111111111,1.0194444444444457,0.9944444444444471,0.9972222222222253,1.0222841225626722,0.04229731269517725,0.9903791149156502,66.66666666666667,0.999999999985,0.9972144846796653,0.0,0.9992167731207237,0
49,49.55555555555556,0.9944444444444471,0.9722222222222214,0.9972222222222253,0.9972144846796653,0.042961534161194505,1.0059316648462548,69.44444444444444,1.0416666666510415,0.9749303621169878,0.0,0.999214509207554,0
50,50.52777777777778,0.9722222222222214,0.9694444444444414,0.9972222222222253,0.9749303621169878,0.04312017037706915,1.0096460851027789,69.44444444444444,1.0416666666510415,0.9721448467966514,0.0,0.9991930194067531,0
51,51.49722222222222,0.9694444444444414,0.9638888888888886,0.9972222222222253,0.9721448467966514,0.04427003979802214,1.036569938814219,69.44444444444444,1.0416666666510415,0.9665738161559855,0.0,0.9994898877485965,0
52,52.46111111111111,0.9638888888888886,0.9972222222222271,0.9972222222222253,0.9665738161559855,0.04273052834913161,1.0005227318168686,69.44444444444444,1.0416666666510415,1.0000000000000018,0.0,0.9994523551768362,0
53,53.458333333333336,0.9972222222222271,0.9861111111111072,0.9972222222222253,1.0000000000000018,0.039533034899874725,0.9256543647637367,63.888888888888886,0.9583333333189582,0.9888579387186559,0.0,0.9987525738374492,0
54,54.44444444444444,0.9861111111111072,0.9805555555555543,0.9972222222222253,0.9888579387186559,0.04305788036935555,1.008187582924353,69.44444444444444,1.0416666666510415,0.9832869080779901,0.0,0.9990496965225029,0
55,55.425,0.9805555555555543,1.0194444444444457,0.9972222222222253,0.9832869080779901,0.04256764833066258,0.996708944172927,69.44444444444444,1.0416666666510415,1.0222841225626722,0.0,0.9994438900410889,0
56,56.44444444444444,1.0194444444444457,1.00555555555556,0.9972222222222253,1.0222841225626722,0.04463354330779583,1.0450812663983813,72.22222222222223,1.0833333333170834,1.008356545961004,0.0,0.9980184612974707,0
57,57.45,1.00555555555556,1.0194444444444386,0.9972222222222253,1.008356545961004,0.04325482433772411,1.0127989679191038,69.44444444444444,1.0416666666510415,1.022284122562665,0.0,0.998843591081549,0
58,58.46944444444444,1.0194444444444386,1.0305555555555586,0.9972222222222253,1.022284122562665,0.042348574433206894,0.9915793934086293,69.44444444444444,1.0416666666510415,1.0334261838440109,0.0,0.999456429876167,0
59,59.5,1.0305555555555586,0.99722222222222,0.9972222222222253,1.0334261838440109,0.044386894602102,1.039306059623413,69.44444444444444,1.0416666666510415,0.9999999999999947,0.0,0.9986215236644784,0
60,60.49722222222222,0.99722222222222,1.0333333333333385,0.9972222222222253,0.9999999999999947,0.04190469698791565,0.981186133804487,66.66666666666667,0.999999999985,1.0362116991643473,0.0,0.9988746941868389,0
61,61.53055555555556,1.0333333333333385,1.0222222222222186,0.9972222222222253,1.0362116991643473,0.04278621184400774,1.0018265444436487,66.66666666666667,0.999999999985,1.0250696378830015,0.0,0.9987569927808841,0
62,62.55277777777778,1.0222222222222186,0.9944444444444471,0.9972222222222253,1.0250696378830015,0.0433137244051745,1.0141780956450277,69.44444444444444,1.0416666666510415,0.9972144846796653,0.0,0.9991011596222561,0
63,63.547222222222224,0.9944444444444471,1.0111111111111128,0.9972222222222253,0.9972144846796653,0.04156021037282757,0.9731200812065374,66.66666666666667,0.999999999985,1.01392757660167,0.0,0.9989459532736871,0
64,64.55833333333334,1.0111111111111128,1.0055555555555458,0.9972222222222253,1.01392757660167,0.043837415924366414,1.02644017827434,69.44444444444444,1.0416666666510415,1.0083565459609898,0.0,0.9990102325492731,0
65,65.56388888888888,1.0055555555555458,0.9916666666666742,0.9972222222222253,1.0083565459609898,0.04161660196187748,0.9744404736497742,66.66666666666667,0.999999999985,0.994428969359336,0.0,0.9987302993070573,0
66,66.55555555555556,0.9916666666666742,0.9805555555555543,0.9972222222222253,0.994428969359336,0.03982250613069201,0.9324322483478884,63.888888888888886,0.9583333333189582,0.9832869080779901,0.0,0.9985139212963743,0
67,67.53611111111111,0.9805555555555543,0.9611111111111086,0.9972222222222253,0.9832869080779901,0.04238981037753465,0.9925449208959274,69.44444444444444,1.0416666666510415,0.963788300835649,0.0,0.9983651497030844,0
68,68.49722222222222,0.9611111111111086,0.9611111111111086,0.9972222222222253,0.963788300835649,0.040636401676676995,0.9514893727632252,66.66666666666667,0.999999999985,0.963788300835649,0.0,0.99910408583141,0
69,69.45833333333333,0.9611111111111086,0.9944444444444542,0.9972222222222253,0.963788300835649,0.04308308946297478,1.0087778464242203,69.44444444444444,1.0416666666510415,0.9972144846796724,0.0,0.9991597772905437,0
70,70.45277777777778,0.9944444444444542,0.9805555555555543,0.9972222222222253,0.9972144846796724,0.044418647757960776,1.0400495504125755,69.44444444444444,1.0416666666510415,0.9832869080779901,0.0,0.9992634640084463,0
71,71.43333333333334,0.9805555555555543,0.9777777777777743,0.9972222222222253,0.9832869080779901,0.04322576213662094,1.0121184850427214,69.44444444444444,1.0416666666510415,0.9805013927576536,0.0,0.998940439339564,0
72,72.41111111111111,0.9777777777777743,1.0166666666666657,0.9972222222222253,0.9805013927576536,0.041542813798684124,0.9727127455484327,69.44444444444444,1.0416666666510415,1.0194986072423358,0.0,0.9990359971981774,0
73,73.42777777777778,1.0166666666666657,0.9916666666666742,0.9972222222222253,1.0194986072423358,0.04162325535351582,0.9745962608547311,66.66666666666667,0.999999999985,0.994428969359336,0.0,0.9987288054059285,0
74,74.41944444444445,0.9916666666666742,0.9833333333333201,0.9972222222222253,0.994428969359336,0.041501370700646745,0.9717423676180564,63.888888888888886,0.9583333333189582,0.9860724233983124,0.0,0.9989632162820747,0
75,75.40277777777777,0.9833333333333201,1.0194444444444457,0.9972222222222253,0.9860724233983124,0.04115483116099746,0.963628246396349,66.66666666666667,0.999999999985,1.0222841225626722,0.0,0.9990693742857524,0
76,76.42222222222222,1.0194444444444457,1.00555555555556,0.9972222222222253,1.0222841225626722,0.04263305319547166,0.9982403798125291,66.66666666666667,0.999999999985,1.008356545961004,0.0,0.9985702997224988,0
77,77.42777777777778,1.00555555555556,1.0138888888888857,0.9972222222222253,1.008356545961004,0.04135941147843982,0.9684184342548043,66.66666666666667,0.999999999985,1.0167130919219993,0.0,0.9987851118320645,0
78,78.44166666666666,1.0138888888888857,1.0250000000000057,0.9972222222222253,1.0167130919219993,0.04361809243072507,1.0213047832888922,69.44444444444444,1.0416666666510415,1.027855153203345,0.0,0.9993384462882553,0
79,79.46666666666667,1.0250000000000057,1.00555555555556,0.9972222222222253,1.027855153203345,0.041032677702970095,0.9607680591660898,66.66666666666667,0.999999999985,1.008356545961004,0.0,0.9976376091325622,0
80,80.47222222222223,1.00555555555556,1.0305555555555515,0.9972222222222253,1.008356545961004,0.04217247514272514,0.9874560804052366,66.66666666666667,0.999999999985,1.0334261838440038,0.0,0.9993276107521691,0
81,81.50277777777778,1.0305555555555515,1.0388888888888914,0.9972222222222253,1.0334261838440038,0.04121663916037753,0.9650754624916571,69.44444444444444,1.0416666666510415,1.0417827298050133,0.0,0.9992917929730041,0
82,82.54166666666667,1.0388888888888914,1.0333333333333314,0.9972222222222253,1.0417827298050133,0.038469781173230334,0.9007585920153914,61.111111111111114,0.9166666666529166,1.0362116991643402,0.0,0.9964382884078347,0
83,83.575,1.0333333333333314,1.0277777777777715,0.9972222222222253,1.0362116991643402,0.038748336643765605,0.9072808862885945,63.888888888888886,0.9583333333189582,1.0306406685236673,0.0,0.9969825205210934,0
84,84.60277777777777,1.0277777777777715,1.0388888888888914,0.9972222222222253,1.0306406685236673,0.04241005335404264,0.9930189042267767,66.66666666666667,0.999999999985,1.0417827298050133,0.0,0.999374141891149,0
85,85.64166666666667,1.0388888888888914,1.0222222222222257,0.9972222222222253,1.0417827298050133,0.043273190098310495,1.0132289967922234,66.66666666666667,0.999999999985,1.0250696378830086,0.0,0.9993303581305099,0
86,86.66388888888889,1.0222222222222257,1.0583333333333371,0.9972222222222253,1.0250696378830086,0.044355489143188674,1.038570710055788,72.22222222222223,1.0833333333170834,1.0612813370473542,0.0,0.9988078804620837,0
87,87.72222222222223,1.0583333333333371,1.0249999999999915,0.9972222222222253,1.0612813370473542,0.043254085623480217,1.0127816711427267,66.66666666666667,0.999999999985,1.0278551532033309,0.0,0.9985308946807607,0
88,88.74722222222222,1.0249999999999915,1.0194444444444457,0.9972222222222253,1.0278551532033309,0.042565794901216675,0.9966655466685176,66.66666666666667,0.999999999985,1.0222841225626722,0.0,0.9991881779112953,0
89,89.76666666666667,1.0194444444444457,1.0361111111111114,0.9972222222222253,1.0222841225626722,0.04341588287109258,1.0165701060260708,66.66666666666667,0.999999999985,1.0389972144846766,0.0,0.9975458713951373,0
90,90.80277777777778,1.0361111111111114,1.0361111111111114,0.9972222222222253,1.0389972144846766,0.043775507683625293,1.0249906150570964,69.44444444444444,1.0416666666510415,1.0389972144846766,0.0,0.9991139148993027,0
91,91.83888888888889,1.0361111111111114,1.0,0.9972222222222253,1.0389972144846766,0.043255097468467674,1.0128053631949931,69.44444444444444,1.0416666666510415,1.0027855153203311,0.0,0.9975858814839103,0
92,92.83888888888889,1.0,1.0,0.9972222222222253,1.0027855153203311,0.044121197432139395,1.033084838669743,72.22222222222223,1.0833333333170834,1.0027855153203311,0.0,0.9976408435457504,0
93,93.83888888888889,1.0,1.0194444444444457,0.9972222222222253,1.0027855153203311,0.043001005213236104,1.0068558679006538,69.44444444444444,1.0416666666510415,1.0222841225626722,0.0,0.9991299590420546,0
94,94.85833333333333,1.0194444444444457,1.0277777777777715,0.9972222222222253,1.0222841225626722,0.04235414520960337,0.9917098314966634,66.66666666666667,0.999999999985,1.0306406685236673,0.0,0.9994093453883378,0
95,95.8861111111111,1.0277777777777715,1.0222222222222257,0.9972222222222253,1.0306406685236673,0.042819393059380456,1.0026034728255881,69.44444444444444,1.0416666666510415,1.0250696378830086,0.0,0.9993225452957504,0
96,96.90833333333333,1.0222222222222257,1.01111111111112,0.9972222222222253,1.0250696378830086,0.044118894997979295,1.033030927852239,72.22222222222223,1.0833333333170834,1.013927576601677,0.0,0.998085134632873,0
97,97.91944444444445,1.01111111111112,1.0333333333333314,0.9972222222222253,1.013927576601677,0.039914984983357944,0.9345976134364876,63.888888888888886,0.9583333333189582,1.0362116991643402,0.0,0.9971001724366252,0
98,98.95277777777778,1.0333333333333314,1.0249999999999915,0.9972222222222253,1.0362116991643402,0.04338319462002242,1.015804720258036,66.66666666666667,0.999999999985,1.0278551532033309,0.0,0.9995716041167595,0
99,99.97777777777777,1.0249999999999915,1.00833333333334,0.9972222222222253,1.0278551532033309,0.04307060202696195,1.0084854567890895,69.44444444444444,1.0416666666510415,1.0111420612813404,0.0,0.9974809522002717,0
100,100.98611111111111,1.00833333333334,1.0277777777777715,0.9972222222222253,1.0111420612813404,0.045204421496372854,1.0584482109889777,72.22222222222223,1.0833333333170834,1.0306406685236673,0.0,0.9981591416482263,0
101,102.01388888888889,1.0277777777777715,1.0166666666666657,0.9972222222222253,1.0306406685236673,0.04409827291515076,1.032548067858588,69.44444444444444,1.0416666666510415,1.0194986072423358,0.0,0.998760919609876,0
102,103.03055555555555,1.0166666666666657,1.0361111111111114,0.9972222222222253,1.0194986072423358,0.043863595943340966,1.0270531757053434,69.44444444444444,1.0416666666510415,1.0389972144846766,0.0,0.9988642591962684,0
103,104.06666666666666,1.0361111111111114,1.0444444444444514,0.9972222222222253,1.0389972144846766,0.04703583883079624,1.101330308293335,72.22222222222223,1.0833333333170834,1.0473537604456862,0.0,0.9980987078527694,0
104,105.11111111111111,1.0444444444444514,1.0249999999999915,0.9972222222222253,1.0473537604456862,0.03964810098928349,0.9283486033459067,63.888888888888886,0.9583333333189582,1.0278551532033309,0.0,0.9974734121716853,0
105,106.1361111111111,1.0249999999999915,1.0416666666666714,0.9972222222222253,1.0278551532033309,0.04024854456557371,0.942407812779108,66.66666666666667,0.999999999985,1.0445682451253497,0.0,0.9971502203638377,0
106,107.17777777777778,1.0416666666666714,1.0333333333333314,0.9972222222222253,1.0445682451253497,0.04164228173284187,0.9750417579210051,66.66666666666667,0.999999999985,1.0362116991643402,0.0,0.9986696785596333,0
107,108.21111111111111,1.0333333333333314,0.9916666666666742,0.9972222222222253,1.0362116991643402,0.04277418869403222,1.0015450259292913,66.66666666666667,0.999999999985,0.994428969359336,0.0,0.9987192794919473,0
108,109.20277777777778,0.9916666666666742,1.0055555555555458,0.9972222222222253,0.994428969359336,0.04022978469857,0.9419685560203402,63.888888888888886,0.9583333333189582,1.0083565459609898,0.0,0.9969804753905727,0
109,110.20833333333333,1.0055555555555458,0.9861111111111143,0.9972222222222253,1.0083565459609898,0.039821580471558066,0.9324105743119893,63.888888888888886,0.9583333333189582,0.988857938718663,0.0,0.9973177454375561,0
110,111.19444444444444,0.9861111111111143,0.9916666666666742,0.9972222222222253,0.988857938718663,0.04047997925199148,0.9478267877751566,63.888888888888886,0.9583333333189582,0.994428969359336,0.0,0.9979409078077679,0
111,112.18611111111112,0.9916666666666742,0.99166666666666,0.9972222222222253,0.994428969359336,0.04246823839725838,0.9943812898709102,69.44444444444444,1.0416666666510415,0.9944289693593217,0.0,0.9979341877950311,0
112,113.17777777777778,0.99166666666666,0.9666666666666686,0.9972222222222253,0.9944289693593217,0.04520970304866995,1.0585718769799373,72.22222222222223,1.0833333333170834,0.969359331476322,0.0,0.9979612091772321,0
113,114.14444444444445,0.9666666666666686,0.9666666666666686,0.9972222222222253,0.969359331476322,0.04248633919474324,0.9948051147110725,66.66666666666667,0.999999999985,0.969359331476322,0.0,0.9985119195621206,0
114,115.11111111111111,0.9666666666666686,1.0111111111111057,0.9972222222222253,0.969359331476322,0.044460748778257016,1.0410353333988027,69.44444444444444,1.0416666666510415,1.0139275766016627,0.0,0.9989209761654032,0
115,116.12222222222222,1.0111111111111057,0.99444444444444,0.9972222222222253,1.0139275766016627,0.03959422569649272,0.9270871292382142,63.888888888888886,0.9583333333189582,0.9972144846796582,0.0,0.9981130070199713,0
116,117.11666666666666,0.99444444444444,0.9694444444444485,0.9972222222222253,0.9972144846796582,0.04014258097322356,0.9399267064837431,63.888888888888886,0.9583333333189582,0.9721448467966585,0.0,0.9976118869580279,0
117,118.08611111111111,0.9694444444444485,0.9805555555555543,0.9972222222222253,0.9721448467966585,0.04203945402786643,0.9843414301921538,69.44444444444444,1.0416666666510415,0.9832869080779901,0.0,0.9976438625872539,0
118,119.06666666666666,0.9805555555555543,0.9666666666666686,0.9972222222222253,0.9832869080779901,0.044181966717806116,1.0345077335894841,69.44444444444444,1.0416666666510415,0.969359331476322,0.0,0.9984115908851845,0
119,120.03333333333333,0.9666666666666686,0.9916666666666742,0.9972222222222253,0.969359331476322,0.04410932855060151,1.0328069323054019,69.44444444444444,1.0416666666510415,0.994428969359336,0.0,0.9983168280732189,0
120,121.025,0.9916666666666742,0.9861111111111001,0.9972222222222253,0.994428969359336,0.04457565695959062,1.0437258746099165,69.44444444444444,1.0416666666510415,0.9888579387186488,0.0,0.9992219359947834,0
121,122.0111111111111,0.9861111111111001,0.9888888888888943,0.9972222222222253,0.9888579387186488,0.03872290423297097,0.9066853938828598,61.111111111111114,0.9166666666529166,0.9916434540389995,0.0,0.996880794497178,0
122,123.0,0.9888888888888943,1.00555555555556,0.9972222222222253,0.9916434540389995,0.037522484478213915,0.878577918998785,61.111111111111114,0.9166666666529166,1.008356545961004,0.0,0.9954099453570624,0
123,124.00555555555556,1.00555555555556,1.0166666666666657,0.9972222222222253,1.008356545961004,0.04088902935096006,0.9574045753261575,66.66666666666667,0.999999999985,1.0194986072423358,0.0,0.99877279271003,0
124,125.02222222222223,1.0166666666666657,1.0,0.9972222222222253,1.0194986072423358,0.041489648552755255,0.971467896978814,66.66666666666667,0.999999999985,1.0027855153203311,0.0,0.9978794130235603,0
125,126.02222222222223,1.0,0.9694444444444343,0.9972222222222253,1.0027855153203311,0.04349531237519228,1.0184299244626547,69.44444444444444,1.0416666666510415,0.9721448467966443,0.0,0.9983868876719579,0
126,126.99166666666666,0.9694444444444343,0.9861111111111143,0.9972222222222253,0.9721448467966443,0.043851987751935856,1.026781373323655,66.66666666666667,0.999999999985,0.988857938718663,0.0,0.9979642618023604,0
127,127.97777777777777,0.9861111111111143,0.9833333333333343,0.9972222222222253,0.988857938718663,0.04356638320593495,1.0200940270252572,66.66666666666667,0.999999999985,0.9860724233983266,0.0,0.9977448391854141,0
128,128.9611111111111,0.9833333333333343,0.9861111111111143,0.9972222222222253,0.9860724233983266,0.04323734427675691,1.0123896774416183,69.44444444444444,1.0416666666510415,0.988857938718663,0.0,0.999626595260068,0
129,129.94722222222222,0.9861111111111143,0.9638888888888744,0.9972222222222253,0.988857938718663,0.04345713902404997,1.0175361066924777,66.66666666666667,0.999999999985,0.9665738161559713,0.0,0.9986646716521961,0
130,130.9111111111111,0.9638888888888744,0.9583333333333428,0.9972222222222253,0.9665738161559713,0.0418731054167549,0.9804464264734218,63.888888888888886,0.9583333333189582,0.9610027855153268,0.0,0.9969469214869506,0
131,131.86944444444444,0.9583333333333428,0.9611111111111086,0.9972222222222253,0.9610027855153268,0.042225255243677755,0.9886919109187096,66.66666666666667,0.999999999985,0.963788300835649,0.0,0.9990723328835655,0
132,132.83055555555555,0.9611111111111086,0.9444444444444571,0.9972222222222253,0.963788300835649,0.045792013374725334,1.072206501701397,69.44444444444444,1.0416666666510415,0.9470752089136587,0.0,0.9985764908167416,0
133,133.775,0.9444444444444571,0.9277777777777771,0.9972222222222253,0.9470752089136587,0.03958853745438895,0.9269539407252523,61.111111111111114,0.9166666666529166,0.93036211699164,0.0,0.997252306721456,0
134,134.70277777777778,0.9277777777777771,0.9444444444444287,0.9972222222222253,0.93036211699164,0.04378512431432979,1.0252157856317432,69.44444444444444,1.0416666666510415,0.9470752089136303,0.0,0.9990355330028715,0
135,135.6472222222222,0.9444444444444287,0.9527777777777828,0.9972222222222253,0.9470752089136303,0.04439463286271254,1.0394872487157243,66.66666666666667,0.999999999985,0.9554317548746539,0.0,0.9985115868505489,0
136,136.6,0.9527777777777828,0.9527777777777828,0.9972222222222253,0.9554317548746539,0.038509530443190866,0.9016893094603922,63.888888888888886,0.9583333333189582,0.9554317548746539,0.0,0.9977404564404215,0
137,137.55277777777778,0.9527777777777828,0.9805555555555543,0.9972222222222253,0.9554317548746539,0.04130578153733811,0.9671627049846243,66.66666666666667,0.999999999985,0.9832869080779901,0.0,0.9985080159857447,0
138,138.53333333333333,0.9805555555555543,0.9611111111111086,0.9972222222222253,0.9832869080779901,0.04195861376254418,0.9824485791971892,66.66666666666667,0.999999999985,0.963788300835649,0.0,0.9988797131710785,0
139,139.49444444444444,0.9611111111111086,0.9722222222222285,0.9972222222222253,0.963788300835649,0.04199742342069395,0.983357295908474,66.66666666666667,0.999999999985,0.9749303621169949,0.0,0.9981833107014022,0
140,140.46666666666667,0.9722222222222285,0.9777777777777885,0.9972222222222253,0.9749303621169949,0.040003548499309656,0.936671302069479,63.888888888888886,0.9583333333189582,0.9805013927576679,0.0,0.9975183016947919,0
141,141.44444444444446,0.9777777777777885,0.9361111111111029,0.9972222222222253,0.9805013927576679,0.04509455810207107,1.055875791979894,69.44444444444444,1.0416666666510415,0.9387186629526351,0.0,0.9994989589536902,0
142,142.38055555555556,0.9361111111111029,0.9527777777777828,0.9972222222222253,0.9387186629526351,0.044737082371466855,1.047505603069051,69.44444444444444,1.0416666666510415,0.9554317548746539,0.0,0.9992896903151525,0
143,143.33333333333334,0.9527777777777828,0.9499999999999886,0.9972222222222253,0.9554317548746539,0.03713246423857385,0.8694457099972908,61.111111111111114,0.9166666666529166,0.9526462395543032,0.0,0.9957863421579776,0
144,144.28333333333333,0.9499999999999886,0.9305555555555713,0.9972222222222253,0.9526462395543032,0.0435943263993742,1.0207483086668765,66.66666666666667,0.999999999985,0.9331476323119906,0.0,0.9980318806276343,0
145,145.2138888888889,0.9305555555555713,0.9055555555555372,0.9972222222222253,0.9331476323119906,0.04278259242554471,1.0017417968267075,63.888888888888886,0.9583333333189582,0.9080779944289481,0.0,0.998515839295437,0
146,146.11944444444444,0.9055555555555372,0.9388888888888971,0.9972222222222253,0.9080779944289481,0.04366462151014281,1.022394247974833,66.66666666666667,0.999999999985,0.9415041782729858,0.0,0.9987676867853587,0
147,147.05833333333334,0.9388888888888971,0.9361111111111029,0.9972222222222253,0.9415041782729858,0.043467920087058,1.017788542106441,69.44444444444444,1.0416666666510415,0.9387186629526351,0.0,0.999311646329206,0
148,147.99444444444444,0.9361111111111029,0.9555555555555486,0.9972222222222253,0.9387186629526351,0.03938185895295406,0.9221146245067892,58.333333333333336,0.8749999999868749,0.9582172701949762,0.0,0.9977991805229178,0
149,148.95,0.9555555555555486,0.9972222222222342,0.9972222222222253,0.9582172701949762,0.04276442666634478,1.0013164509271264,69.44444444444444,1.0416666666510415,1.0000000000000089,0.0,0.9992753206836456,0
150,149.94722222222222,0.9972222222222342,0.9972222222222342,0.9972222222222253,1.0000000000000089,0.045608778296876214,1.0679161063391782,69.44444444444444,1.0416666666510415,1.0000000000000089,0.0,0.9988038668872132,0
151,150.94444444444446,0.9972222222222342,1.0,0.9972222222222253,1.0000000000000089,0.0427964986360645,1.0020674066489124,66.66666666666667,0.999999999985,1.0027855153203311,0.0,0.999467569107776,0
152,151.94444444444446,1.0,1.0194444444444457,0.9972222222222253,1.0027855153203311,0.04074519678513308,0.9540367781739755,66.66666666666667,0.999999999985,1.0222841225626722,0.0,0.9984272424760872,0
153,152.9638888888889,1.0194444444444457,0.9916666666666458,0.9972222222222253,1.0222841225626722,0.041412943264365294,0.9696718652504517,66.66666666666667,0.999999999985,0.9944289693593075,0.0,0.9989441454197705,0
154,153.95555555555555,0.9916666666666458,0.9861111111111143,0.9972222222222253,0.9944289693593075,0.04340819382008077,1.0163900691620151,69.44444444444444,1.0416666666510415,0.988857938718663,0.0,0.9985068236574222,0
155,154.94166666666666,0.9861111111111143,1.00555555555556,0.9972222222222253,0.988857938718663,0.041162202061680794,0.9638008338641983,66.66666666666667,0.999999999985,1.008356545961004,0.0,0.9986459475914833,0
156,155.94722222222222,1.00555555555556,0.9777777777777885,0.9972222222222253,1.008356545961004,0.037680564288422466,0.8822793111805685,58.333333333333336,0.8749999999868749,0.9805013927576679,0.0,0.9958686094124405,0
157,156.925,0.9777777777777885,0.9722222222222001,0.9972222222222253,0.9805013927576679,0.04293368453272937,1.005279574000938,66.66666666666667,0.999999999985,0.9749303621169664,0.0,0.9991406806583585,0
158,157.8972222222222,0.9722222222222001,0.9750000000000227,0.9972222222222253,0.9749303621169664,0.043482014268158724,1.0181185532044177,69.44444444444444,1.0416666666510415,0.9777158774373457,0.0,0.9991629213558684,0
159,158.87222222222223,0.9750000000000227,0.9666666666666686,0.9972222222222253,0.9777158774373457,0.04235416404359248,0.9917102724889693,66.66666666666667,0.999999999985,0.969359331476322,0.0,0.999471225090788,0
160,159.8388888888889,0.9666666666666686,0.9555555555555486,0.9972222222222253,0.969359331476322,0.04317386363613262,1.0109032969443785,69.44444444444444,1.0416666666510415,0.9582172701949762,0.0,0.9995997053626402,0
161,160.79444444444445,0.9555555555555486,0.9555555555555486,0.9972222222222253,0.9582172701949762,0.04390209169633479,1.027954542419886,66.66666666666667,0.999999999985,0.9582172701949762,0.0,0.9978232856059228,0
162,161.75,0.9555555555555486,0.9694444444444343,0.9972222222222253,0.9582172701949762,0.04382918271430315,1.0262474000864175,69.44444444444444,1.0416666666510415,0.9721448467966443,0.0,0.9993900864684437,0
163,162.71944444444443,0.9694444444444343,0.9694444444444628,0.9972222222222253,0.9721448467966443,0.04346711050347916,1.0177695859454658,66.66666666666667,0.999999999985,0.9721448467966727,0.0,0.9987106682437129,0
164,163.6888888888889,0.9694444444444628,0.9805555555555543,0.9972222222222253,0.9721448467966727,0.04435288269234991,1.0385096807773235,69.44444444444444,1.0416666666510415,0.9832869080779901,0.0,0.9989940002498156,0
165,164.66944444444445,0.9805555555555543,0.9555555555555486,0.9972222222222253,0.9832869080779901,0.040574452304483026,0.9500388464651316,63.888888888888886,0.9583333333189582,0.9582172701949762,0.0,0.9980076944026562,0
166,165.625,0.9555555555555486,0.9722222222222285,0.9972222222222253,0.9582172701949762,0.04292797965172539,1.0051459958930298,66.66666666666667,0.999999999985,0.9749303621169949,0.0,0.9995689455078152,0
167,166.59722222222223,0.9722222222222285,0.9722222222222285,0.9972222222222253,0.9749303621169949,0.04200309844090163,0.9834901748346345,66.66666666666667,0.999999999985,0.9749303621169949,0.0,0.9991095666689752,0
168,167.56944444444446,0.9722222222222285,0.9499999999999886,0.9972222222222253,0.9749303621169949,0.04243638234475823,0.9936353897872059,66.66666666666667,0.999999999985,0.9526462395543032,0.0,0.9985886319320958,0
169,168.51944444444445,0.9499999999999886,0.9472222222222229,0.9972222222222253,0.9526462395543032,0.043927135092801405,1.0285409261697434,66.66666666666667,0.999999999985,0.9498607242339809,0.0,0.9989954008010101,0
170,169.46666666666667,0.9472222222222229,0.9499999999999886,0.9972222222222253,0.9498607242339809,0.044986309455934195,1.0533411818233467,69.44444444444444,1.0416666666510415,0.9526462395543032,0.0,0.9991139421493326,0
171,170.41666666666666,0.9499999999999886,0.9527777777777828,0.9972222222222253,0.9526462395543032,0.04222967852439932,0.9887954807335964,69.44444444444444,1.0416666666510415,0.9554317548746539,0.0,0.9992883965270011,0
172,171.36944444444444,0.9527777777777828,0.9611111111111086,0.9972222222222253,0.9554317548746539,0.040847983941987194,0.9564435091680578,63.888888888888886,0.9583333333189582,0.963788300835649,0.0,0.9977668972868634,0
173,172.33055555555555,0.9611111111111086,0.9555555555555486,0.9972222222222253,0.963788300835649,0.04639425333094075,1.0863077728412884,69.44444444444444,1.0416666666510415,0.9582172701949762,0.0,0.9954896512074812,0
174,173.2861111111111,0.9555555555555486,0.9444444444444571,0.9972222222222253,0.9582172701949762,0.042037233640300896,0.9842894404714883,66.66666666666667,0.999999999985,0.9470752089136587,0.0,0.9992126603511549,0
175,174.23055555555555,0.9444444444444571,0.9361111111111029,0.9972222222222253,0.9470752089136587,0.040239051623962775,0.942185538348145,63.888888888888886,0.9583333333189582,0.9387186629526351,0.0,0.9979998441232445,0
176,175.16666666666666,0.9361111111111029,0.9222222222222456,0.9972222222222253,0.9387186629526351,0.04539530114874673,1.0629176018114117,72.22222222222223,1.0833333333170834,0.9247910863509955,0.0,0.9973159571148377,0
177,176.0888888888889,0.9222222222222456,0.9444444444444287,0.9972222222222253,0.9247910863509955,0.04307543718234872,1.0085986705279135,66.66666666666667,0.999999999985,0.9470752089136303,0.0,0.9993373374041283,0
178,177.03333333333333,0.9444444444444287,0.9083333333333314,0.9972222222222253,0.9470752089136303,0.04578750345496857,1.0721009032590272,69.44444444444444,1.0416666666510415,0.9108635097492989,0.0,0.9986224394310138,0
179,177.94166666666666,0.9083333333333314,0.9111111111111256,0.9972222222222253,0.9108635097492989,0.04450782135762147,1.042137523975867,72.22222222222223,1.0833333333170834,0.9136490250696496,0.0,0.9984482758455844,0
180,178.8527777777778,0.9111111111111256,0.9111111111110972,0.9972222222222253,0.9136490250696496,0.04180833595804972,0.9789298686805359,66.66666666666667,0.999999999985,0.9136490250696211,0.0,0.9992385634450933,0
181,179.76388888888889,0.9111111111110972,0.9305555555555713,0.9972222222222253,0.9136490250696211,0.043767657400311216,1.0248068029861863,69.44444444444444,1.0416666666510415,0.9331476323119906,0.0,0.9993032858257311,0
182,180.69444444444446,0.9305555555555713,0.9444444444444287,0.9972222222222253,0.9331476323119906,0.04760367747513525,1.1146260828511236,72.22222222222223,1.0833333333170834,0.9470752089136303,0.0,0.998303878765419,0
183,181.63888888888889,0.9444444444444287,0.9444444444444571,0.9972222222222253,0.9470752089136303,0.04254280489306977,0.9961272424011869,66.66666666666667,0.999999999985,0.9470752089136587,0.0,0.9993600408280543,0
184,182.58333333333334,0.9444444444444571,0.9638888888888744,0.9972222222222253,0.9470752089136587,0.04013856695585429,0.9398327194496712,63.888888888888886,0.9583333333189582,0.9665738161559713,0.0,0.9988241979278331,0
185,183.54722222222222,0.9638888888888744,0.9583333333333428,0.9972222222222253,0.9665738161559713,0.04588979864613599,1.0744961150215007,72.22222222222223,1.0833333333170834,0.9610027855153268,0.0,0.9976173107014568,0
186,184.50555555555556,0.9583333333333428,0.9638888888888744,0.9972222222222253,0.9610027855153268,0.04341753001021662,1.016608673303372,69.44444444444444,1.0416666666510415,0.9665738161559713,0.0,0.9995294695348818,0
187,185.46944444444443,0.9638888888888744,0.955555555555577,0.9972222222222253,0.9665738161559713,0.04228602586696219,0.9901148371583752,66.66666666666667,0.999999999985,0.9582172701950046,0.0,0.9992469446661649,0
188,186.425,0.955555555555577,0.9472222222222229,0.9972222222222253,0.9582172701950046,0.03981608227012944,0.9322818355454452,66.66666666666667,0.999999999985,0.9498607242339809,0.0,0.9984837344769002,0
189,187.37222222222223,0.9472222222222229,0.9499999999999886,0.9972222222222253,0.9498607242339809,0.04370420275853412,1.0233210312442937,69.44444444444444,1.0416666666510415,0.9526462395543032,0.0,0.9989597851115655,0
190,188.32222222222222,0.9499999999999886,0.9611111111111086,0.9972222222222253,0.9526462395543032,0.042186867231787856,0.9877930669303722,69.44444444444444,1.0416666666510415,0.963788300835649,0.0,0.9985727449444376,0
191,189.28333333333333,0.9611111111111086,0.9361111111111029,0.9972222222222253,0.963788300835649,0.03879287272467966,0.9083236855017583,63.888888888888886,0.9583333333189582,0.9387186629526351,0.0,0.9973534434448745,0
192,190.21944444444443,0.9361111111111029,0.9333333333333371,0.9972222222222253,0.9387186629526351,0.0445981407839953,1.0442523267340573,69.44444444444444,1.0416666666510415,0.9359331476323128,0.0,0.9991682561828588,0
193,191.15277777777777,0.9333333333333371,0.9777777777777885,0.9972222222222253,0.9359331476323128,0.04300588084134646,1.0069700292963764,69.44444444444444,1.0416666666510415,0.9805013927576679,0.0,0.999545665293969,0
194,192.13055555555556,0.9777777777777885,0.9722222222222285,0.9972222222222253,0.9805013927576679,0.04158654740387489,0.9737367550289651,66.66666666666667,0.999999999985,0.9749303621169949,0.0,0.9990164441858455,0
195,193.1027777777778,0.9722222222222285,0.9444444444444287,0.9972222222222253,0.9749303621169949,0.04554597948513838,1.066445690664431,72.22222222222223,1.0833333333170834,0.9470752089136303,0.0,0.9987771668087269,0
196,194.04722222222222,0.9444444444444287,0.9611111111111086,0.9972222222222253,0.9470752089136303,0.04163458917147951,0.9748616388631257,66.66666666666667,0.999999999985,0.963788300835649,0.0,0.9986545251650324,0
197,195.00833333333333,0.9611111111111086,0.9694444444444628,0.9972222222222253,0.963788300835649,0.04246048163695987,0.9941996676138555,66.66666666666667,0.999999999985,0.9721448467966727,0.0,0.9989747430962064,0
198,195.9777777777778,0.9694444444444628,1.0,0.9972222222222253,0.9721448467966727,0.03978294120127487,0.9315058471823997,63.888888888888886,0.9583333333189582,1.0027855153203311,0.0,0.9979292321178962,0
199,196.9777777777778,1.0,1.0194444444444457,0.9972222222222253,1.0027855153203311,0.041697334754185245,0.9763308081957689,66.66666666666667,0.999999999985,1.0222841225626722,0.0,0.9986017488612444,0
200,197.99722222222223,1.0194444444444457,0.9583333333333144,0.9972222222222253,1.0222841225626722,0.04293571536636788,1.0053271253722496,69.44444444444444,1.0416666666510415,0.9610027855152983,0.0,0.9982159351848984,0
201,198.95555555555555,0.9583333333333144,0.9861111111111143,0.9972222222222253,0.9610027855152983,0.04177826567338888,0.9782257818246572,69.44444444444444,1.0416666666510415,0.988857938718663,0.0,0.9990527077684075,0
202,199.94166666666666,0.9861111111111143,1.0333333333333314,0.9972222222222253,0.988857938718663,0.04202098796056916,0.9839090526669517,66.66666666666667,0.999999999985,1.0362116991643402,0.0,0.9989893322023891,0
203,200.975,1.0333333333333314,1.0138888888888857,0.9972222222222253,1.0362116991643402,0.043208345797558605,1.0117106865948642,66.66666666666667,0.999999999985,1.0167130919219993,0.0,0.9985458553308668,0
204,201.98888888888888,1.0138888888888857,1.0027777777777942,0.9972222222222253,1.0167130919219993,0.04273618363965934,1.0006551487783861,69.44444444444444,1.0416666666510415,1.0055710306406818,0.0,0.9988300870716817,0
205,202.99166666666667,1.0027777777777942,1.0416666666666572,0.9972222222222253,1.0055710306406818,0.04271148515135484,1.000076840951526,69.44444444444444,1.0416666666510415,1.0445682451253355,0.0,0.9987606604590245,0
206,204.03333333333333,1.0416666666666572,1.0333333333333314,0.9972222222222253,1.0445682451253355,0.04305917484383159,1.008217892662825,69.44444444444444,1.0416666666510415,1.0362116991643402,0.0,0.9989417836411175,0
207,205.06666666666666,1.0333333333333314,1.0472222222222172,0.9972222222222253,1.0362116991643402,0.04381626934726477,1.0259450374018133,69.44444444444444,1.0416666666510415,1.0501392757660084,0.0,0.9991802016229132,0
208,206.11388888888888,1.0472222222222172,1.0194444444444457,0.9972222222222253,1.0501392757660084,0.04457396002638663,1.0436861414189038,69.44444444444444,1.0416666666510415,1.0222841225626722,0.0,0.9978806484330554,0
209,207.13333333333333,1.0194444444444457,1.0,0.9972222222222253,1.0222841225626722,0.042519061964751734,0.9955713087298782,63.888888888888886,0.9583333333189582,1.0027855153203311,0.0,0.9992607390148189,0
210,208.13333333333333,1.0,1.0361111111111256,0.9972222222222253,1.0027855153203311,0.04365828737305701,1.0222459360211635,66.66666666666667,0.999999999985,1.038997214484691,0.0,0.9992359720326351,0
211,209.16944444444445,1.0361111111111256,1.0222222222222115,0.9972222222222253,1.038997214484691,0.04434882643888753,1.0384147047975754,66.66666666666667,0.999999999985,1.0250696378829944,0.0,0.998734959344929,0
212,210.19166666666666,1.0222222222222115,0.9861111111111143,0.9972222222222253,1.0250696378829944,0.04357504550477855,1.020296852200551,69.44444444444444,1.0416666666510415,0.988857938718663,0.0,0.9979335402458029,0
213,211.17777777777778,0.9861111111111143,1.0194444444444457,0.9972222222222253,0.988857938718663,0.044151689984227985,1.0337988127930322,69.44444444444444,1.0416666666510415,1.0222841225626722,0.0,0.9995134396574862,0
214,212.19722222222222,1.0194444444444457,1.0,0.9972222222222253,1.0222841225626722,0.04321750668834688,1.0119251861536451,66.66666666666667,0.999999999985,1.0027855153203311,0.0,0.9982022573910523,0
215,213.19722222222222,1.0,0.9972222222222342,0.9972222222222253,1.0027855153203311,0.04499771969275842,1.053608349156846,69.44444444444444,1.0416666666510415,1.0000000000000089,0.0,0.9981594865996668,0
216,214.19444444444446,0.9972222222222342,1.0055555555555316,0.9972222222222253,1.0000000000000089,0.043378123456655295,1.0156859804618859,69.44444444444444,1.0416666666510415,1.0083565459609756,0.0,0.9986557817754051,0
217,215.2,1.0055555555555316,0.9722222222222285,0.9972222222222253,1.0083565459609756,0.04327227397026206,1.0132075459238834,69.44444444444444,1.0416666666510415,0.9749303621169949,0.0,0.99849411567135,0
218,216.17222222222222,0.9722222222222285,0.9694444444444628,0.9972222222222253,0.9749303621169949,0.04142954645552641,0.9700606240797756,63.888888888888886,0.9583333333189582,0.9721448467966727,0.0,0.9982572536264982,0
219,217.14166666666668,0.9694444444444628,0.98888888888888,0.9972222222222253,0.9721448467966727,0.04325504148204791,1.0128040522894695,66.66666666666667,0.999999999985,0.9916434540389852,0.0,0.9980242618129583,0
220,218.13055555555556,0.98888888888888,0.9694444444444343,0.9972222222222253,0.9916434540389852,0.04198204432783765,0.9829971989803076,66.66666666666667,0.999999999985,0.9721448467966443,0.0,0.9983949347850369,0
221,219.1,0.9694444444444343,0.9555555555555486,0.9972222222222253,0.9721448467966443,0.0448507978971068,1.050168218598484,69.44444444444444,1.0416666666510415,0.9582172701949762,0.0,0.9982041169402294,0
222,220.05555555555554,0.9555555555555486,0.9722222222222285,0.9972222222222253,0.9582172701949762,0.04223136028031311,0.9888348585528305,66.66666666666667,0.999999999985,0.9749303621169949,0.0,0.9990165266403772,0
223,221.02777777777777,0.9722222222222285,0.9611111111111086,0.9972222222222253,0.9749303621169949,0.04254036098209624,0.9960700189457786,66.66666666666667,0.999999999985,0.963788300835649,0.0,0.9979494019658498,0
224,221.98888888888888,0.9611111111111086,0.9666666666666686,0.9972222222222253,0.963788300835649,0.03967479693816151,0.9289736811235942,61.111111111111114,0.9166666666529166,0.969359331476322,0.0,0.9969307928947504,0
225,222.95555555555555,0.9666666666666686,0.9749999999999943,0.9972222222222253,0.969359331476322,0.04240181591413469,0.992826026998287,69.44444444444444,1.0416666666510415,0.9777158774373171,0.0,0.9986277947561599,0
226,223.93055555555554,0.9749999999999943,0.9638888888889028,0.9972222222222253,0.9777158774373171,0.04175193362584388,0.9776092246894683,66.66666666666667,0.999999999985,0.9665738161559998,0.0,0.9986744564931236,0
227,224.89444444444445,0.9638888888889028,0.9722222222222285,0.9972222222222253,0.9665738161559998,0.041366169128588676,0.9685766626420677,69.44444444444444,1.0416666666510415,0.9749303621169949,0.0,0.9989445308891245,0
228,225.86666666666667,0.9722222222222285,0.9472222222222229,0.9972222222222253,0.9749303621169949,0.04178068177289453,0.978282354082739,63.888888888888886,0.9583333333189582,0.9498607242339809,0.0,0.99850877362028,0
229,226.8138888888889,0.9472222222222229,0.9638888888888744,0.9972222222222253,0.9498607242339809,0.045329860572932056,1.061385330009135,72.22222222222223,1.0833333333170834,0.9665738161559713,0.0,0.9985404098487374,0
230,227.77777777777777,0.9638888888888744,0.950000000000017,0.9972222222222253,0.9665738161559713,0.042921601049572274,1.0049966428029098,69.44444444444444,1.0416666666510415,0.9526462395543317,0.0,0.9991759109237502,0
231,228.7277777777778,0.950000000000017,0.9666666666666686,0.9972222222222253,0.9526462395543317,0.04254979819439065,0.9962909884912146,66.66666666666667,0.999999999985,0.969359331476322,0.0,0.9988079625753081,0
232,229.69444444444446,0.9666666666666686,0.9694444444444343,0.9972222222222253,0.969359331476322,0.04291116858025135,1.0047523696074256,63.888888888888886,0.9583333333189582,0.9721448467966443,0.0,0.997921205087465,0
233,230.6638888888889,0.9694444444444343,0.9722222222222285,0.9972222222222253,0.9721448467966443,0.04137730888562559,0.9688374967710371,66.66666666666667,0.999999999985,0.9749303621169949,0.0,0.9990237623634914,0
234,231.63611111111112,0.9722222222222285,0.9749999999999943,0.9972222222222253,0.9749303621169949,0.04520246876251996,1.0584024883011363,72.22222222222223,1.0833333333170834,0.9777158774373171,0.0,0.9964430914200708,0
235,232.61111111111111,0.9749999999999943,0.9555555555555486,0.9972222222222253,0.9777158774373171,0.03949915360106,0.9248610441342646,66.66666666666667,0.999999999985,0.9582172701949762,0.0,0.9973049827254983,0
236,233.56666666666666,0.9555555555555486,0.9861111111111143,0.9972222222222253,0.9582172701949762,0.044796545406121324,1.0488979125061944,66.66666666666667,0.999999999985,0.988857938718663,0.0,0.9988333408585546,0
237,234.55277777777778,0.9861111111111143,0.9611111111111086,0.9972222222222253,0.988857938718663,0.04557164971302514,1.0670467514873108,72.22222222222223,1.0833333333170834,0.963788300835649,0.0,0.9975489724935536,0
238,235.51388888888889,0.9611111111111086,0.9833333333333485,0.9972222222222253,0.963788300835649,0.043281196528790734,1.0134164650030244,69.44444444444444,1.0416666666510415,0.9860724233983408,0.0,0.9970849170006515,0
239,236.49722222222223,0.9833333333333485,0.9722222222222001,0.9972222222222253,0.9860724233983408,0.04243301972684174,0.9935566550794023,66.66666666666667,0.999999999985,0.9749303621169664,0.0,0.9984224834546183,0
240,237.46944444444443,0.9722222222222001,0.9527777777777828,0.9972222222222253,0.9749303621169664,0.04150798240085834,0.9718971786305394,63.888888888888886,0.9583333333189582,0.9554317548746539,0.0,0.9982151624815339,0
241,238.42222222222222,0.9527777777777828,0.9361111111111029,0.9972222222222253,0.9554317548746539,0.04310808644558741,1.009363143407361,66.66666666666667,0.999999999985,0.9387186629526351,0.0,0.9983591301944253,0
242,239.35833333333332,0.9361111111111029,0.9527777777777828,0.9972222222222253,0.9387186629526351,0.04446428512066865,1.0411181358144765,66.66666666666667,0.999999999985,0.9554317548746539,0.0,0.9985321177962798,0
243,240.3111111111111,0.9527777777777828,0.9444444444444571,0.9972222222222253,0.9554317548746539,0.04076701115747421,0.9545475552752856,61.111111111111114,0.9166666666529166,0.9470752089136587,0.0,0.9882613160797181,0
244,241.25555555555556,0.9444444444444571,0.9472222222222229,0.9972222222222253,0.9470752089136587,0.04544641472720977,1.0641144111917904,69.44444444444444,1.0416666666510415,0.9498607242339809,0.0,0.9986937595090571,0
245,242.20277777777778,0.9472222222222229,0.9583333333333144,0.9972222222222253,0.9498607242339809,0.041592156788569264,0.9738680971189193,66.66666666666667,0.999999999985,0.9610027855152983,0.0,0.9978081837245651,0
246,243.1611111111111,0.9583333333333144,0.9333333333333371,0.9972222222222253,0.9610027855152983,0.038146396162934644,0.8931866272765971,63.888888888888886,0.9583333333189582,0.9359331476323128,0.0,0.9974379984725399,0
247,244.09444444444443,0.9333333333333371,0.9527777777777828,0.9972222222222253,0.9359331476323128,0.04121754186335347,0.9650965990158799,69.44444444444444,1.0416666666510415,0.9554317548746539,0.0,0.9981196115356215,0
248,245.04722222222222,0.9527777777777828,0.9611111111111086,0.9972222222222253,0.9554317548746539,0.039311609337836416,0.9204697504660959,66.66666666666667,0.999999999985,0.963788300835649,0.0,0.9976902839441733,0
249,246.00833333333333,0.9611111111111086,0.9694444444444628,0.9972222222222253,0.963788300835649,0.039377706238623515,0.9220173899242324,63.888888888888886,0.9583333333189582,0.9721448467966727,0.0,0.9973393469174391,0
250,246.9777777777778,0.9694444444444628,0.9833333333333201,0.9972222222222253,0.9721448467966727,0.042926828144320056,1.0051190336863967,69.44444444444444,1.0416666666510415,0.9860724233983124,0.0,0.9990264841679717,0
251,247.9611111111111,0.9833333333333201,0.9972222222222342,0.9972222222222253,0.9860724233983124,0.04326295179901985,1.012989270030791,69.44444444444444,1.0416666666510415,1.0000000000000089,0.0,0.9977085474187815,0
252,248.95833333333334,0.9972222222222342,0.9833333333333201,0.9972222222222253,1.0000000000000089,0.04380405454416815,1.0256590313860912,69.44444444444444,1.0416666666510415,0.9860724233983124,0.0,0.9981870534535767,0
253,249.94166666666666,0.9833333333333201,1.00555555555556,0.9972222222222253,0.9860724233983124,0.04004601478479457,0.9376656376324828,63.888888888888886,0.9583333333189582,1.008356545961004,0.0,0.992138620295905,0
254,250.94722222222222,1.00555555555556,1.0222222222222115,0.9972222222222253,1.008356545961004,0.040207368174946356,0.9414436797241589,66.66666666666667,0.999999999985,1.0250696378829944,0.0,0.9987299814347814,0
255,251.96944444444443,1.0222222222222115,0.9972222222222342,0.9972222222222253,1.0250696378829944,0.038996983987253,0.9131028905786508,61.111111111111114,0.9166666666529166,1.0000000000000089,0.0,0.9888537971527449,0
256,252.96666666666667,0.9972222222222342,0.9638888888888744,0.9972222222222253,1.0000000000000089,0.040793047673380135,0.9551571926242166,63.888888888888886,0.9583333333189582,0.9665738161559713,0.0,0.9973974317874945,0
257,253.93055555555554,0.9638888888888744,0.9888888888889085,0.9972222222222253,0.9665738161559713,0.03732207308521272,0.8738853452778506,61.111111111111114,0.9166666666529166,0.9916434540390138,0.0,0.9950064185802592,0
258,254.91944444444445,0.9888888888889085,0.9722222222222285,0.9972222222222253,0.9916434540390138,0.039100700972058165,0.9155313932202565,63.888888888888886,0.9583333333189582,0.9749303621169949,0.0,0.9966300366092405,0
259,255.89166666666668,0.9722222222222285,0.9555555555555486,0.9972222222222253,0.9749303621169949,0.04252556035037726,0.9957234665147136,66.66666666666667,0.999999999985,0.9582172701949762,0.0,0.9974441904785726,0
260,256.84722222222223,0.9555555555555486,0.9666666666666401,0.9972222222222253,0.9582172701949762,0.042282386950111696,0.9900296329924365,66.66666666666667,0.999999999985,0.9693593314762935,0.0,0.9983427549709604,0
261,257.81388888888887,0.9666666666666401,0.966666666666697,0.9972222222222253,0.9693593314762935,0.0399079009626269,0.9344317431781991,66.66666666666667,0.999999999985,0.9693593314763504,0.0,0.9962214704443011,0
262,258.78055555555557,0.966666666666697,0.9722222222222285,0.9972222222222253,0.9693593314763504,0.041332093310608456,0.9677787874036456,63.888888888888886,0.9583333333189582,0.9749303621169949,0.0,0.9967744017333062,0
263,259.7527777777778,0.9722222222222285,0.9916666666666742,0.9972222222222253,0.9749303621169949,0.043185871617604,1.0111844602926805,69.44444444444444,1.0416666666510415,0.994428969359336,0.0,0.9988361990178194,0
264,260.74444444444447,0.9916666666666742,0.9777777777777601,0.9972222222222253,0.994428969359336,0.04428680893211344,1.0369625831483622,69.44444444444444,1.0416666666510415,0.9805013927576394,0.0,0.9971154636126122,0
265,261.72222222222223,0.9777777777777601,0.9666666666666401,0.9972222222222253,0.9805013927576394,0.04349000057448343,1.0183055502140457,66.66666666666667,0.999999999985,0.9693593314762935,0.0,0.9987510347542305,0
266,262.68888888888887,0.9666666666666401,0.9805555555555543,0.9972222222222253,0.9693593314762935,0.041113666579490095,0.9626643898484651,66.66666666666667,0.999999999985,0.9832869080779901,0.0,0.9968455620658658,0
267,263.6694444444444,0.9805555555555543,0.9972222222222626,0.9972222222222253,0.9832869080779901,0.04019868404325645,0.9412403433392014,63.888888888888886,0.9583333333189582,1.0000000000000373,0.0,0.9969650977845848,0
268,264.6666666666667,0.9972222222222626,1.0166666666666515,0.9972222222222253,1.0000000000000373,0.03903411656110648,0.9139723388552488,63.888888888888886,0.9583333333189582,1.0194986072423216,0.0,0.9966679901023753,0
269,265.68333333333334,1.0166666666666515,1.0055555555555316,0.9972222222222253,1.0194986072423216,0.04079315915397374,0.9551598029094709,66.66666666666667,0.999999999985,1.0083565459609756,0.0,0.9970999066676234,0
270,266.68888888888887,1.0055555555555316,0.9805555555555543,0.9972222222222253,1.0083565459609756,0.04201909154071193,0.9838646485547271,66.66666666666667,0.999999999985,0.9832869080779901,0.0,0.9988436598761561,0
271,267.6694444444444,0.9805555555555543,1.0277777777777715,0.9972222222222253,0.9832869080779901,0.04164445506798911,0.9750926459231591,69.44444444444444,1.0416666666510415,1.0306406685236673,0.0,0.9986964672087926,0
272,268.6972222222222,1.0277777777777715,1.025000000000034,0.9972222222222253,1.0306406685236673,0.04223550830190043,0.9889319832561873,69.44444444444444,1.0416666666510415,1.0278551532033735,0.0,0.9980964349637764,0
273,269.72222222222223,1.025000000000034,1.01111111111112,0.9972222222222253,1.0278551532033735,0.04207812410378958,0.9852468786267268,69.44444444444444,1.0416666666510415,1.013927576601677,0.0,0.9981596509269719,0
274,270.73333333333335,1.01111111111112,1.0361111111110972,0.9972222222222253,1.013927576601677,0.03822068965158539,0.894926187424642,61.111111111111114,0.9166666666529166,1.0389972144846624,0.0,0.9954091512732095,0
275,271.76944444444445,1.0361111111110972,1.0083333333333258,0.9972222222222253,1.0389972144846624,0.04603710507903985,1.0779452517478003,72.22222222222223,1.0833333333170834,1.0111420612813262,0.0,0.9964040602073232,0
276,272.77777777777777,1.0083333333333258,1.0194444444444457,0.9972222222222253,1.0111420612813262,0.04128840817513424,0.9667559128272459,66.66666666666667,0.999999999985,1.0222841225626722,0.0,0.9964708886558851,0
277,273.7972222222222,1.0194444444444457,1.0333333333333599,0.9972222222222253,1.0222841225626722,0.04318282208327083,1.011113056344738,69.44444444444444,1.0416666666510415,1.0362116991643688,0.0,0.9985334104465151,0
278,274.8305555555556,1.0333333333333599,1.0,0.9972222222222253,1.0362116991643688,0.04276947619027886,1.0014346840423274,69.44444444444444,1.0416666666510415,1.0027855153203311,0.0,0.9984134884089144,0
279,275.8305555555556,1.0,1.0138888888888573,0.9972222222222253,1.0027855153203311,0.0429908899867691,1.0066190228531267,69.44444444444444,1.0416666666510415,1.0167130919219707,0.0,0.9986860447876118,0
280,276.84444444444443,1.0138888888888573,1.0194444444444457,0.9972222222222253,1.0167130919219707,0.044864208598823216,1.050482226228047,72.22222222222223,1.0833333333170834,1.0222841225626722,0.0,0.9984469655307805,0
281,277.8638888888889,1.0194444444444457,1.0083333333333258,0.9972222222222253,1.0222841225626722,0.043338978661261456,1.0147694166107708,69.44444444444444,1.0416666666510415,1.0111420612813262,0.0,0.9987085208322728,0
282,278.8722222222222,1.0083333333333258,1.0055555555555884,0.9972222222222253,1.0111420612813262,0.04360398305709514,1.0209744164623205,69.44444444444444,1.0416666666510415,1.0083565459610326,0.0,0.9991359031133403,0
283,279.8777777777778,1.0055555555555884,1.0166666666666515,0.9972222222222253,1.0083565459610326,0.04301596364158808,1.0072061150933895,69.44444444444444,1.0416666666510415,1.0194986072423216,0.0,0.9985207006174794,0
284,280.89444444444445,1.0166666666666515,1.0138888888889142,0.9972222222222253,1.0194986072423216,0.0423529592641134,0.9916820629324248,66.66666666666667,0.999999999985,1.0167130919220277,0.0,0.998729518181027,0
285,281.90833333333336,1.0138888888889142,1.0361111111110972,0.9972222222222253,1.0167130919220277,0.04289003186774503,1.0042574597114922,66.66666666666667,0.999999999985,1.0389972144846624,0.0,0.9991356909323492,0
286,282.94444444444446,1.0361111111110972,1.0249999999999773,0.9972222222222253,1.0389972144846624,0.045217161836849144,1.0587465223076085,69.44444444444444,1.0416666666510415,1.0278551532033167,0.0,0.9990136836711808,0
287,283.96944444444443,1.0249999999999773,1.0361111111110972,0.9972222222222253,1.0278551532033167,0.04350230558677324,1.0185936684514485,69.44444444444444,1.0416666666510415,1.0389972144846624,0.0,0.9984448761128217,0
288,285.00555555555553,1.0361111111110972,1.0583333333333371,0.9972222222222253,1.0389972144846624,0.041669261088050746,0.975673471574431,66.66666666666667,0.999999999985,1.0612813370473542,0.0,0.9981753606272978,0
289,286.06388888888887,1.0583333333333371,1.0444444444444798,0.9972222222222253,1.0612813370473542,0.03861519613016569,0.9041634403891642,61.111111111111114,0.9166666666529166,1.0473537604457146,0.0,0.9978738262428309,0
290,287.10833333333335,1.0444444444444798,1.0277777777777715,0.9972222222222253,1.0473537604457146,0.04262896310732091,0.9981446116035212,66.66666666666667,0.999999999985,1.0306406685236673,0.0,0.9991616985296667,0
291,288.1361111111111,1.0277777777777715,1.0361111111110972,0.9972222222222253,1.0306406685236673,0.04288899034271182,1.0042330727096986,69.44444444444444,1.0416666666510415,1.0389972144846624,0.0,0.9962315538554246,0
292,289.1722222222222,1.0361111111110972,1.0333333333333599,0.9972222222222253,1.0389972144846624,0.04246641381123555,0.9943385677267542,69.44444444444444,1.0416666666510415,1.0362116991643688,0.0,0.9994354687551137,0
293,290.2055555555556,1.0333333333333599,1.022222222222183,0.9972222222222253,1.0362116991643688,0.0401529826394752,0.9401702584344352,66.66666666666667,0.999999999985,1.0250696378829658,0.0,0.9978177317152834,0
294,291.22777777777776,1.022222222222183,1.0,0.9972222222222253,1.0250696378829658,0.0425513908970924,0.9963282811557261,69.44444444444444,1.0416666666510415,1.0027855153203311,0.0,0.9982549558126644,0
295,292.22777777777776,1.0,1.01111111111112,0.9972222222222253,1.0027855153203311,0.04163002009585509,0.9747546553035434,63.888888888888886,0.9583333333189582,1.013927576601677,0.0,0.9983031938408191,0
296,293.2388888888889,1.01111111111112,1.0277777777777715,0.9972222222222253,1.013927576601677,0.041953409329707154,0.9823267189356658,66.66666666666667,0.999999999985,1.0306406685236673,0.0,0.9992043669310025,0
297,294.26666666666665,1.0277777777777715,0.98888888888888,0.9972222222222253,1.0306406685236673,0.04113019785902885,0.9630514648883383,66.66666666666667,0.999999999985,0.9916434540389852,0.0,0.99780945240842,0
298,295.25555555555553,0.98888888888888,0.9888888888889369,0.9972222222222253,0.9916434540389852,0.0443255586719332,1.0378698968896032,69.44444444444444,1.0416666666510415,0.9916434540390422,0.0,0.9985318633700411,0
299,296.24444444444447,0.9888888888889369,1.0027777777777374,0.9972222222222253,0.9916434540390422,0.040766228769507216,0.9545292358915494,63.888888888888886,0.9583333333189582,1.005571030640625,0.0,0.9984260392658246,0
300,297.2472222222222,1.0027777777777374,0.9972222222222626,0.9972222222222253,1.005571030640625,0.04115242834820245,0.9635719852426823,63.888888888888886,0.9583333333189582,1.0000000000000373,0.0,0.9986883318597564,0
301,298.24444444444447,0.9972222222222626,0.9944444444444116,0.9972222222222253,1.0000000000000373,0.041243643358419686,0.9657077578327048,66.66666666666667,0.999999999985,0.9972144846796297,0.0,0.9994285376790819,0
302,299.2388888888889,0.9944444444444116,1.0,0.9972222222222253,0.9972144846796297,0.040311023770922036,0.9438707449644088,63.888888888888886,0.9583333333189582,1.0027855153203311,0.0,0.9976436509102281,0
303,300.2388888888889,1.0,0.98888888888888,0.9972222222222253,1.0027855153203311,0.04262925223599268,0.9981513814661863,66.66666666666667,0.999999999985,0.9916434540389852,0.0,0.9983333221199888,0
304,301.22777777777776,0.98888888888888,0.9805555555555543,0.9972222222222253,0.9916434540389852,0.041714356547428326,0.9767293684695113,66.66666666666667,0.999999999985,0.9832869080779901,0.0,0.9978991572786441,0
305,302.2083333333333,0.9805555555555543,0.9944444444444684,0.9972222222222253,0.9832869080779901,0.04148205502997206,0.9712900968800865,66.66666666666667,0.999999999985,0.9972144846796867,0.0,0.9979340654841806,0
306,303.2027777777778,0.9944444444444684,0.9944444444444116,0.9972222222222253,0.9972144846796867,0.042357320843296235,0.991784188023961,61.111111111111114,0.9166666666529166,0.9972144846796297,0.0,0.9982636679781949,0
307,304.1972222222222,0.9944444444444116,0.9833333333333485,0.9972222222222253,0.9972144846796297,0.04353442508697982,1.0193457370855807,69.44444444444444,1.0416666666510415,0.9860724233983408,0.0,0.9988986584913611,0
308,305.18055555555554,0.9833333333333485,1.0055555555555884,0.9972222222222253,0.9860724233983408,0.04247861205881204,0.99462418609985,66.66666666666667,0.999999999985,1.0083565459610326,0.0,0.9994519269357542,0
309,306.18611111111113,1.0055555555555884,1.0027777777777374,0.9972222222222253,1.0083565459610326,0.04115050515785021,0.9635269543072044,63.888888888888886,0.9583333333189582,1.005571030640625,0.0,0.9983234395574752,0
310,307.18888888888887,1.0027777777777374,1.0305555555555657,0.9972222222222253,1.005571030640625,0.041380991251491576,0.9689237182828725,63.888888888888886,0.9583333333189582,1.033426183844018,0.0,0.9987954315280985,0
311,308.21944444444443,1.0305555555555657,1.01111111111112,0.9972222222222253,1.033426183844018,0.0395266580674613,0.9255050531115501,61.111111111111114,0.9166666666529166,1.013927576601677,0.0,0.9979775067416208,0
312,309.23055555555555,1.01111111111112,0.9972222222222058,0.9972222222222253,1.013927576601677,0.041142470273802745,0.96333881986451,66.66666666666667,0.999999999985,0.9999999999999805,0.0,0.998250597897202,0
313,310.22777777777776,0.9972222222222058,1.0416666666666856,0.9972222222222253,0.9999999999999805,0.04120252340960021,0.964744946346058,63.888888888888886,0.9583333333189582,1.044568245125364,0.0,0.998961043406682,0
314,311.26944444444445,1.0416666666666856,1.0166666666666515,0.9972222222222253,1.044568245125364,0.03915520804971419,0.9168076603844294,61.111111111111114,0.9166666666529166,1.0194986072423216,0.0,0.9965730583481233,0
315,312.2861111111111,1.0166666666666515,1.0138888888889142,0.9972222222222253,1.0194986072423216,0.037260267367095014,0.8724381825976285,61.111111111111114,0.9166666666529166,1.0167130919220277,0.0,0.9962227442960783,0
316,313.3,1.0138888888889142,1.0166666666666515,0.9972222222222253,1.0167130919220277,0.04094194756946903,0.9586436398215196,63.888888888888886,0.9583333333189582,1.0194986072423216,0.0,0.9978991937710231,0
317,314.31666666666666,1.0166666666666515,1.0249999999999773,0.9972222222222253,1.0194986072423216,0.03903332580673247,0.9139538235745573,63.888888888888886,0.9583333333189582,1.0278551532033167,0.0,0.997459750389101,0
318,315.34166666666664,1.0249999999999773,1.0305555555555657,0.9972222222222253,1.0278551532033167,0.040948383511513316,0.9587943355082977,63.888888888888886,0.9583333333189582,1.033426183844018,0.0,0.9979652730392021,0
319,316.3722222222222,1.0305555555555657,1.02222222222224,0.9972222222222253,1.033426183844018,0.043305838054469886,1.0139934390667944,66.66666666666667,0.999999999985,1.0250696378830229,0.0,0.9985154948229599,0
320,317.39444444444445,1.02222222222224,1.0055555555555316,0.9972222222222253,1.0250696378830229,0.04017264111775756,0.9406305559115393,63.888888888888886,0.9583333333189582,1.0083565459609756,0.0,0.9926837142053109,0
321,318.4,1.0055555555555316,1.0305555555555657,0.9972222222222253,1.0083565459609756,0.041750954315207464,0.9775862944194459,66.66666666666667,0.999999999985,1.033426183844018,0.0,0.9985198247014836,0
322,319.43055555555554,1.0305555555555657,1.0083333333333258,0.9972222222222253,1.033426183844018,0.04336945707037652,1.0154830595805016,69.44444444444444,1.0416666666510415,1.0111420612813262,0.0,0.9992854492360048,0
323,320.43888888888887,1.0083333333333258,0.9833333333333485,0.9972222222222253,1.0111420612813262,0.042804100472149324,1.0022454014011484,66.66666666666667,0.999999999985,0.9860724233983408,0.0,0.9984841832642026,0
324,321.4222222222222,0.9833333333333485,1.01111111111112,0.9972222222222253,0.9860724233983408,0.038289038629793166,0.8965265586120656,63.888888888888886,0.9583333333189582,1.013927576601677,0.0,0.9975567299824197,0
325,322.43333333333334,1.01111111111112,0.9722222222222285,0.9972222222222253,1.013927576601677,0.039895303113653025,0.934136768256116,61.111111111111114,0.9166666666529166,0.9749303621169949,0.0,0.9951794185942756,0
326,323.40555555555557,0.9722222222222285,0.9694444444444343,0.9972222222222253,0.9749303621169949,0.04331813387267191,1.0142813420273404,66.66666666666667,0.999999999985,0.9721448467966443,0.0,0.9992418270317038,0
327,324.375,0.9694444444444343,1.0,0.9972222222222253,0.9721448467966443,0.04348259447741903,1.0181321386333035,66.66666666666667,0.999999999985,1.0027855153203311,0.0,0.9993259292167125,0
328,325.375,1.0,0.9527777777777828,0.9972222222222253,1.0027855153203311,0.042000249406118746,0.9834234655245899,66.66666666666667,0.999999999985,0.9554317548746539,0.0,0.9988855920076418,0
329,326.3277777777778,0.9527777777777828,0.9611111111111086,0.9972222222222253,0.9554317548746539,0.03901335812250415,0.9134862861313283,63.888888888888886,0.9583333333189582,0.963788300835649,0.0,0.9978776890986774,0
330,327.2888888888889,0.9611111111111086,0.9833333333333485,0.9972222222222253,0.963788300835649,0.04054274987553984,0.9492965434317521,63.888888888888886,0.9583333333189582,0.9860724233983408,0.0,0.9984805483603143,0
331,328.27222222222224,0.9833333333333485,0.9555555555555202,0.9972222222222253,0.9860724233983408,0.04415784213938342,1.0339428636934185,69.44444444444444,1.0416666666510415,0.9582172701949476,0.0,0.9994264884576878,0
332,329.22777777777776,0.9555555555555202,0.9777777777778169,0.9972222222222253,0.9582172701949476,0.04357654010584602,1.0203318478441994,69.44444444444444,1.0416666666510415,0.9805013927576963,0.0,0.9984564741188618,0
333,330.2055555555556,0.9777777777778169,0.9944444444444116,0.9972222222222253,0.9805013927576963,0.042352411251249424,0.9916692313726729,66.66666666666667,0.999999999985,0.9972144846796297,0.0,0.9989557409491171,0
334,331.2,0.9944444444444116,1.0277777777777715,0.9972222222222253,0.9972144846796297,0.039961496991952186,0.9356866784141255,66.66666666666667,0.999999999985,1.0306406685236673,0.0,0.9980898071272731,0
335,332.22777777777776,1.0277777777777715,1.0416666666666856,0.9972222222222253,1.0306406685236673,0.04138190234767145,0.9689450513314927,66.66666666666667,0.999999999985,1.044568245125364,0.0,0.9994592062614376,0
336,333.26944444444445,1.0416666666666856,1.0194444444444457,0.9972222222222253,1.044568245125364,0.043966774130560764,1.0294690625602307,69.44444444444444,1.0416666666510415,1.0222841225626722,0.0,0.9972458344530604,0
337,334.2888888888889,1.0194444444444457,1.02222222222224,0.9972222222222253,1.0222841225626722,0.04355800681097348,1.019897896205129,69.44444444444444,1.0416666666510415,1.0250696378830229,0.0,0.9994393624125224,0
338,335.31111111111113,1.02222222222224,1.0499999999999545,0.9972222222222253,1.0250696378830229,0.04307025759694763,1.0084773920617818,69.44444444444444,1.0416666666510415,1.052924791086302,0.0,0.9990476062579838,0
339,336.3611111111111,1.0499999999999545,1.0305555555555657,0.9972222222222253,1.052924791086302,0.04314558009239614,1.0102410461008253,69.44444444444444,1.0416666666510415,1.033426183844018,0.0,0.9983886524266137,0
340,337.39166666666665,1.0305555555555657,1.02222222222224,0.9972222222222253,1.033426183844018,0.0427803639646517,1.0016896180714578,69.44444444444444,1.0416666666510415,1.0250696378830229,0.0,0.9984629408492233,0
341,338.4138888888889,1.02222222222224,1.02222222222224,0.9972222222222253,1.0250696378830229,0.042084915315441576,0.9854058928466981,69.44444444444444,1.0416666666510415,1.0250696378830229,0.0,0.9995942562120274,0
342,339.43611111111113,1.02222222222224,1.0138888888888573,0.9972222222222253,1.0250696378830229,0.043160250390925074,1.010584546818645,69.44444444444444,1.0416666666510415,1.0167130919219707,0.0,0.9995623164057155,0
343,340.45,1.0138888888888573,1.0,0.9972222222222253,1.0167130919219707,0.04268203883474997,0.9993873641238413,69.44444444444444,1.0416666666510415,1.0027855153203311,0.0,0.9993634617660659,0
344,341.45,1.0,1.0166666666666515,0.9972222222222253,1.0027855153203311,0.04367168878333271,1.0225597260943797,69.44444444444444,1.0416666666510415,1.0194986072423216,0.0,0.9980587986252378,0
345,342.46666666666664,1.0166666666666515,0.9916666666666742,0.9972222222222253,1.0194986072423216,0.04240515183758499,0.9929041366630298,72.22222222222223,1.0833333333170834,0.994428969359336,0.0,0.9987444372596802,0
346,343.4583333333333,0.9916666666666742,1.0138888888889142,0.9972222222222253,0.994428969359336,0.04325658881034781,1.01284028252573,66.66666666666667,0.999999999985,1.0167130919220277,0.0,0.9984114317087542,0
347,344.47222222222223,1.0138888888889142,1.0361111111110972,0.9972222222222253,1.0167130919220277,0.04283368706718582,1.00293816280698,72.22222222222223,1.0833333333170834,1.0389972144846624,0.0,0.9981959300461993,0
348,345.5083333333333,1.0361111111110972,1.0,0.9972222222222253,1.0389972144846624,0.044556452630481164,1.0432762109018923,72.22222222222223,1.0833333333170834,1.0027855153203311,0.0,0.9984844527698068,0
349,346.5083333333333,1.0,0.9722222222222285,0.9972222222222253,1.0027855153203311,0.04311300168871058,1.0094782323769371,66.66666666666667,0.999999999985,0.9749303621169949,0.0,0.9956166252620222,0
350,347.48055555555555,0.9722222222222285,0.9944444444444684,0.9972222222222253,0.9749303621169949,0.04236747533560175,0.9920219524695282,66.66666666666667,0.999999999985,0.9972144846796867,0.0,0.997244794644973,0
351,348.475,0.9944444444444684,0.9722222222221717,0.9972222222222253,0.9972144846796867,0.03924030133035641,0.9188000944800668,63.888888888888886,0.9583333333189582,0.974930362116938,0.0,0.9974655053780606,0
352,349.4472222222222,0.9722222222221717,1.0,0.9972222222222253,0.974930362116938,0.042054523380373396,0.9846942746412978,66.66666666666667,0.999999999985,1.0027855153203311,0.0,0.9988179304167856,0
353,350.4472222222222,1.0,1.0,0.9972222222222253,1.0027855153203311,0.04515637914470813,1.0573233134792217,72.22222222222223,1.0833333333170834,1.0027855153203311,0.0,0.9987048149843074,0
354,351.4472222222222,1.0,0.9972222222222626,0.9972222222222253,1.0027855153203311,0.04404260868881286,1.0312447063989536,69.44444444444444,1.0416666666510415,1.0000000000000373,0.0,0.9992513818949429,0
355,352.44444444444446,0.9972222222222626,1.0388888888888914,0.9972222222222253,1.0000000000000373,0.04088286106473943,0.9572601467216322,63.888888888888886,0.9583333333189582,1.0417827298050133,0.0,0.9988488563333208,0
356,353.48333333333335,1.0388888888888914,1.0249999999999773,0.9972222222222253,1.0417827298050133,0.043157497409044156,1.0105200865590003,69.44444444444444,1.0416666666510415,1.0278551532033167,0.0,0.9981896062420514,0
357,354.5083333333333,1.0249999999999773,1.0277777777777715,0.9972222222222253,1.0278551532033167,0.04235596970117175,0.9917525514291964,69.44444444444444,1.0416666666510415,1.0306406685236673,0.0,0.9986167640660515,0
358,355.5361111111111,1.0277777777777715,1.0361111111110972,0.9972222222222253,1.0306406685236673,0.043480725636612046,1.0180883802764151,69.44444444444444,1.0416666666510415,1.0389972144846624,0.0,0.9991730373584911,0
359,356.5722222222222,1.0361111111110972,1.0,0.9972222222222253,1.0389972144846624,0.040970280325751306,0.9593070429623334,63.888888888888886,0.9583333333189582,1.0027855153203311,0.0,0.9963164275174852,0
360,357.5722222222222,1.0,1.036111111111154,0.9972222222222253,1.0027855153203311,0.04400584457772754,1.030383885569514,63.888888888888886,0.9583333333189582,1.0389972144847195,0.0,0.9986344002863246,0
361,358.60833333333335,1.036111111111154,1.055555555555543,0.9972222222222253,1.0389972144847195,0.042873036079971304,1.0038595083481527,63.888888888888886,0.9583333333189582,1.0584958217270035,0.0,0.9986484255388111,0
362,359.6638888888889,1.055555555555543,1.044444444444423,0.9972222222222253,1.0584958217270035,0.03836607977193895,0.8983304542571695,61.111111111111114,0.9166666666529166,1.0473537604456575,0.0,0.9951350155806836,0
363,360.7083333333333,1.044444444444423,1.0194444444444457,0.9972222222222253,1.0473537604456575,0.04298762882582354,1.0065426637304056,72.22222222222223,1.0833333333170834,1.0222841225626722,0.0,0.9982959167470365,0
364,361.72777777777776,1.0194444444444457,1.0472222222222172,0.9972222222222253,1.0222841225626722,0.04345391928710311,1.0174607175004817,66.66666666666667,0.999999999985,1.0501392757660084,0.0,0.9983579993318015,0
365,362.775,1.0472222222222172,1.036111111111154,0.9972222222222253,1.0501392757660084,0.04057120251909463,0.94996275369773,66.66666666666667,0.999999999985,1.0389972144847195,0.0,0.9983403367691183,0
366,363.81111111111113,1.036111111111154,1.0083333333333258,0.9972222222222253,1.0389972144847195,0.04078975775003242,0.9550801600383233,66.66666666666667,0.999999999985,1.0111420612813262,0.0,0.9987378918215744,0
367,364.81944444444446,1.0083333333333258,0.9944444444444116,0.9972222222222253,1.0111420612813262,0.04291451709327712,1.0048307740533686,66.66666666666667,0.999999999985,0.9972144846796297,0.0,0.9991983067816438,0
368,365.81388888888887,0.9944444444444116,1.0138888888889142,0.9972222222222253,0.9972144846796297,0.04308076512116396,1.0087234226455288,66.66666666666667,0.999999999985,1.0167130919220277,0.0,0.9955967440219068,0
369,366.8277777777778,1.0138888888889142,1.0277777777777715,0.9972222222222253,1.0167130919220277,0.04262986832330492,0.9981658069690876,66.66666666666667,0.999999999985,1.0306406685236673,0.0,0.9990330954665301,0
370,367.85555555555555,1.0277777777777715,0.9861111111110858,0.9972222222222253,1.0306406685236673,0.04343046542949958,1.0169115523347858,69.44444444444444,1.0416666666510415,0.9888579387186345,0.0,0.9992290705485671,0
371,368.84166666666664,0.9861111111110858,0.9861111111111427,0.9972222222222253,0.9888579387186345,0.04205095792799183,0.9846107906242545,66.66666666666667,0.999999999985,0.9888579387186915,0.0,0.9976375518902654,0
372,369.8277777777778,0.9861111111111427,1.0249999999999773,0.9972222222222253,0.9888579387186915,0.04136220620278086,0.9684838719018544,63.888888888888886,0.9583333333189582,1.0278551532033167,0.0,0.9985709222658736,0
373,370.85277777777776,1.0249999999999773,1.0,0.9972222222222253,1.0278551532033167,0.03800053845602632,0.8897714120426525,61.111111111111114,0.9166666666529166,1.0027855153203311,0.0,0.9968444896281561,0
374,371.85277777777776,1.0,0.9972222222222626,0.9972222222222253,1.0027855153203311,0.03907723225626846,0.9149818801545088,63.888888888888886,0.9583333333189582,1.0000000000000373,0.0,0.9978328472792451,0
375,372.85,0.9972222222222626,1.0194444444444457,0.9972222222222253,1.0000000000000373,0.04054763058858354,0.9494108238896907,63.888888888888886,0.9583333333189582,1.0222841225626722,0.0,0.9991339103641721,0
376,373.86944444444447,1.0194444444444457,0.9972222222222058,0.9972222222222253,1.0222841225626722,0.03942595700832131,0.9231471674808278,61.111111111111114,0.9166666666529166,0.9999999999999805,0.0,0.9971088982566766,0
377,374.8666666666667,0.9972222222222058,1.0055555555555316,0.9972222222222253,0.9999999999999805,0.041942567991297613,0.9820728721909348,66.66666666666667,0.999999999985,1.0083565459609756,0.0,0.9988066976584663,0
378,375.8722222222222,1.0055555555555316,1.01111111111112,0.9972222222222253,1.0083565459609756,0.04544577875012902,1.0640995199758194,69.44444444444444,1.0416666666510415,1.013927576601677,0.0,0.9983955370527642,0
379,376.8833333333333,1.01111111111112,1.0055555555555884,0.9972222222222253,1.013927576601677,0.044094011204090365,1.032448281149715,69.44444444444444,1.0416666666510415,1.0083565459610326,0.0,0.999054956991059,0
380,377.8888888888889,1.0055555555555884,1.0055555555555316,0.9972222222222253,1.0083565459610326,0.04258608139638999,0.9971405489760939,66.66666666666667,0.999999999985,1.0083565459609756,0.0,0.99919812573882,0
381,378.89444444444445,1.0055555555555316,1.0027777777777942,0.9972222222222253,1.0083565459609756,0.04511645995389165,1.056388617387442,72.22222222222223,1.0833333333170834,1.0055710306406818,0.0,0.9980621433926607,0
382,379.89722222222224,1.0027777777777942,0.9916666666666742,0.9972222222222253,1.0055710306406818,0.043640831136213885,1.021837203378524,69.44444444444444,1.0416666666510415,0.994428969359336,0.0,0.9981655377311512,0
383,380.8888888888889,0.9916666666666742,0.9805555555555543,0.9972222222222253,0.994428969359336,0.04159632256544385,0.9739656375570961,61.111111111111114,0.9166666666529166,0.9832869080779901,0.0,0.9990006620791612,0
384,381.86944444444447,0.9805555555555543,0.9833333333332916,0.9972222222222253,0.9832869080779901,0.043629091223078335,1.0215623167713257,69.44444444444444,1.0416666666510415,0.9860724233982838,0.0,0.9991611533886544,0
385,382.85277777777776,0.9833333333332916,0.9694444444444343,0.9972222222222253,0.9860724233982838,0.04364145551290568,1.0218518229748053,69.44444444444444,1.0416666666510415,0.9721448467966443,0.0,0.9985235808380295,0
386,383.8222222222222,0.9694444444444343,1.0138888888889142,0.9972222222222253,0.9721448467966443,0.041563931501285144,0.9732072103330344,63.888888888888886,0.9583333333189582,1.0167130919220277,0.0,0.9971531298427753,0
387,384.8361111111111,1.0138888888889142,0.98888888888888,0.9972222222222253,1.0167130919220277,0.04366484607124789,1.022399506006947,66.66666666666667,0.999999999985,0.9916434540389852,0.0,0.9949745200036482,0
388,385.825,0.98888888888888,0.9777777777778169,0.9972222222222253,0.9916434540389852,0.04297890357394111,1.0063383645282549,69.44444444444444,1.0416666666510415,0.9805013927576963,0.0,0.9995511570810078,0
389,386.8027777777778,0.9777777777778169,1.011111111111063,0.9972222222222253,0.9805013927576963,0.04161079911807868,0.9743046017718877,66.66666666666667,0.999999999985,1.01392757660162,0.0,0.9973453338738244,0
390,387.81388888888887,1.011111111111063,0.9694444444444912,0.9972222222222253,1.01392757660162,0.04452563222276771,1.0425545601357415,69.44444444444444,1.0416666666510415,0.9721448467967012,0.0,0.9988839761792223,0
391,388.78333333333336,0.9694444444444912,0.9555555555555202,0.9972222222222253,0.9721448467967012,0.04442134716246898,1.0401127561738233,69.44444444444444,1.0416666666510415,0.9582172701949476,0.0,0.9989405089921405,0
392,389.7388888888889,0.9555555555555202,0.9694444444444343,0.9972222222222253,0.9582172701949476,0.03915646839810007,0.9168371710705547,63.888888888888886,0.9583333333189582,0.9721448467966443,0.0,0.9976642051057371,0
393,390.7083333333333,0.9694444444444343,0.966666666666697,0.9972222222222253,0.9721448467966443,0.04321786698081981,1.0119336222957476,66.66666666666667,0.999999999985,0.9693593314763504,0.0,0.9984932094646916,0
394,391.675,0.966666666666697,0.9638888888889028,0.9972222222222253,0.9693593314763504,0.04173419707907701,0.9771939286725504,66.66666666666667,0.999999999985,0.9665738161559998,0.0,0.9991761236021455,0
395,392.6388888888889,0.9638888888889028,0.9638888888888459,0.9972222222222253,0.9665738161559998,0.04369617985936601,1.0231331774240182,69.44444444444444,1.0416666666510415,0.9665738161559427,0.0,0.9987461473741924,0
396,393.60277777777776,0.9638888888888459,0.9222222222222172,0.9972222222222253,0.9665738161559427,0.037466965376841174,0.8772779555974525,61.111111111111114,0.9166666666529166,0.924791086350967,0.0,0.9956282460058214,0
397,394.525,0.9222222222222172,0.9083333333333599,0.9972222222222253,0.924791086350967,0.042595858426698004,0.9973694752601995,66.66666666666667,0.999999999985,0.9108635097493274,0.0,0.9989213609885229,0
398,395.43333333333334,0.9083333333333599,0.9416666666666629,0.9972222222222253,0.9108635097493274,0.042148282860413916,0.9868896252425683,66.66666666666667,0.999999999985,0.944289693593308,0.0,0.998971812766708,0
399,396.375,0.9416666666666629,0.9111111111110972,0.9972222222222253,0.944289693593308,0.043139534650755935,1.0100994938659575,66.66666666666667,0.999999999985,0.9136490250696211,0.0,0.9991380282920397,0
400,397.2861111111111,0.9111111111110972,0.8833333333333258,0.9972222222222253,0.9136490250696211,0.04057758024932423,0.9501120863720179,63.888888888888886,0.9583333333189582,0.8857938718662849,0.0,0.9981893490169846,0
401,398.1694444444444,0.8833333333333258,0.8944444444444457,0.9972222222222253,0.8857938718662849,0.04323024839282504,1.0122235294099777,66.66666666666667,0.999999999985,0.8969359331476308,0.0,0.9976838614790133,0
402,399.06388888888887,0.8944444444444457,0.8583333333333485,0.9972222222222253,0.8969359331476308,0.03898027725251765,0.9127117073070428,61.111111111111114,0.9166666666529166,0.8607242339832994,0.0,0.9969506297689981,0
403,399.9222222222222,0.8583333333333485,0.8500000000000227,0.9972222222222253,0.8607242339832994,0.0422595772001608,0.9894955494176567,66.66666666666667,0.999999999985,0.8523676880223042,0.0,0.9988949454853022,0
404,400.77222222222224,0.8500000000000227,0.8694444444444116,0.9972222222222253,0.8523676880223042,0.043549086227750805,1.0196890233771962,69.44444444444444,1.0416666666510415,0.8718662952645883,0.0,0.9983791908404924,0
405,401.64166666666665,0.8694444444444116,0.8555555555555543,0.9972222222222253,0.8718662952645883,0.04436157554351568,1.0387132213262396,69.44444444444444,1.0416666666510415,0.8579387186629487,0.0,0.9983147405602599,0
406,402.4972222222222,0.8555555555555543,0.8694444444444684,0.9972222222222253,0.8579387186629487,0.04495886194705247,1.0526985064896008,69.44444444444444,1.0416666666510415,0.8718662952646453,0.0,0.9986646212446619,0
407,403.3666666666667,0.8694444444444684,0.8805555555555316,0.9972222222222253,0.8718662952646453,0.04126041868641575,0.9661005471953031,66.66666666666667,0.999999999985,0.8830083565459341,0.0,0.998008178337253,0
408,404.2472222222222,0.8805555555555316,0.8944444444444457,0.9972222222222253,0.8830083565459341,0.04593644066696958,1.0755882241974182,69.44444444444444,1.0416666666510415,0.8969359331476308,0.0,0.9983254263055015,0
409,405.14166666666665,0.8944444444444457,0.9138888888888914,0.9972222222222253,0.8969359331476308,0.045098732056082794,1.0559735238833277,69.44444444444444,1.0416666666510415,0.9164345403899719,0.0,0.9989795623201216,0
410,406.05555555555554,0.9138888888888914,0.8944444444444457,0.9972222222222253,0.9164345403899719,0.0448398757230548,1.0499124791110008,66.66666666666667,0.999999999985,0.8969359331476308,0.0,0.9990460273187174,0
411,406.95,0.8944444444444457,0.9000000000000341,0.9972222222222253,0.8969359331476308,0.04387280314942402,1.0272687597231056,66.66666666666667,0.999999999985,0.9025069637883322,0.0,0.9988538987133304,0
412,407.85,0.9000000000000341,0.8916666666666515,0.9972222222222253,0.9025069637883322,0.04008449245686287,0.9385665809874815,63.888888888888886,0.9583333333189582,0.8941504178272801,0.0,0.9968581913927295,0
413,408.7416666666667,0.8916666666666515,0.8916666666666515,0.9972222222222253,0.8941504178272801,0.04325316643218808,1.012760148549438,66.66666666666667,0.999999999985,0.8941504178272801,0.0,0.9982451394471654,0
414,409.6333333333333,0.8916666666666515,0.8944444444444457,0.9972222222222253,0.8941504178272801,0.04234017645876393,0.9913827573112998,66.66666666666667,0.999999999985,0.8969359331476308,0.0,0.9967702637106031,0
415,410.52777777777777,0.8944444444444457,0.8777777777777942,0.9972222222222253,0.8969359331476308,0.043166021312328925,1.0107196712430588,66.66666666666667,0.999999999985,0.8802228412256404,0.0,0.9958911442584811,0
416,411.40555555555557,0.8777777777777942,0.86388888888888,0.9972222222222253,0.8802228412256404,0.04132785068084809,0.9676794474777911,66.66666666666667,0.999999999985,0.8662952646239439,0.0,0.9986821254938414,0
417,412.26944444444445,0.86388888888888,0.8833333333333258,0.9972222222222253,0.8662952646239439,0.042478854807882556,0.9946298699978163,66.66666666666667,0.999999999985,0.8857938718662849,0.0,0.9986142397940172,0
418,413.15277777777777,0.8833333333333258,0.8722222222222058,0.9972222222222253,0.8857938718662849,0.0398974582902917,0.9341872310821417,63.888888888888886,0.9583333333189582,0.874651810584939,0.0,0.986840402110708,0
419,414.025,0.8722222222222058,0.8583333333333485,0.9972222222222253,0.874651810584939,0.04225663546573749,0.9894266695728432,66.66666666666667,0.999999999985,0.8607242339832994,0.0,0.9978737326130489,0
420,414.8833333333333,0.8583333333333485,0.8722222222222058,0.9972222222222253,0.8607242339832994,0.041484825315093336,0.9713549622900062,66.66666666666667,0.999999999985,0.874651810584939,0.0,0.9966837726487984,0
421,415.75555555555553,0.8722222222222058,0.8833333333333826,0.9972222222222253,0.874651810584939,0.04073285613063155,0.9537478253846864,66.66666666666667,0.999999999985,0.8857938718663418,0.0,0.9984943546269851,0
422,416.6388888888889,0.8833333333333826,0.8944444444444457,0.9972222222222253,0.8857938718663418,0.04562021044100321,1.0681837866257173,69.44444444444444,1.0416666666510415,0.8969359331476308,0.0,0.9974350744279801,0
423,417.53333333333336,0.8944444444444457,0.9055555555555088,0.9972222222222253,0.8969359331476308,0.043953764843076025,1.0291644539266358,66.66666666666667,0.999999999985,0.9080779944289197,0.0,0.9987220197184002,0
424,418.43888888888887,0.9055555555555088,0.9138888888888914,0.9972222222222253,0.9080779944289197,0.04262383636042133,0.998024570335335,69.44444444444444,1.0416666666510415,0.9164345403899719,0.0,0.999307241621402,0
425,419.35277777777776,0.9138888888888914,0.9361111111111313,0.9972222222222253,0.9164345403899719,0.04313035593591489,1.0098845769622324,69.44444444444444,1.0416666666510415,0.9387186629526636,0.0,0.9991298484837332,0
426,420.2888888888889,0.9361111111111313,0.9583333333333144,0.9972222222222253,0.9387186629526636,0.04383489179951945,1.0263810766347183,66.66666666666667,0.999999999985,0.9610027855152983,0.0,0.9993932565051462,0
427,421.2472222222222,0.9583333333333144,0.9416666666666629,0.9972222222222253,0.9610027855152983,0.040546107803787645,0.9493751683323451,63.888888888888886,0.9583333333189582,0.944289693593308,0.0,0.9986719189966246,0
428,422.18888888888887,0.9416666666666629,0.9222222222222172,0.9972222222222253,0.944289693593308,0.044480054346986146,1.041487367602694,69.44444444444444,1.0416666666510415,0.924791086350967,0.0,0.9985012829024809,0
429,423.1111111111111,0.9222222222222172,0.9416666666667197,0.9972222222222253,0.924791086350967,0.03755267778918054,0.879284886479367,61.111111111111114,0.9166666666529166,0.944289693593365,0.0,0.9964371398833134,0
430,424.0527777777778,0.9416666666667197,0.9277777777777487,0.9972222222222253,0.944289693593365,0.0450622946332519,1.0551203523631147,69.44444444444444,1.0416666666510415,0.9303621169916114,0.0,0.999123424861057,0
431,424.98055555555555,0.9277777777777487,0.9583333333333144,0.9972222222222253,0.9303621169916114,0.043211954547351196,1.0117951844080302,72.22222222222223,1.0833333333170834,0.9610027855152983,0.0,0.9979967647074325,0
432,425.93888888888887,0.9583333333333144,0.9638888888889028,0.9972222222222253,0.9610027855152983,0.040909288185143264,0.9578789299598,66.66666666666667,0.999999999985,0.9665738161559998,0.0,0.998775164266666,0
433,426.90277777777777,0.9638888888889028,0.9611111111111086,0.9972222222222253,0.9665738161559998,0.045673204127383266,1.0694246181790463,72.22222222222223,1.0833333333170834,0.963788300835649,0.0,0.9985755712327493,0
434,427.8638888888889,0.9611111111111086,0.955555555555577,0.9972222222222253,0.963788300835649,0.04331807420357099,1.0142799448929225,69.44444444444444,1.0416666666510415,0.9582172701950046,0.0,0.9994878445416098,0
435,428.81944444444446,0.955555555555577,0.9694444444444343,0.9972222222222253,0.9582172701950046,0.042107960587283215,0.9859454910971589,66.66666666666667,0.999999999985,0.9721448467966443,0.0,0.9987284866388544,0
436,429.7888888888889,0.9694444444444343,0.9638888888889028,0.9972222222222253,0.9721448467966443,0.04246187173818599,0.9942322164245067,66.66666666666667,0.999999999985,0.9665738161559998,0.0,0.9988140511734074,0
437,430.7527777777778,0.9638888888889028,0.9499999999999886,0.9972222222222253,0.9665738161559998,0.042898678718293344,1.0044599231695033,69.44444444444444,1.0416666666510415,0.9526462395543032,0.0,0.9988660492814596,0
438,431.7027777777778,0.9499999999999886,0.9499999999999886,0.9972222222222253,0.9526462395543032,0.04058554235314653,0.9502985166871829,63.888888888888886,0.9583333333189582,0.9526462395543032,0.0,0.9958001195306485,0
439,432.65277777777777,0.9499999999999886,0.9361111111111313,0.9972222222222253,0.9526462395543032,0.04013757168666371,0.9398094155148048,63.888888888888886,0.9583333333189582,0.9387186629526636,0.0,0.9988117876572092,0
440,433.5888888888889,0.9361111111111313,0.9305555555555429,0.9972222222222253,0.9387186629526636,0.04154196698064125,0.9726929175534524,69.44444444444444,1.0416666666510415,0.9331476323119622,0.0,0.9990180764722929,0
441,434.51944444444445,0.9305555555555429,0.9499999999999886,0.9972222222222253,0.9331476323119622,0.041896549752255714,0.9809953686818882,63.888888888888886,0.9583333333189582,0.9526462395543032,0.0,0.9986913000115089,0
442,435.46944444444443,0.9499999999999886,0.9333333333333371,0.9972222222222253,0.9526462395543032,0.041164757136686776,0.9638606601926746,63.888888888888886,0.9583333333189582,0.9359331476323128,0.0,0.9977859774642929,0
443,436.40277777777777,0.9333333333333371,0.9361111111111313,0.9972222222222253,0.9359331476323128,0.041914586208725464,0.981417686996138,66.66666666666667,0.999999999985,0.9387186629526636,0.0,0.9985713392628301,0
444,437.3388888888889,0.9361111111111313,0.9805555555555543,0.9972222222222253,0.9387186629526636,0.04240351257600526,0.9928657538361078,66.66666666666667,0.999999999985,0.9832869080779901,0.0,0.9989873889696722,0
445,438.31944444444446,0.9805555555555543,0.9527777777777828,0.9972222222222253,0.9832869080779901,0.04273053947164318,1.0005229922472,69.44444444444444,1.0416666666510415,0.9554317548746539,0.0,0.9985450138570693,0
446,439.27222222222224,0.9527777777777828,0.9555555555555202,0.9972222222222253,0.9554317548746539,0.045206581650236645,1.0584987903552632,72.22222222222223,1.0833333333170834,0.9582172701949476,0.0,0.999012736855713,0
447,440.22777777777776,0.9555555555555202,0.9722222222222285,0.9972222222222253,0.9582172701949476,0.04337032949428238,1.0155034871292195,69.44444444444444,1.0416666666510415,0.9749303621169949,0.0,0.998455808536835,0
448,441.2,0.9722222222222285,0.98888888888888,0.9972222222222253,0.9749303621169949,0.04298019406248456,1.0063685809372898,69.44444444444444,1.0416666666510415,0.9916434540389852,0.0,0.9987690684510262,0
449,442.18888888888887,0.98888888888888,1.0,0.9972222222222253,0.9916434540389852,0.0405931170825151,0.950475876743644,66.66666666666667,0.999999999985,1.0027855153203311,0.0,0.9982789169033265,0
450,443.18888888888887,1.0,1.02222222222224,0.9972222222222253,1.0027855153203311,0.04150227568640303,0.9717635575929086,66.66666666666667,0.999999999985,1.0250696378830229,0.0,0.9987302933236453,0
451,444.2111111111111,1.02222222222224,0.9861111111110858,0.9972222222222253,1.0250696378830229,0.04503805167954159,1.054552710744566,69.44444444444444,1.0416666666510415,0.9888579387186345,0.0,0.9983088916284137,0
452,445.1972222222222,0.9861111111110858,0.9583333333333712,0.9972222222222253,0.9888579387186345,0.043521466038306714,1.0190423047789585,69.44444444444444,1.0416666666510415,0.9610027855153553,0.0,0.9986365726855004,0
453,446.15555555555557,0.9583333333333712,0.9833333333333485,0.9972222222222253,0.9610027855153553,0.04306993508360657,1.0084698405069215,66.66666666666667,0.999999999985,0.9860724233983408,0.0,0.9986433030280005,0
454,447.1388888888889,0.9833333333333485,0.9666666666666401,0.9972222222222253,0.9860724233983408,0.04107161823313969,0.9616798402071607,66.66666666666667,0.999999999985,0.9693593314762935,0.0,0.9987188750610552,0
455,448.10555555555555,0.9666666666666401,0.9444444444444571,0.9972222222222253,0.9693593314762935,0.03836840393492979,0.8983848738488438,63.888888888888886,0.9583333333189582,0.9470752089136587,0.0,0.9970895592185125,0
456,449.05,0.9444444444444571,0.9722222222222285,0.9972222222222253,0.9470752089136587,0.042639371382801335,0.9983883183073582,66.66666666666667,0.999999999985,0.9749303621169949,0.0,0.9986883591039493,0
457,450.02222222222224,0.9722222222222285,0.9694444444444343,0.9972222222222253,0.9749303621169949,0.04184087496762269,0.9796917600028843,66.66666666666667,0.999999999985,0.9721448467966443,0.0,0.998968376113978,0
458,450.9916666666667,0.9694444444444343,0.9833333333333485,0.9972222222222253,0.9721448467966443,0.041824290646939086,0.9793034430202316,69.44444444444444,1.0416666666510415,0.9860724233983408,0.0,0.9991588311378881,0
459,451.975,0.9833333333333485,0.9861111111110858,0.9972222222222253,0.9860724233983408,0.041914684155761196,0.9814199803971221,63.888888888888886,0.9583333333189582,0.9888579387186345,0.0,0.9992376967494412,0
460,452.9611111111111,0.9861111111110858,0.9499999999999886,0.9972222222222253,0.9888579387186345,0.04286327184899371,1.003630881756598,66.66666666666667,0.999999999985,0.9526462395543032,0.0,0.9948355279157315,0
461,453.9111111111111,0.9499999999999886,0.9416666666666629,0.9972222222222253,0.9526462395543032,0.04340753722108077,1.0163746950898804,69.44444444444444,1.0416666666510415,0.944289693593308,0.0,0.9990268965330155,0
462,454.85277777777776,0.9416666666666629,0.9750000000000227,0.9972222222222253,0.944289693593308,0.04510706648318879,1.0561686720384849,69.44444444444444,1.0416666666510415,0.9777158774373457,0.0,0.9986228228841822,0
463,455.8277777777778,0.9750000000000227,0.9472222222221944,0.9972222222222253,0.9777158774373457,0.03860235291394542,0.903862720265298,61.111111111111114,0.9166666666529166,0.9498607242339524,0.0,0.9961800455427385,0
464,456.775,0.9472222222221944,0.9194444444444798,0.9972222222222253,0.9498607242339524,0.043111625760404684,1.0094460154210374,69.44444444444444,1.0416666666510415,0.9220055710306733,0.0,0.9996433411931789,0
465,457.69444444444446,0.9194444444444798,0.9583333333333144,0.9972222222222253,0.9220055710306733,0.04310652511430774,1.0093265852954547,69.44444444444444,1.0416666666510415,0.9610027855152983,0.0,0.9987546142819436,0
466,458.65277777777777,0.9583333333333144,0.9305555555555429,0.9972222222222253,0.9610027855152983,0.03900899880782409,0.9133842140624573,63.888888888888886,0.9583333333189582,0.9331476323119622,0.0,0.9967877832682384,0
467,459.5833333333333,0.9305555555555429,0.9472222222222513,0.9972222222222253,0.9331476323119622,0.04314794303703379,1.0102963737533335,66.66666666666667,0.999999999985,0.9498607242340095,0.0,0.9986688396019827,0
468,460.53055555555557,0.9472222222222513,0.9694444444444343,0.9972222222222253,0.9498607242340095,0.04336755935044279,1.0154386250273688,66.66666666666667,0.999999999985,0.9721448467966443,0.0,0.9988839902233224,0
469,461.5,0.9694444444444343,0.9611111111111086,0.9972222222222253,0.9721448467966443,0.04058067970553652,0.9501846592260517,63.888888888888886,0.9583333333189582,0.963788300835649,0.0,0.9988191033986078,0
470,462.4611111111111,0.9611111111111086,0.9805555555555543,0.9972222222222253,0.963788300835649,0.0436729321239343,1.0225888385482467,72.22222222222223,1.0833333333170834,0.9832869080779901,0.0,0.9988008569601905,0
471,463.44166666666666,0.9805555555555543,1.0,0.9972222222222253,0.9832869080779901,0.04435393575411584,1.0385343379083147,72.22222222222223,1.0833333333170834,1.0027855153203311,0.0,0.9985145497741109,0
472,464.44166666666666,1.0,0.9972222222222058,0.9972222222222253,1.0027855153203311,0.04423559466849459,1.0357634162547247,72.22222222222223,1.0833333333170834,0.9999999999999805,0.0,0.9987636490183807,0
473,465.43888888888887,0.9972222222222058,0.9638888888889028,0.9972222222222253,0.9999999999999805,0.04151720259036267,0.9721130666512858,66.66666666666667,0.999999999985,0.9665738161559998,0.0,0.9992269452290004,0
474,466.40277777777777,0.9638888888889028,0.9944444444444684,0.9972222222222253,0.9665738161559998,0.04161869241848124,0.9744894210752507,69.44444444444444,1.0416666666510415,0.9972144846796867,0.0,0.9990805610560493,0
475,467.39722222222224,0.9944444444444684,0.9833333333332916,0.9972222222222253,0.9972144846796867,0.041906394852854786,0.9812258888118036,72.22222222222223,1.0833333333170834,0.9860724233982838,0.0,0.9963313484612815,0
476,468.38055555555553,0.9833333333332916,0.9694444444444912,0.9972222222222253,0.9860724233982838,0.04225646742677378,0.9894227349900164,69.44444444444444,1.0416666666510415,0.9721448467967012,0.0,0.9987560374500176,0
477,469.35,0.9694444444444912,0.9777777777777601,0.9972222222222253,0.9721448467967012,0.04543536037904148,1.0638555768863163,72.22222222222223,1.0833333333170834,0.9805013927576394,0.0,0.998765196886308,0
478,470.3277777777778,0.9777777777777601,0.9611111111111086,0.9972222222222253,0.9805013927576394,0.043384757446490625,1.0158413133793414,69.44444444444444,1.0416666666510415,0.963788300835649,0.0,0.9994052575830701,0
479,471.2888888888889,0.9611111111111086,0.9972222222222058,0.9972222222222253,0.963788300835649,0.04184082607911428,0.9796906152928637,66.66666666666667,0.999999999985,0.9999999999999805,0.0,0.9981675163836545,0
480,472.2861111111111,0.9972222222222058,0.9972222222222626,0.9972222222222253,0.9999999999999805,0.04343039515945178,1.0169099069823198,69.44444444444444,1.0416666666510415,1.0000000000000373,0.0,0.998359116475352,0
481,473.28333333333336,0.9972222222222626,0.98888888888888,0.9972222222222253,1.0000000000000373,0.0433029992584114,1.013926969493465,66.66666666666667,0.999999999985,0.9916434540389852,0.0,0.9991502965542374,0
482,474.27222222222224,0.98888888888888,0.9611111111111086,0.9972222222222253,0.9916434540389852,0.042612253597059314,0.997753363343784,66.66666666666667,0.999999999985,0.963788300835649,0.0,0.9985799587771618,0
483,475.23333333333335,0.9611111111111086,0.9833333333332916,0.9972222222222253,0.963788300835649,0.04574772315788542,1.0711694593230916,72.22222222222223,1.0833333333170834,0.9860724233982838,0.0,0.9987884212884752,0
484,476.21666666666664,0.9833333333332916,0.9944444444444684,0.9972222222222253,0.9860724233982838,0.04325294038870897,1.0127548558079726,69.44444444444444,1.0416666666510415,0.9972144846796867,0.0,0.9995512264709119,0
485,477.2111111111111,0.9944444444444684,0.9944444444444684,0.9972222222222253,0.9972144846796867,0.04203877851254071,0.9843256131998257,69.44444444444444,1.0416666666510415,0.9972144846796867,0.0,0.9991573858608824,0
486,478.2055555555556,0.9944444444444684,0.9472222222221944,0.9972222222222253,0.9972144846796867,0.038917746095429105,0.911247558687051,61.111111111111114,0.9166666666529166,0.9498607242339524,0.0,0.9978095030518586,0
487,479.15277777777777,0.9472222222221944,0.9583333333333144,0.9972222222222253,0.9498607242339524,0.044636291527638636,1.0451456151563066,69.44444444444444,1.0416666666510415,0.9610027855152983,0.0,0.9987013380726104,0
488,480.1111111111111,0.9583333333333144,0.9694444444444912,0.9972222222222253,0.9610027855152983,0.04254342797853793,0.9961418317638474,69.44444444444444,1.0416666666510415,0.9721448467967012,0.0,0.9958100230984016,0
489,481.0805555555556,0.9694444444444912,0.9333333333333371,0.9972222222222253,0.9721448467967012,0.044075547038342225,1.0320159481487257,69.44444444444444,1.0416666666510415,0.9359331476323128,0.0,0.9995415717100657,0
490,482.0138888888889,0.9333333333333371,0.9138888888888914,0.9972222222222253,0.9359331476323128,0.04326395818158028,1.013012834181938,69.44444444444444,1.0416666666510415,0.9164345403899719,0.0,0.9993874166213924,0
491,482.9277777777778,0.9138888888888914,0.9305555555555429,0.9972222222222253,0.9164345403899719,0.04112135902825144,0.962844506269825,66.66666666666667,0.999999999985,0.9331476323119622,0.0,0.9974086899867332,0
492,483.85833333333335,0.9305555555555429,0.9027777777777715,0.9972222222222253,0.9331476323119622,0.042464890337906715,0.9943028960476127,66.66666666666667,0.999999999985,0.905292479108626,0.0,0.9988704960660333,0
493,484.7611111111111,0.9027777777777715,0.9472222222221944,0.9972222222222253,0.905292479108626,0.045312629822632,1.0609818770674673,72.22222222222223,1.0833333333170834,0.9498607242339524,0.0,0.9983855606482486,0
494,485.7083333333333,0.9472222222221944,0.9777777777778169,0.9972222222222253,0.9498607242339524,0.0420021388594134,0.9834677065168043,63.888888888888886,0.9583333333189582,0.9805013927576963,0.0,0.9991338856494768,0
495,486.68611111111113,0.9777777777778169,0.9583333333333144,0.9972222222222253,0.9805013927576963,0.04480467693213404,1.0490883097920318,72.22222222222223,1.0833333333170834,0.9610027855152983,0.0,0.9982102849666832,0
496,487.64444444444445,0.9583333333333144,0.9694444444444343,0.9972222222222253,0.9610027855152983,0.046179836002759066,1.0812872542746002,72.22222222222223,1.0833333333170834,0.9721448467966443,0.0,0.9984244573533579,0
497,488.6138888888889,0.9694444444444343,1.0027777777777942,0.9972222222222253,0.9721448467966443,0.04344768051553335,1.017314638502273,69.44444444444444,1.0416666666510415,1.0055710306406818,0.0,0.9985206001911593,0
498,489.6166666666667,1.0027777777777942,0.9722222222222285,0.9972222222222253,1.0055710306406818,0.0426050007076779,0.9975835390758,66.66666666666667,0.999999999985,0.9749303621169949,0.0,0.9986079817399824,0
499,490.5888888888889,0.9722222222222285,0.9472222222221944,0.9972222222222253,0.9749303621169949,0.039627311233226215,0.9278618173330058,63.888888888888886,0.9583333333189582,0.9498607242339524,0.0,0.998275747076072,0
500,491.5361111111111,0.9472222222221944,0.9805555555555543,0.9972222222222253,0.9498607242339524,0.042575425453172853,0.9968910432051711,66.66666666666667,0.999999999985,0.9832869080779901,0.0,0.9984795755886795,0
501,492.51666666666665,0.9805555555555543,0.9472222222222513,0.9972222222222253,0.9832869080779901,0.04330457988157944,1.0139639793192536,69.44444444444444,1.0416666666510415,0.9498607242340095,0.0,0.9994114690299936,0
502,493.4638888888889,0.9472222222222513,0.9361111111110745,0.9972222222222253,0.9498607242340095,0.039922070510574906,0.9347635189686999,63.888888888888886,0.9583333333189582,0.9387186629526065,0.0,0.9967473639907136,0
503,494.4,0.9361111111110745,0.9388888888889255,0.9972222222222253,0.9387186629526065,0.04326718865140719,1.0130884746811584,69.44444444444444,1.0416666666510415,0.9415041782730142,0.0,0.9988086835084408,0
504,495.3388888888889,0.9388888888889255,0.9416666666666629,0.9972222222222253,0.9415041782730142,0.04413449164138428,1.033396118662407,72.22222222222223,1.0833333333170834,0.944289693593308,0.0,0.9990030111002932,0
505,496.28055555555557,0.9416666666666629,0.9666666666666401,0.9972222222222253,0.944289693593308,0.03817327215412479,0.893815920691978,61.111111111111114,0.9166666666529166,0.9693593314762935,0.0,0.9968840148494895,0
506,497.2472222222222,0.9666666666666401,1.0055555555555884,0.9972222222222253,0.9693593314762935,0.04323851682218491,1.0124171322473536,69.44444444444444,1.0416666666510415,1.0083565459610326,0.0,0.9989122603911444,0
507,498.2527777777778,1.0055555555555884,0.9944444444444116,0.9972222222222253,1.0083565459610326,0.04233407352649204,0.9912398589502293,66.66666666666667,0.999999999985,0.9972144846796297,0.0,0.9990816600873779,0
508,499.2472222222222,0.9944444444444116,1.0083333333333258,0.9972222222222253,0.9972144846796297,0.04582136018506898,1.0728936486192922,72.22222222222223,1.0833333333170834,1.0111420612813262,0.0,0.998294680352608,0
509,500.25555555555553,1.0083333333333258,1.0138888888889142,0.9972222222222253,1.0111420612813262,0.04220602809756713,0.9882417129573254,66.66666666666667,0.999999999985,1.0167130919220277,0.0,0.9986889457205296,0
510,501.26944444444445,1.0138888888889142,1.02222222222224,0.9972222222222253,1.0167130919220277,0.043385102809191584,1.0158493999452318,69.44444444444444,1.0416666666510415,1.0250696378830229,0.0,0.9991623665361538,0
511,502.2916666666667,1.02222222222224,0.9944444444444116,0.9972222222222253,1.0250696378830229,0.04154788364817541,0.9728314545805672,66.66666666666667,0.999999999985,0.9972144846796297,0.0,0.9990482080940277,0
512,503.2861111111111,0.9944444444444116,1.0277777777777715,0.9972222222222253,0.9972144846796297,0.04444667638475737,1.040705832451086,72.22222222222223,1.0833333333170834,1.0306406685236673,0.0,0.99932710956089,0
513,504.31388888888887,1.0277777777777715,1.0027777777777942,0.9972222222222253,1.0306406685236673,0.0445722868508713,1.0436469645071715,69.44444444444444,1.0416666666510415,1.0055710306406818,0.0,0.9990958435439425,0
514,505.31666666666666,1.0027777777777942,1.0138888888889142,0.9972222222222253,1.0055710306406818,0.042914586970147155,1.004832410199693,69.44444444444444,1.0416666666510415,1.0167130919220277,0.0,0.9981073060848641,0
515,506.3305555555556,1.0138888888889142,1.0027777777777374,0.9972222222222253,1.0167130919220277,0.04205377223046558,0.9846766866875137,69.44444444444444,1.0416666666510415,1.005571030640625,0.0,0.9989544536595157,0
516,507.3333333333333,1.0027777777777374,0.9750000000000227,0.9972222222222253,1.005571030640625,0.041851765273650546,0.979946753309971,66.66666666666667,0.999999999985,0.9777158774373457,0.0,0.999061630556967,0
517,508.30833333333334,0.9750000000000227,0.9777777777777601,0.9972222222222253,0.9777158774373457,0.039338060858093014,0.9210891050196275,61.111111111111114,0.9166666666529166,0.9805013927576394,0.0,0.996297635211142,0
518,509.2861111111111,0.9777777777777601,0.9583333333333712,0.9972222222222253,0.9805013927576394,0.040836307498000414,0.9561701086722785,66.66666666666667,0.999999999985,0.9610027855153553,0.0,0.9984146533288571,0
519,510.24444444444447,0.9583333333333712,0.9611111111111086,0.9972222222222253,0.9610027855153553,0.04355193186256322,1.019755653077934,66.66666666666667,0.999999999985,0.963788300835649,0.0,0.9992125160233629,0
520,511.2055555555556,0.9611111111111086,0.9777777777777032,0.9972222222222253,0.963788300835649,0.04420744507475406,1.0351043018108617,69.44444444444444,1.0416666666510415,0.9805013927575824,0.0,0.9989593960011757,0
521,512.1833333333333,0.9777777777777032,0.9555555555556339,0.9972222222222253,0.9805013927575824,0.04387442124638369,1.0273066469866847,66.66666666666667,0.999999999985,0.9582172701950616,0.0,0.9993110545313131,0
522,513.1388888888889,0.9555555555556339,0.9472222222221944,0.9972222222222253,0.9582172701950616,0.04147719020364253,0.9711761884048795,66.66666666666667,0.999999999985,0.9498607242339524,0.0,0.999324651650735,0
523,514.0861111111111,0.9472222222221944,0.9722222222221717,0.9972222222222253,0.9498607242339524,0.04255204899757307,0.9963436903845881,66.66666666666667,0.999999999985,0.974930362116938,0.0,0.9990117453084801,0
524,515.0583333333333,0.9722222222221717,0.9611111111111086,0.9972222222222253,0.974930362116938,0.042838326285071476,1.0030467887269434,69.44444444444444,1.0416666666510415,0.963788300835649,0.0,0.998936793515237,0
525,516.0194444444444,0.9611111111111086,0.9555555555556339,0.9972222222222253,0.963788300835649,0.04054616791493529,0.949376575817157,63.888888888888886,0.9583333333189582,0.9582172701950616,0.0,0.9989734668788978,0
526,516.975,0.9555555555556339,0.9722222222221717,0.9972222222222253,0.9582172701950616,0.04369302340791425,1.0230592700432446,69.44444444444444,1.0416666666510415,0.974930362116938,0.0,0.9987016186861173,0
527,517.9472222222222,0.9722222222221717,0.9805555555556111,0.9972222222222253,0.974930362116938,0.04508761710784183,1.055713270645006,72.22222222222223,1.0833333333170834,0.9832869080780471,0.0,0.9985692821479573,0
528,518.9277777777778,0.9805555555556111,0.9777777777777601,0.9972222222222253,0.9832869080780471,0.042841171088187,1.0031133989537435,69.44444444444444,1.0416666666510415,0.9805013927576394,0.0,0.9985252751373999,0
529,519.9055555555556,0.9777777777777601,1.0027777777777374,0.9972222222222253,0.9805013927576394,0.04299944607536239,1.0068193611467016,69.44444444444444,1.0416666666510415,1.005571030640625,0.0,0.9988708817674055,0
530,520.9083333333333,1.0027777777777374,1.0,0.9972222222222253,1.005571030640625,0.041587831369295586,0.9737668187010023,66.66666666666667,0.999999999985,1.0027855153203311,0.0,0.9991287960713756,0
531,521.9083333333333,1.0,0.9833333333333485,0.9972222222222253,1.0027855153203311,0.0398464639833171,0.9329932144085247,66.66666666666667,0.999999999985,0.9860724233983408,0.0,0.9980421610228916,0
532,522.8916666666667,0.9833333333333485,1.033333333333303,0.9972222222222253,0.9860724233983408,0.04281696468450437,1.0025466131433243,69.44444444444444,1.0416666666510415,1.0362116991643118,0.0,0.9991028967983651,0
533,523.925,1.033333333333303,1.002777777777851,0.9972222222222253,1.0362116991643118,0.04071817936743172,0.9534041732985022,63.888888888888886,0.9583333333189582,1.0055710306407388,0.0,0.9977649589048612,0
534,524.9277777777778,1.002777777777851,0.9444444444444571,0.9972222222222253,1.0055710306407388,0.04379792073223125,1.0255154099867625,69.44444444444444,1.0416666666510415,0.9470752089136587,0.0,0.9992395018483107,0
535,525.8722222222223,0.9444444444444571,0.9722222222221717,0.9972222222222253,0.9470752089136587,0.04498836636900697,1.053389343836928,75.0,1.1249999999831248,0.974930362116938,0.0,0.9989374349223221,0
536,526.8444444444444,0.9722222222221717,0.9833333333333485,0.9972222222222253,0.974930362116938,0.04429388886624195,1.0371283577200563,69.44444444444444,1.0416666666510415,0.9860724233983408,0.0,0.9986648352479987,0
537,527.8277777777778,0.9833333333333485,0.9972222222222626,0.9972222222222253,0.9860724233983408,0.04241927049080999,0.9932347207685863,66.66666666666667,0.999999999985,1.0000000000000373,0.0,0.9994585624256358,0
538,528.825,0.9972222222222626,0.9888888888888232,0.9972222222222253,1.0000000000000373,0.044069975170706266,1.0318854845096406,69.44444444444444,1.0416666666510415,0.9916434540389283,0.0,0.9992088423757821,0
539,529.8138888888889,0.9888888888888232,0.9694444444444343,0.9972222222222253,0.9916434540389283,0.040368193233037857,0.9452093510763032,63.888888888888886,0.9583333333189582,0.9721448467966443,0.0,0.9982066701959051,0
540,530.7833333333333,0.9694444444444343,0.9972222222222626,0.9972222222222253,0.9721448467966443,0.043522795698654665,1.0190734383842548,69.44444444444444,1.0416666666510415,1.0000000000000373,0.0,0.9995675348253339,0
541,531.7805555555556,0.9972222222222626,0.9916666666666742,0.9972222222222253,1.0000000000000373,0.0442409475134693,1.035888751542726,72.22222222222223,1.0833333333170834,0.994428969359336,0.0,0.9967167505208894,0
542,532.7722222222222,0.9916666666666742,0.9861111111110858,0.9972222222222253,0.994428969359336,0.04272617459631365,1.00042078997736,69.44444444444444,1.0416666666510415,0.9888579387186345,0.0,0.9978174731414806,0
543,533.7583333333333,0.9861111111110858,0.9750000000000227,0.9972222222222253,0.9888579387186345,0.042491692597676156,0.9949304630635009,66.66666666666667,0.999999999985,0.9777158774373457,0.0,0.9986199344607458,0
544,534.7333333333333,0.9750000000000227,0.9888888888888232,0.9972222222222253,0.9777158774373457,0.04224059072091617,0.9890509866000334,72.22222222222223,1.0833333333170834,0.9916434540389283,0.0,0.9985614441830472,0
545,535.7222222222222,0.9888888888888232,1.0055555555555884,0.9972222222222253,0.9916434540389283,0.04262024242063342,0.9979404192940652,66.66666666666667,0.999999999985,1.0083565459610326,0.0,0.9980768136999304,0
546,536.7277777777778,1.0055555555555884,1.02222222222224,0.9972222222222253,1.0083565459610326,0.04170583883578085,0.9765299287608157,63.888888888888886,0.9583333333189582,1.0250696378830229,0.0,0.9992904157131668,0
547,537.75,1.02222222222224,0.9833333333333485,0.9972222222222253,1.0250696378830229,0.038708590510861396,0.9063502422968432,61.111111111111114,0.9166666666529166,0.9860724233983408,0.0,0.9964818633249866,0
548,538.7333333333333,0.9833333333333485,0.9833333333333485,0.9972222222222253,0.9860724233983408,0.04358919944207523,1.0206282624722505,66.66666666666667,0.999999999985,0.9860724233983408,0.0,0.9991582014800047,0
549,539.7166666666667,0.9833333333333485,1.02222222222224,0.9972222222222253,0.9860724233983408,0.0440727018617348,1.0319493291767226,69.44444444444444,1.0416666666510415,1.0250696378830229,0.0,0.9993668699801238,0
550,540.7388888888889,1.02222222222224,0.9833333333332348,0.9972222222222253,1.0250696378830229,0.04448410919399604,1.0415823106507716,69.44444444444444,1.0416666666510415,0.9860724233982268,0.0,0.9985558559756029,0
551,541.7222222222222,0.9833333333332348,0.966666666666697,0.9972222222222253,0.9860724233982268,0.044369181749343185,1.0388913183947128,69.44444444444444,1.0416666666510415,0.9693593314763504,0.0,0.9991248384828733,0
552,542.6888888888889,0.966666666666697,0.9861111111110858,0.9972222222222253,0.9693593314763504,0.044160723921840256,1.0340103397806004,72.22222222222223,1.0833333333170834,0.9888579387186345,0.0,0.9984351154215112,0
553,543.675,0.9861111111110858,0.9805555555556111,0.9972222222222253,0.9888579387186345,0.04030079999268159,0.9436313582090885,66.66666666666667,0.999999999985,0.9832869080780471,0.0,0.9982301086271677,0
554,544.6555555555556,0.9805555555556111,1.011111111111063,0.9972222222222253,0.9832869080780471,0.042082875751770624,0.985358137064249,66.66666666666667,0.999999999985,1.01392757660162,0.0,0.9982374816742605,0
555,545.6666666666666,1.011111111111063,1.0083333333333258,0.9972222222222253,1.01392757660162,0.04272066831441116,1.0002918620089012,66.66666666666667,0.999999999985,1.0111420612813262,0.0,0.9986956968784527,0
556,546.675,1.0083333333333258,1.0138888888889142,0.9972222222222253,1.0111420612813262,0.044249556650853436,1.0360903319581092,69.44444444444444,1.0416666666510415,1.0167130919220277,0.0,0.9990782347472071,0
557,547.6888888888889,1.0138888888889142,1.0277777777778283,0.9972222222222253,1.0167130919220277,0.04259258073589888,0.9972927290958273,66.66666666666667,0.999999999985,1.0306406685237244,0.0,0.9991388675365013,0
558,548.7166666666667,1.0277777777778283,1.0305555555555657,0.9972222222222253,1.0306406685237244,0.0425548952813755,0.996410335281236,69.44444444444444,1.0416666666510415,1.033426183844018,0.0,0.9970657515741957,0
