beat_index,peak_time_s,rr_prev_s,rr_next_s,rr_baseline_s,prematurity_index,aa_ratio,morph_index,qrs_width_ms,width_index,pause_index,pvc_score,morphology_score,is_pvc_candidate
0,0.2611111111111111,,0.6444444444444444,0.7277777777777601,,0.03640002189745736,0.9854883621456513,58.333333333333336,0.9999999999828572,0.8854961832061283,0.0,0.9985534507162823,0
1,0.9055555555555556,0.6444444444444444,0.6555555555555556,0.7277777777777601,0.8854961832061283,0.03528172340909174,0.9552117280053192,55.55555555555556,0.9523809523646259,0.9007633587786479,0.0,0.9980590578968389,0
2,1.5611111111111111,0.6555555555555556,0.6583333333333334,0.7277777777777601,0.9007633587786479,0.03738930371015905,1.0122720194754828,58.333333333333336,0.9999999999828572,0.9045801526717778,0.0,0.9990666864067441,0
3,2.2194444444444446,0.6583333333333334,0.6083333333333334,0.7277777777777601,0.9045801526717778,0.03653182082369286,0.9890566651624537,58.333333333333336,0.9999999999828572,0.8358778625954403,0.0,0.9995127610343474,0
4,2.827777777777778,0.6083333333333334,0.6555555555555554,0.7277777777777601,0.8358778625954403,0.03507204822987277,0.9495350157897824,55.55555555555556,0.9523809523646259,0.9007633587786477,0.0,0.9974526102331297,0
5,3.4833333333333334,0.6555555555555554,0.6527777777777777,0.7277777777777601,0.9007633587786477,0.03803029224255411,1.0296260403253517,58.333333333333336,0.9999999999828572,0.8969465648855178,0.0,0.9990177290775154,0
6,4.136111111111111,0.6527777777777777,0.6694444444444443,0.7277777777777601,0.8969465648855178,0.03704048364635849,1.0028281209435876,58.333333333333336,0.9999999999828572,0.9198473282442969,0.0,0.999702969705764,0
7,4.805555555555555,0.6694444444444443,0.6583333333333332,0.7277777777777601,0.9198473282442969,0.0373587504552155,1.0114448255452881,58.333333333333336,0.9999999999828572,0.9045801526717775,0.0,0.9976973145166967,0
8,5.463888888888889,0.6583333333333332,0.6722222222222225,0.7277777777777601,0.9045801526717775,0.03588319883679651,0.9714959773881756,58.333333333333336,0.9999999999828572,0.9236641221374274,0.0,0.9984684680140615,0
9,6.136111111111111,0.6722222222222225,0.6638888888888888,0.7277777777777601,0.9236641221374274,0.038695676981113966,1.0476405601530407,61.111111111111114,1.0476190476010885,0.9122137404580373,0.0,0.9979824123917718,0
10,6.8,0.6638888888888888,0.6805555555555554,0.7277777777777601,0.9122137404580373,0.03421677802114423,0.9263795671593866,55.55555555555556,0.9523809523646259,0.9351145038168164,0.0,0.996896845120421,0
11,7.480555555555555,0.6805555555555554,0.6749999999999998,0.7277777777777601,0.9351145038168164,0.038693189713949194,1.0475732202802426,61.111111111111114,1.0476190476010885,0.9274809160305566,0.0,0.9992551146255888,0
12,8.155555555555555,0.6749999999999998,0.6916666666666664,0.7277777777777601,0.9274809160305566,0.03793912197050167,1.0271577109838352,61.111111111111114,1.0476190476010885,0.9503816793893357,0.0,0.9981167621227163,0
13,8.847222222222221,0.6916666666666664,0.6972222222222229,0.7277777777777601,0.9503816793893357,0.03573914622735848,0.9675959201151932,58.333333333333336,0.9999999999828572,0.9580152671755967,0.0,0.9981129022636239,0
14,9.544444444444444,0.6972222222222229,0.6972222222222229,0.7277777777777601,0.9580152671755967,0.03770052554213163,1.0206979895015078,61.111111111111114,1.0476190476010885,0.9580152671755967,0.0,0.9983317614314049,0
15,10.241666666666667,0.6972222222222229,0.6916666666666664,0.7277777777777601,0.9580152671755967,0.03767066227689568,1.019889476242131,61.111111111111114,1.0476190476010885,0.9503816793893357,0.0,0.9988093249328123,0
16,10.933333333333334,0.6916666666666664,0.68611111111111,0.7277777777777601,0.9503816793893357,0.03667077692412584,0.9928187403670132,58.333333333333336,0.9999999999828572,0.9427480916030748,0.0,0.9991542937686678,0
17,11.619444444444444,0.68611111111111,0.6805555555555571,0.7277777777777601,0.9427480916030748,0.03648355589074541,0.9877499480991112,58.333333333333336,0.9999999999828572,0.9351145038168188,0.0,0.9981593018592486,0
18,12.3,0.6805555555555571,0.7055555555555557,0.7277777777777601,0.9351145038168188,0.03461006117524409,0.9370272522757633,55.55555555555556,0.9523809523646259,0.9694656488549857,0.0,0.9987213864549327,0
19,13.005555555555556,0.7055555555555557,0.6999999999999993,0.7277777777777601,0.9694656488549857,0.03676030472307506,0.9952426016548311,58.333333333333336,0.9999999999828572,0.9618320610687247,0.0,0.9980288883563918,0
20,13.705555555555556,0.6999999999999993,0.6944444444444446,0.7277777777777601,0.9618320610687247,0.034844765457760295,0.9433815984247041,55.55555555555556,0.9523809523646259,0.9541984732824662,0.0,0.9981386173322686,0
21,14.4,0.6944444444444446,0.6722222222222225,0.7277777777777601,0.9541984732824662,0.0372291163597459,1.0079351328098698,58.333333333333336,0.9999999999828572,0.9236641221374274,0.0,0.9989510993117829,0
22,15.072222222222223,0.6722222222222225,0.7027777777777775,0.7277777777777601,0.9236641221374274,0.03553225566811331,0.9619945982547754,58.333333333333336,0.9999999999828572,0.9656488549618552,0.0,0.9979235558478625,0
23,15.775,0.7027777777777775,0.6972222222222211,0.7277777777777601,0.9656488549618552,0.034734168027632135,0.9403873013173683,58.333333333333336,0.9999999999828572,0.9580152671755943,0.0,0.9977505249506968,0
24,16.47222222222222,0.6972222222222211,0.6944444444444464,0.7277777777777601,0.9580152671755943,0.036792882989472836,0.9961246204207631,58.333333333333336,0.9999999999828572,0.9541984732824687,0.0,0.9993625855077367,0
25,17.166666666666668,0.6944444444444464,0.6611111111111114,0.7277777777777601,0.9541984732824687,0.03536942865508859,0.9575862457864487,55.55555555555556,0.9523809523646259,0.908396946564908,0.0,0.998470158727265,0
26,17.82777777777778,0.6611111111111114,0.7277777777777779,0.7277777777777601,0.908396946564908,0.0377026045771044,1.0207542769613323,61.111111111111114,1.0476190476010885,1.0000000000000244,0.0,0.9980609279409731,0
27,18.555555555555557,0.7277777777777779,0.68611111111111,0.7277777777777601,1.0000000000000244,0.03974630943574531,1.0760852149350764,63.888888888888886,1.0952380952193197,0.9427480916030748,0.0,0.9980155045707915,0
28,19.241666666666667,0.68611111111111,0.6611111111111114,0.7277777777777601,0.9427480916030748,0.034436076106970276,0.9323168084069663,55.55555555555556,0.9523809523646259,0.908396946564908,0.0,0.9987319770530994,0
29,19.90277777777778,0.6611111111111114,0.6722222222222207,0.7277777777777601,0.908396946564908,0.03686476977870076,0.9980708718371967,58.333333333333336,0.9999999999828572,0.923664122137425,0.0,0.9991519217126563,0
30,20.575,0.6722222222222207,0.6999999999999993,0.7277777777777601,0.923664122137425,0.03556693793715792,0.9629335804513398,58.333333333333336,0.9999999999828572,0.9618320610687247,0.0,0.9988110042831322,0
31,21.275,0.6999999999999993,0.6805555555555571,0.7277777777777601,0.9618320610687247,0.03653326824977041,0.9890958525442228,58.333333333333336,0.9999999999828572,0.9351145038168188,0.0,0.9985781156134586,0
32,21.955555555555556,0.6805555555555571,0.6833333333333336,0.7277777777777601,0.9351145038168188,0.03662976310168743,0.9917083387080796,58.333333333333336,0.9999999999828572,0.9389312977099468,0.0,0.998299498026888,0
33,22.63888888888889,0.6833333333333336,0.6333333333333329,0.7277777777777601,0.9389312977099468,0.03760181632795808,1.0180255520486234,61.111111111111114,1.0476190476010885,0.8702290076336083,0.0,0.9991201780544738,0
34,23.272222222222222,0.6333333333333329,0.6694444444444443,0.7277777777777601,0.8702290076336083,0.03212517641598796,0.8697518803427846,52.77777777777778,0.9047619047463946,0.9198473282442969,0.0,0.9919924133138995,0
35,23.941666666666666,0.6694444444444443,0.6722222222222207,0.7277777777777601,0.9198473282442969,0.03796085105870225,1.0277460008371224,58.333333333333336,0.9999999999828572,0.923664122137425,0.0,0.998607505849711,0
36,24.613888888888887,0.6722222222222207,0.658333333333335,0.7277777777777601,0.923664122137425,0.037397338685726436,1.0124895571169188,58.333333333333336,0.9999999999828572,0.9045801526717799,0.0,0.9991003566692731,0
37,25.272222222222222,0.658333333333335,0.6527777777777786,0.7277777777777601,0.9045801526717799,0.03668857107092764,0.9933004962471852,58.333333333333336,0.9999999999828572,0.896946564885519,0.0,0.9989960536533184,0
38,25.925,0.6527777777777786,0.6638888888888879,0.7277777777777601,0.896946564885519,0.03437909944469359,0.9307742313792448,52.77777777777778,0.9047619047463946,0.912213740458036,0.0,0.995800353160756,0
39,26.58888888888889,0.6638888888888879,0.6805555555555571,0.7277777777777601,0.912213740458036,0.037738587376084175,1.021728469497037,61.111111111111114,1.0476190476010885,0.9351145038168188,0.0,0.997698605944936,0
40,27.269444444444446,0.6805555555555571,0.6722222222222207,0.7277777777777601,0.9351145038168188,0.03743151259321011,1.013414776014014,55.55555555555556,0.9523809523646259,0.923664122137425,0.0,0.9975195920294926,0
41,27.941666666666666,0.6722222222222207,0.6666666666666679,0.7277777777777601,0.923664122137425,0.03734460969476191,1.011061980861893,58.333333333333336,0.9999999999828572,0.9160305343511689,0.0,0.9991926599635955,0
42,28.608333333333334,0.6666666666666679,0.655555555555555,0.7277777777777601,0.9160305343511689,0.03633953013536641,0.9838506178686215,58.333333333333336,0.9999999999828572,0.9007633587786471,0.0,0.9995112301080851,0
43,29.26388888888889,0.655555555555555,0.6972222222222229,0.7277777777777601,0.9007633587786471,0.03784540099139118,1.024620324208012,58.333333333333336,0.9999999999828572,0.9580152671755967,0.0,0.9987383981968008,0
44,29.961111111111112,0.6972222222222229,0.6888888888888864,0.7277777777777601,0.9580152671755967,0.038411361019084544,1.0399430353399635,58.333333333333336,0.9999999999828572,0.9465648854962029,0.0,0.9982982101799476,0
45,30.65,0.6888888888888864,0.6805555555555571,0.7277777777777601,0.9465648854962029,0.03848820996952768,1.0420236315142781,61.111111111111114,1.0476190476010885,0.9351145038168188,0.0,0.9982216759621468,0
46,31.330555555555556,0.6805555555555571,0.6944444444444429,0.7277777777777601,0.9351145038168188,0.036230256013056995,0.9808921477851975,55.55555555555556,0.9523809523646259,0.9541984732824638,0.0,0.9968849823891126,0
47,32.025,0.6944444444444429,0.6944444444444429,0.7277777777777601,0.9541984732824638,0.03547590105304335,0.9604688624334867,55.55555555555556,0.9523809523646259,0.9541984732824638,0.0,0.997689579763045,0
48,32.71944444444444,0.6944444444444429,0.7000000000000028,0.7277777777777601,0.9541984732824638,0.03638810111912597,0.9851656209026268,58.333333333333336,0.9999999999828572,0.9618320610687295,0.0,0.9993950872007145,0
49,33.419444444444444,0.7000000000000028,0.6944444444444429,0.7277777777777601,0.9618320610687295,0.0378626328106907,1.0250868557234631,58.333333333333336,0.9999999999828572,0.9541984732824638,0.0,0.9988624429859798,0
50,34.11388888888889,0.6944444444444429,0.7138888888888886,0.7277777777777601,0.9541984732824638,0.03872275511083172,1.0483736690995324,58.333333333333336,0.9999999999828572,0.9809160305343746,0.0,0.9989557763829098,0
51,34.827777777777776,0.7138888888888886,0.7083333333333357,0.7277777777777601,0.9809160305343746,0.03861981076487372,1.0455865703671168,61.111111111111114,1.0476190476010885,0.9732824427481185,0.0,0.998764408931557,0
52,35.53611111111111,0.7083333333333357,0.7027777777777757,0.7277777777777601,0.9732824427481185,0.03743849489954128,1.0136038138571692,58.333333333333336,0.9999999999828572,0.9656488549618527,0.0,0.9985816125116201,0
53,36.23888888888889,0.7027777777777757,0.69166666666667,0.7277777777777601,0.9656488549618527,0.037009321073427935,1.0019844304358156,55.55555555555556,0.9523809523646259,0.9503816793893406,0.0,0.9987091861733344,0
54,36.93055555555556,0.69166666666667,0.7194444444444414,0.7277777777777601,0.9503816793893406,0.03555804738318082,0.9626928790170896,58.333333333333336,0.9999999999828572,0.9885496183206306,0.0,0.9987063597788117,0
55,37.65,0.7194444444444414,0.7000000000000028,0.7277777777777601,0.9885496183206306,0.038604256173771646,1.045165447859218,61.111111111111114,1.0476190476010885,0.9618320610687295,0.0,0.9981536690808688,0
56,38.35,0.7000000000000028,0.6944444444444429,0.7277777777777601,0.9618320610687295,0.03369176865529242,0.9121655476864872,52.77777777777778,0.9047619047463946,0.9541984732824638,0.0,0.9973198574836399,0
57,39.044444444444444,0.6944444444444429,0.68333333333333,0.7277777777777601,0.9541984732824638,0.03815693871716661,1.0330548466922542,61.111111111111114,1.0476190476010885,0.9389312977099419,0.0,0.9993604421976678,0
58,39.727777777777774,0.68333333333333,0.7055555555555557,0.7277777777777601,0.9389312977099419,0.03594429967916301,0.9731502118070204,55.55555555555556,0.9523809523646259,0.9694656488549857,0.0,0.9982562575574543,0
59,40.43333333333333,0.7055555555555557,0.69166666666667,0.7277777777777601,0.9694656488549857,0.03775401230274051,1.0221460814905021,61.111111111111114,1.0476190476010885,0.9503816793893406,0.0,0.9979025681119633,0
60,41.125,0.69166666666667,0.68888888888889,0.7277777777777601,0.9503816793893406,0.03701102317708002,1.0020305129174423,61.111111111111114,1.0476190476010885,0.9465648854962078,0.0,0.9994776749549653,0
61,41.81388888888889,0.68888888888889,0.7027777777777757,0.7277777777777601,0.9465648854962078,0.036142150154911526,0.978506783894928,55.55555555555556,0.9523809523646259,0.9656488549618527,0.0,0.9994209423445091,0
62,42.516666666666666,0.7027777777777757,0.7083333333333357,0.7277777777777601,0.9656488549618527,0.038454437202781674,1.0411092730372582,58.333333333333336,0.9999999999828572,0.9732824427481185,0.0,0.9991094372517726,0
63,43.225,0.7083333333333357,0.6944444444444429,0.7277777777777601,0.9732824427481185,0.035688308662676915,0.9662195520323761,58.333333333333336,0.9999999999828572,0.9541984732824638,0.0,0.9990642240258185,0
64,43.919444444444444,0.6944444444444429,0.6944444444444429,0.7277777777777601,0.9541984732824638,0.03732587586272799,1.0105547840942695,61.111111111111114,1.0476190476010885,0.9541984732824638,0.0,0.9993757645124064,0
65,44.61388888888889,0.6944444444444429,0.6944444444444429,0.7277777777777601,0.9541984732824638,0.03754258127931542,1.0164218318301874,61.111111111111114,1.0476190476010885,0.9541984732824638,0.0,0.9996535845303405,0
66,45.30833333333333,0.6944444444444429,0.7055555555555557,0.7277777777777601,0.9541984732824638,0.03760870216809909,1.0182119781815988,58.333333333333336,0.9999999999828572,0.9694656488549857,0.0,0.9982725926097142,0
67,46.013888888888886,0.7055555555555557,0.7083333333333357,0.7277777777777601,0.9694656488549857,0.03808225926712072,1.031032987224175,61.111111111111114,1.0476190476010885,0.9732824427481185,0.0,0.9982384129852786,0
68,46.72222222222222,0.7083333333333357,0.7083333333333357,0.7277777777777601,0.9732824427481185,0.03738638408812099,1.0121929740961018,58.333333333333336,0.9999999999828572,0.9732824427481185,0.0,0.9984181099835181,0
69,47.43055555555556,0.7083333333333357,0.6777777777777771,0.7277777777777601,0.9732824427481185,0.03892467621630068,1.0538404487644408,63.888888888888886,1.0952380952193197,0.9312977099236859,0.0,0.9979547356717806,0
70,48.108333333333334,0.6777777777777771,0.7027777777777757,0.7277777777777601,0.9312977099236859,0.03328320954593137,0.9011042838043346,55.55555555555556,0.9523809523646259,0.9656488549618527,0.0,0.9958171103491271,0
71,48.81111111111111,0.7027777777777757,0.7083333333333357,0.7277777777777601,0.9656488549618527,0.038100418660292706,1.0315246317260667,61.111111111111114,1.0476190476010885,0.9732824427481185,0.0,0.998711140097475,0
72,49.519444444444446,0.7083333333333357,0.7027777777777757,0.7277777777777601,0.9732824427481185,0.03682353016814699,0.9969543572269952,58.333333333333336,0.9999999999828572,0.9656488549618527,0.0,0.9995559062639666,0
73,50.22222222222222,0.7027777777777757,0.7111111111111086,0.7277777777777601,0.9656488549618527,0.038282874328852995,1.036464407270164,61.111111111111114,1.0476190476010885,0.9770992366412417,0.0,0.9988812156385185,0
74,50.93333333333333,0.7111111111111086,0.7250000000000014,0.7277777777777601,0.9770992366412417,0.03653957579850142,0.9892666221081969,58.333333333333336,0.9999999999828572,0.9961832061068964,0.0,0.9982014204990564,0
75,51.65833333333333,0.7250000000000014,0.7250000000000014,0.7277777777777601,0.9961832061068964,0.03737472654555486,1.0118773596560198,58.333333333333336,0.9999999999828572,0.9961832061068964,0.0,0.9997984000245841,0
76,52.38333333333333,0.7250000000000014,0.7111111111111086,0.7277777777777601,0.9961832061068964,0.03478390016657294,0.9417337412807519,55.55555555555556,0.9523809523646259,0.9770992366412417,0.0,0.998902326030361,0
77,53.09444444444444,0.7111111111111086,0.6833333333333371,0.7277777777777601,0.9770992366412417,0.03585027844792361,0.9706046960531547,58.333333333333336,0.9999999999828572,0.9389312977099517,0.0,0.9986125619729209,0
78,53.77777777777778,0.6833333333333371,0.75,0.7277777777777601,0.9389312977099517,0.036137802947216316,0.9783890882901416,58.333333333333336,0.9999999999828572,1.0305343511450633,0.0,0.9982703255456522,0
79,54.52777777777778,0.75,0.7083333333333357,0.7277777777777601,1.0305343511450633,0.0400328040170484,1.083841723337389,61.111111111111114,1.0476190476010885,0.9732824427481185,0.0,0.997572974539223,0
80,55.236111111111114,0.7083333333333357,0.7249999999999943,0.7277777777777601,0.9732824427481185,0.03520059925828435,0.9530153857411621,55.55555555555556,0.9523809523646259,0.9961832061068866,0.0,0.9981411874081831,0
81,55.96111111111111,0.7249999999999943,0.7111111111111157,0.7277777777777601,0.9961832061068866,0.03912323209084754,1.059216118706421,61.111111111111114,1.0476190476010885,0.9770992366412514,0.0,0.9984103721444607,0
82,56.672222222222224,0.7111111111111157,0.7250000000000014,0.7277777777777601,0.9770992366412514,0.03670419438847237,0.9937234794437835,58.333333333333336,0.9999999999828572,0.9961832061068964,0.0,0.9981104084707391,0
83,57.397222222222226,0.7250000000000014,0.6749999999999972,0.7277777777777601,0.9961832061068964,0.036458767810960434,0.98707883959767,58.333333333333336,0.9999999999828572,0.9274809160305529,0.0,0.9987203154968234,0
84,58.07222222222222,0.6749999999999972,0.7194444444444414,0.7277777777777601,0.9274809160305529,0.034738689960972104,0.9405097274162726,52.77777777777778,0.9047619047463946,0.9885496183206306,0.0,0.9984062115316636,0
85,58.791666666666664,0.7194444444444414,0.7111111111111157,0.7277777777777601,0.9885496183206306,0.03870267714059972,1.0478300813496435,61.111111111111114,1.0476190476010885,0.9770992366412514,0.0,0.998449942912633,0
86,59.50277777777778,0.7111111111111157,0.7111111111111086,0.7277777777777601,0.9770992366412514,0.03786778112890767,1.0252262404661905,58.333333333333336,0.9999999999828572,0.9770992366412417,0.0,0.9986584970306811,0
87,60.21388888888889,0.7111111111111086,0.6611111111111114,0.7277777777777601,0.9770992366412417,0.03757965961261257,1.0174256846865135,61.111111111111114,1.0476190476010885,0.908396946564908,0.0,0.9987550859143705,0
88,60.875,0.6611111111111114,0.6722222222222243,0.7277777777777601,0.908396946564908,0.036237060265624045,0.9810763650292644,58.333333333333336,0.9999999999828572,0.9236641221374299,0.0,0.9985434676506776,0
89,61.547222222222224,0.6722222222222243,0.6916666666666629,0.7277777777777601,0.9236641221374299,0.03728176058343666,1.009360414089304,55.55555555555556,0.9523809523646259,0.9503816793893308,0.0,0.9973512013059662,0
90,62.23888888888889,0.6916666666666629,0.7027777777777828,0.7277777777777601,0.9503816793893308,0.04001099479604546,1.0832512639814464,61.111111111111114,1.0476190476010885,0.9656488549618625,0.0,0.9975597936707452,0
91,62.94166666666667,0.7027777777777828,0.6777777777777771,0.7277777777777601,0.9656488549618625,0.037508136458951555,1.01548927828117,55.55555555555556,0.9523809523646259,0.9312977099236859,0.0,0.9975704457458557,0
92,63.61944444444445,0.6777777777777771,0.6722222222222243,0.7277777777777601,0.9312977099236859,0.037287113375925454,1.009505334735713,61.111111111111114,1.0476190476010885,0.9236641221374299,0.0,0.9990460185694588,0
93,64.29166666666667,0.6722222222222243,0.6555555555555515,0.7277777777777601,0.9236641221374299,0.035685971569506356,0.9661562779462416,58.333333333333336,0.9999999999828572,0.9007633587786422,0.0,0.9991242315252852,0
94,64.94722222222222,0.6555555555555515,0.7055555555555486,0.7277777777777601,0.9007633587786422,0.03854487547808439,1.0435577844160269,58.333333333333336,0.9999999999828572,0.9694656488549759,0.0,0.9986863854078587,0
95,65.65277777777777,0.7055555555555486,0.6805555555555571,0.7277777777777601,0.9694656488549759,0.03751087907272427,1.0155635313671292,58.333333333333336,0.9999999999828572,0.9351145038168188,0.0,0.9988483422921819,0
96,66.33333333333333,0.6805555555555571,0.6944444444444429,0.7277777777777601,0.9351145038168188,0.03735687824618715,1.0113941376579527,55.55555555555556,0.9523809523646259,0.9541984732824638,0.0,0.9978489626796001,0
97,67.02777777777777,0.6944444444444429,0.6861111111111171,0.7277777777777601,0.9541984732824638,0.03531795790374324,0.9561927349093226,55.55555555555556,0.9523809523646259,0.9427480916030846,0.0,0.9992266915435084,0
98,67.71388888888889,0.6861111111111171,0.6916666666666629,0.7277777777777601,0.9427480916030846,0.03772946299043607,1.0214814373415821,61.111111111111114,1.0476190476010885,0.9503816793893308,0.0,0.9984164536241672,0
99,68.40555555555555,0.6916666666666629,0.6944444444444429,0.7277777777777601,0.9503816793893308,0.03868237885107261,1.0472805287104507,58.333333333333336,0.9999999999828572,0.9541984732824638,0.0,0.9989356493643904,0
100,69.1,0.6944444444444429,0.6944444444444571,0.7277777777777601,0.9541984732824638,0.03810775664909033,1.0317232992593441,58.333333333333336,0.9999999999828572,0.9541984732824833,0.0,0.9983814164935756,0
101,69.79444444444445,0.6944444444444571,0.6972222222222086,0.7277777777777601,0.9541984732824833,0.03636140245498926,0.984442785546492,55.55555555555556,0.9523809523646259,0.9580152671755772,0.0,0.9988510672720938,0
102,70.49166666666666,0.6972222222222086,0.7111111111111228,0.7277777777777601,0.9580152671755772,0.037431410989440125,1.0134120252098207,58.333333333333336,0.9999999999828572,0.9770992366412612,0.0,0.9994704917821488,0
103,71.20277777777778,0.7111111111111228,0.6888888888888829,0.7277777777777601,0.9770992366412612,0.03885317478439846,1.0519046304505155,61.111111111111114,1.0476190476010885,0.946564885496198,0.0,0.9982369311125363,0
104,71.89166666666667,0.6888888888888829,0.6888888888888829,0.7277777777777601,0.946564885496198,0.03631078202772806,0.9830722962074118,58.333333333333336,0.9999999999828572,0.946564885496198,0.0,0.9981072203304469,0
105,72.58055555555555,0.6888888888888829,0.6833333333333371,0.7277777777777601,0.946564885496198,0.03681978049564843,0.9968528391944073,55.55555555555556,0.9523809523646259,0.9389312977099517,0.0,0.9906594461892444,0
106,73.26388888888889,0.6833333333333371,0.6972222222222229,0.7277777777777601,0.9389312977099517,0.036982278982942644,1.0012522972097309,61.111111111111114,1.0476190476010885,0.9580152671755967,0.0,0.9976232967604114,0
107,73.96111111111111,0.6972222222222229,0.6805555555555571,0.7277777777777601,0.9580152671755967,0.03562695426816369,0.9645584529833257,58.333333333333336,0.9999999999828572,0.9351145038168188,0.0,0.9974688198289927,0
108,74.64166666666667,0.6805555555555571,0.6777777777777771,0.7277777777777601,0.9351145038168188,0.036787517241273805,0.9959793490135302,58.333333333333336,0.9999999999828572,0.9312977099236859,0.0,0.9988021817572356,0
109,75.31944444444444,0.6777777777777771,0.6805555555555571,0.7277777777777601,0.9312977099236859,0.03799970001621852,1.028797791289931,61.111111111111114,1.0476190476010885,0.9351145038168188,0.0,0.9979798621115287,0
110,76.0,0.6805555555555571,0.7027777777777828,0.7277777777777601,0.9351145038168188,0.03760188427399537,1.0180273916087532,58.333333333333336,0.9999999999828572,0.9656488549618625,0.0,0.9984838048743039,0
111,76.70277777777778,0.7027777777777828,0.6833333333333229,0.7277777777777601,0.9656488549618625,0.036118831171074416,0.9778754494618533,58.333333333333336,0.9999999999828572,0.9389312977099321,0.0,0.9994197251436117,0
112,77.3861111111111,0.6833333333333229,0.6888888888888971,0.7277777777777601,0.9389312977099321,0.036003816045543674,0.9747615483768327,58.333333333333336,0.9999999999828572,0.9465648854962175,0.0,0.9991782156598461,0
113,78.075,0.6888888888888971,0.7027777777777686,0.7277777777777601,0.9465648854962175,0.037039215818514305,1.0027937959756201,58.333333333333336,0.9999999999828572,0.9656488549618429,0.0,0.9997340282267315,0
114,78.77777777777777,0.7027777777777686,0.7055555555555628,0.7277777777777601,0.9656488549618429,0.038806774978336255,1.0506484095337,61.111111111111114,1.0476190476010885,0.9694656488549954,0.0,0.9983796108331155,0
115,79.48333333333333,0.7055555555555628,0.7083333333333286,0.7277777777777601,0.9694656488549954,0.036104470623130235,0.9774866542871445,58.333333333333336,0.9999999999828572,0.9732824427481087,0.0,0.9986668554071969,0
116,80.19166666666666,0.7083333333333286,0.7055555555555628,0.7277777777777601,0.9732824427481087,0.03796131220728092,1.0277584858998727,61.111111111111114,1.0476190476010885,0.9694656488549954,0.0,0.9990777350936032,0
117,80.89722222222223,0.7055555555555628,0.7083333333333286,0.7277777777777601,0.9694656488549954,0.03586311544582779,0.9709522428781291,55.55555555555556,0.9523809523646259,0.9732824427481087,0.0,0.9975249951330484,0
118,81.60555555555555,0.7083333333333286,0.7083333333333286,0.7277777777777601,0.9732824427481087,0.0385552208433002,1.0438378731767162,63.888888888888886,1.0952380952193197,0.9732824427481087,0.0,0.9977260858087731,0
119,82.31388888888888,0.7083333333333286,0.7138888888888886,0.7277777777777601,0.9732824427481087,0.03670063425198747,0.9936270928788686,58.333333333333336,0.9999999999828572,0.9809160305343746,0.0,0.998466033847268,0
120,83.02777777777777,0.7138888888888886,0.7111111111111228,0.7277777777777601,0.9809160305343746,0.03663978157725364,0.9919795773107581,58.333333333333336,0.9999999999828572,0.9770992366412612,0.0,0.999583734682963,0
121,83.7388888888889,0.7111111111111228,0.7166666666666544,0.7277777777777601,0.9770992366412612,0.036904014643403545,0.999133381017755,61.111111111111114,1.0476190476010885,0.9847328244274879,0.0,0.9996860454485312,0
122,84.45555555555555,0.7166666666666544,0.7111111111111228,0.7277777777777601,0.9847328244274879,0.03839463879805829,1.039490300606533,61.111111111111114,1.0476190476010885,0.9770992366412612,0.0,0.9985811645257661,0
123,85.16666666666667,0.7111111111111228,0.6749999999999972,0.7277777777777601,0.9770992366412612,0.03525465848328755,0.9544789765394683,55.55555555555556,0.9523809523646259,0.9274809160305529,0.0,0.9992463788602821,0
124,85.84166666666667,0.6749999999999972,0.6861111111111029,0.7277777777777601,0.9274809160305529,0.03673595340664523,0.9945833180145047,58.333333333333336,0.9999999999828572,0.942748091603065,0.0,0.9988547278493195,0
125,86.52777777777777,0.6861111111111029,0.7027777777777828,0.7277777777777601,0.942748091603065,0.03651871622868961,0.9887018734564841,55.55555555555556,0.9523809523646259,0.9656488549618625,0.0,0.9983375928300644,0
126,87.23055555555555,0.7027777777777828,0.6972222222222229,0.7277777777777601,0.9656488549618625,0.039017516097801117,1.0563539808447073,61.111111111111114,1.0476190476010885,0.9580152671755967,0.0,0.9985815149301229,0
127,87.92777777777778,0.6972222222222229,0.6972222222222229,0.7277777777777601,0.9580152671755967,0.03819560756392746,1.0341017608553216,61.111111111111114,1.0476190476010885,0.9580152671755967,0.0,0.9992073494964384,0
128,88.625,0.6972222222222229,0.6555555555555515,0.7277777777777601,0.9580152671755967,0.03679041165078949,0.9960577117931193,58.333333333333336,0.9999999999828572,0.9007633587786422,0.0,0.9994536892309893,0
129,89.28055555555555,0.6555555555555515,0.6833333333333371,0.7277777777777601,0.9007633587786422,0.03656925420659192,0.9900701305748288,58.333333333333336,0.9999999999828572,0.9389312977099517,0.0,0.9987904145030546,0
130,89.96388888888889,0.6833333333333371,0.7055555555555628,0.7277777777777601,0.9389312977099517,0.039429649782913356,1.0675120222181573,58.333333333333336,0.9999999999828572,0.9694656488549954,0.0,0.9979927297888611,0
131,90.66944444444445,0.7055555555555628,0.6888888888888829,0.7277777777777601,0.9694656488549954,0.03760469127641058,1.0181033879425052,58.333333333333336,0.9999999999828572,0.946564885496198,0.0,0.9991160456540767,0
132,91.35833333333333,0.6888888888888829,0.6972222222222229,0.7277777777777601,0.946564885496198,0.0376516050075063,1.0193735227833554,55.55555555555556,0.9523809523646259,0.9580152671755967,0.0,0.9982569946712072,0
133,92.05555555555556,0.6972222222222229,0.7083333333333286,0.7277777777777601,0.9580152671755967,0.036780759480159526,0.9957963904716084,55.55555555555556,0.9523809523646259,0.9732824427481087,0.0,0.9995299024766351,0
134,92.76388888888889,0.7083333333333286,0.6749999999999972,0.7277777777777601,0.9732824427481087,0.038400280864253226,1.0396430530029253,61.111111111111114,1.0476190476010885,0.9274809160305529,0.0,0.9985868985662496,0
135,93.43888888888888,0.6749999999999972,0.6944444444444571,0.7277777777777601,0.9274809160305529,0.03665651482392688,0.9924326105507888,58.333333333333336,0.9999999999828572,0.9541984732824833,0.0,0.9985021950087267,0
136,94.13333333333334,0.6944444444444571,0.6888888888888829,0.7277777777777601,0.9541984732824833,0.03746461481046361,1.0143109801414851,55.55555555555556,0.9523809523646259,0.946564885496198,0.0,0.9978099568225807,0
137,94.82222222222222,0.6888888888888829,0.7138888888888886,0.7277777777777601,0.946564885496198,0.03861878788537632,1.0455588770914532,58.333333333333336,0.9999999999828572,0.9809160305343746,0.0,0.9981254321828011,0
138,95.53611111111111,0.7138888888888886,0.6638888888888914,0.7277777777777601,0.9809160305343746,0.037347426620075036,1.0111382458465938,55.55555555555556,0.9523809523646259,0.9122137404580409,0.0,0.9987498352201504,0
139,96.2,0.6638888888888914,0.6722222222222172,0.7277777777777601,0.9122137404580409,0.037150523188973245,1.0058073138937502,58.333333333333336,0.9999999999828572,0.9236641221374201,0.0,0.9987426475649626,0
140,96.87222222222222,0.6722222222222172,0.6638888888888914,0.7277777777777601,0.9236641221374201,0.03741394243220062,1.012939084289304,61.111111111111114,1.0476190476010885,0.9122137404580409,0.0,0.9978769336109068,0
141,97.53611111111111,0.6638888888888914,0.6888888888888829,0.7277777777777601,0.9122137404580409,0.0347522767406721,0.9408775737134837,55.55555555555556,0.9523809523646259,0.946564885496198,0.0,0.9966148234013112,0
142,98.225,0.6888888888888829,0.6666666666666714,0.7277777777777601,0.946564885496198,0.03840041746098424,1.0396467512009402,58.333333333333336,0.9999999999828572,0.9160305343511738,0.0,0.9980971898827241,0
143,98.89166666666667,0.6666666666666714,0.6722222222222172,0.7277777777777601,0.9160305343511738,0.03877650943523982,1.049829005067967,61.111111111111114,1.0476190476010885,0.9236641221374201,0.0,0.9985659405500652,0
144,99.56388888888888,0.6722222222222172,0.6500000000000057,0.7277777777777601,0.9236641221374201,0.03593530011890209,0.9729065591541032,55.55555555555556,0.9523809523646259,0.8931297709923959,0.0,0.9978224408728872,0
145,100.21388888888889,0.6500000000000057,0.6611111111111114,0.7277777777777601,0.8931297709923959,0.03648201931120491,0.9877083469907673,58.333333333333336,0.9999999999828572,0.908396946564908,0.0,0.9991314094691064,0
146,100.875,0.6611111111111114,0.7000000000000028,0.7277777777777601,0.908396946564908,0.038984727952241775,1.0554662798439747,58.333333333333336,0.9999999999828572,0.9618320610687295,0.0,0.9981121749123378,0
147,101.575,0.7000000000000028,0.6722222222222172,0.7277777777777601,0.9618320610687295,0.03896935093751177,1.0550499650103282,58.333333333333336,0.9999999999828572,0.9236641221374201,0.0,0.9978423895332669,0
148,102.24722222222222,0.6722222222222172,0.6861111111111171,0.7277777777777601,0.9236641221374201,0.03751284641229216,1.0156167948034536,58.333333333333336,0.9999999999828572,0.9427480916030846,0.0,0.997798273709828,0
149,102.93333333333334,0.6861111111111171,0.7027777777777686,0.7277777777777601,0.9427480916030846,0.03797156533542115,1.028036077448753,58.333333333333336,0.9999999999828572,0.9656488549618429,0.0,0.9992920702002722,0
150,103.6361111111111,0.7027777777777686,0.6916666666666771,0.7277777777777601,0.9656488549618429,0.038154455694791825,1.03298762174222,61.111111111111114,1.0476190476010885,0.9503816793893504,0.0,0.99812897739011,0
151,104.32777777777778,0.6916666666666771,0.6749999999999972,0.7277777777777601,0.9503816793893504,0.036628318008504475,0.9916692144867252,58.333333333333336,0.9999999999828572,0.9274809160305529,0.0,0.998213698518121,0
152,105.00277777777778,0.6749999999999972,0.6888888888888829,0.7277777777777601,0.9274809160305529,0.038410059353791506,1.0399077942623258,61.111111111111114,1.0476190476010885,0.946564885496198,0.0,0.9987224506499301,0
153,105.69166666666666,0.6888888888888829,0.7055555555555628,0.7277777777777601,0.946564885496198,0.03446036599969775,0.9329744290718144,55.55555555555556,0.9523809523646259,0.9694656488549954,0.0,0.9969847901053511,0
154,106.39722222222223,0.7055555555555628,0.6944444444444429,0.7277777777777601,0.9694656488549954,0.03811297612188109,1.0318646104296043,61.111111111111114,1.0476190476010885,0.9541984732824638,0.0,0.9986028439363759,0
155,107.09166666666667,0.6944444444444429,0.7000000000000028,0.7277777777777601,0.9541984732824638,0.03453717860075253,0.9350540411286113,55.55555555555556,0.9523809523646259,0.9618320610687295,0.0,0.9972496078456976,0
156,107.79166666666667,0.7000000000000028,0.7027777777777686,0.7277777777777601,0.9618320610687295,0.03740452491707211,1.0126841159932511,61.111111111111114,1.0476190476010885,0.9656488549618429,0.0,0.9983528183755987,0
157,108.49444444444444,0.7027777777777686,0.7361111111111143,0.7277777777777601,0.9656488549618429,0.035269006681234755,0.9548674373523373,55.55555555555556,0.9523809523646259,1.0114503816794183,0.0,0.9977521791371982,0
158,109.23055555555555,0.7361111111111143,0.7222222222222285,0.7277777777777601,1.0114503816794183,0.03925950450597519,1.062905536244908,63.888888888888886,1.0952380952193197,0.9923664122137732,0.0,0.9969515428782987,0
159,109.95277777777778,0.7222222222222285,0.7166666666666686,0.7277777777777601,0.9923664122137732,0.03507270766996159,0.9495528693651153,55.55555555555556,0.9523809523646259,0.9847328244275074,0.0,0.9976772262899043,0
160,110.66944444444445,0.7166666666666686,0.7111111111111086,0.7277777777777601,0.9847328244275074,0.036624797863759086,0.9915739106517599,58.333333333333336,0.9999999999828572,0.9770992366412417,0.0,0.9993578179513671,0
161,111.38055555555556,0.7111111111111086,0.7305555555555543,0.7277777777777601,0.9770992366412417,0.037259732588337965,1.0087640316785373,58.333333333333336,0.9999999999828572,1.0038167938931524,0.0,0.9984676855912318,0
162,112.11111111111111,0.7305555555555543,0.7027777777777686,0.7277777777777601,1.0038167938931524,0.03676365082558941,0.9953331934983122,58.333333333333336,0.9999999999828572,0.9656488549618429,0.0,0.9998138695798078,0
163,112.81388888888888,0.7027777777777686,0.7222222222222285,0.7277777777777601,0.9656488549618429,0.036934342637970595,0.9999544762845997,58.333333333333336,0.9999999999828572,0.9923664122137732,0.0,0.9986754216466063,0
164,113.53611111111111,0.7222222222222285,0.7111111111111086,0.7277777777777601,0.9923664122137732,0.036179539671634973,0.979519061681491,58.333333333333336,0.9999999999828572,0.9770992366412417,0.0,0.9992223198765086,0
165,114.24722222222222,0.7111111111111086,0.7305555555555543,0.7277777777777601,0.9770992366412417,0.03996169111860116,1.0819164241159864,61.111111111111114,1.0476190476010885,1.0038167938931524,0.0,0.9985238505149969,0
166,114.97777777777777,0.7305555555555543,0.7055555555555628,0.7277777777777601,1.0038167938931524,0.03678724849121596,0.9959720729175137,58.333333333333336,0.9999999999828572,0.9694656488549954,0.0,0.9995856505078706,0
167,115.68333333333334,0.7055555555555628,0.7194444444444343,0.7277777777777601,0.9694656488549954,0.03712667451986072,1.0051616388463764,61.111111111111114,1.0476190476010885,0.9885496183206208,0.0,0.9997696150204725,0
168,116.40277777777777,0.7194444444444343,0.7138888888888886,0.7277777777777601,0.9885496183206208,0.03678345738334103,0.9958694330701832,58.333333333333336,0.9999999999828572,0.9809160305343746,0.0,0.9991127260866335,0
169,117.11666666666666,0.7138888888888886,0.7166666666666686,0.7277777777777601,0.9809160305343746,0.038810234766427545,1.0507420792822806,63.888888888888886,1.0952380952193197,0.9847328244275074,0.0,0.9987370197767623,0
170,117.83333333333333,0.7166666666666686,0.7083333333333428,0.7277777777777601,0.9847328244275074,0.03694677756513616,1.0002911375108021,58.333333333333336,0.9999999999828572,0.9732824427481283,0.0,0.9996771197864887,0
171,118.54166666666667,0.7083333333333428,0.7138888888888886,0.7277777777777601,0.9732824427481283,0.03687981206461859,0.9984781242766004,58.333333333333336,0.9999999999828572,0.9809160305343746,0.0,0.9984502543905889,0
172,119.25555555555556,0.7138888888888886,0.7333333333333343,0.7277777777777601,0.9809160305343746,0.03775904973715328,1.0222824641828763,58.333333333333336,0.9999999999828572,1.0076335877862854,0.0,0.9997811031848975,0
173,119.9888888888889,0.7333333333333343,0.7194444444444343,0.7277777777777601,1.0076335877862854,0.03862836665981076,1.0458182112961236,61.111111111111114,1.0476190476010885,0.9885496183206208,0.0,0.9983460181781498,0
174,120.70833333333333,0.7194444444444343,0.7222222222222285,0.7277777777777601,0.9885496183206208,0.03451799905425064,0.9345347771588782,55.55555555555556,0.9523809523646259,0.9923664122137732,0.0,0.9977945074738497,0
175,121.43055555555556,0.7222222222222285,0.7027777777777828,0.7277777777777601,0.9923664122137732,0.03698683625411157,1.0013756800393556,58.333333333333336,0.9999999999828572,0.9656488549618625,0.0,0.998503543006293,0
176,122.13333333333334,0.7027777777777828,0.74166666666666,0.7277777777777601,0.9656488549618625,0.03531332467330869,0.9560672955707075,55.55555555555556,0.9523809523646259,1.0190839694656646,0.0,0.9990288343395735,0
177,122.875,0.74166666666666,0.74166666666666,0.7277777777777601,1.0190839694656646,0.036821854452280485,0.9969089891640486,58.333333333333336,0.9999999999828572,1.0190839694656646,0.0,0.9981063944504094,0
178,123.61666666666666,0.74166666666666,0.76111111111112,0.7277777777777601,1.0190839694656646,0.03808057284392496,1.0309873292727112,61.111111111111114,1.0476190476010885,1.0458015267175949,0.0,0.9990462776611242,0
179,124.37777777777778,0.76111111111112,0.74166666666666,0.7277777777777601,1.0458015267175949,0.03531273105041535,0.9560512239195823,55.55555555555556,0.9523809523646259,1.0190839694656646,0.0,0.9987874282479394,0
180,125.11944444444444,0.74166666666666,0.7416666666666742,0.7277777777777601,1.0190839694656646,0.036674323581537674,0.992914762001663,58.333333333333336,0.9999999999828572,1.0190839694656841,0.0,0.9995998040403209,0
181,125.86111111111111,0.7416666666666742,0.73888888888888,0.7277777777777601,1.0190839694656841,0.037865096804539734,1.025153565498239,58.333333333333336,0.9999999999828572,1.0152671755725315,0.0,0.9979329539396931,0
182,126.6,0.73888888888888,0.7250000000000085,0.7277777777777601,1.0152671755725315,0.036962867622371186,1.0007267571430112,58.333333333333336,0.9999999999828572,0.9961832061069061,0.0,0.9988343223442204,0
183,127.325,0.7250000000000085,0.7388888888888943,0.7277777777777601,0.9961832061069061,0.03740859615146873,1.012794339941158,58.333333333333336,0.9999999999828572,1.015267175572551,0.0,0.9996296651106187,0
184,128.0638888888889,0.7388888888888943,0.7249999999999943,0.7277777777777601,1.015267175572551,0.03829292620928766,1.0367365502709005,61.111111111111114,1.0476190476010885,0.9961832061068866,0.0,0.998853079390587,0
185,128.7888888888889,0.7249999999999943,0.7138888888888744,0.7277777777777601,0.9961832061068866,0.03741790297783424,1.013046311467372,61.111111111111114,1.0476190476010885,0.980916030534355,0.0,0.9982309774970576,0
186,129.50277777777777,0.7138888888888744,0.7027777777777828,0.7277777777777601,0.980916030534355,0.03712803010689819,1.0051983397926851,58.333333333333336,0.9999999999828572,0.9656488549618625,0.0,0.9987495464849303,0
187,130.20555555555555,0.7027777777777828,0.7277777777777885,0.7277777777777601,0.9656488549618625,0.036677470744909825,0.9929999677986749,55.55555555555556,0.9523809523646259,1.000000000000039,0.0,0.9988387932354056,0
188,130.93333333333334,0.7277777777777885,0.7138888888888744,0.7277777777777601,1.000000000000039,0.039985502123764734,1.0825610794556397,61.111111111111114,1.0476190476010885,0.980916030534355,0.0,0.9981950228444633,0
189,131.6472222222222,0.7138888888888744,0.7027777777777828,0.7277777777777601,0.980916030534355,0.03667687130275633,0.9929837385978323,58.333333333333336,0.9999999999828572,0.9656488549618625,0.0,0.9979160891297019,0
190,132.35,0.7027777777777828,0.6944444444444571,0.7277777777777601,0.9656488549618625,0.0367678105770086,0.9954458139419091,61.111111111111114,1.0476190476010885,0.9541984732824833,0.0,0.9986331402559945,0
191,133.04444444444445,0.6944444444444571,0.7277777777777601,0.7277777777777601,0.9541984732824833,0.03650388457499034,0.9883003236400257,58.333333333333336,0.9999999999828572,1.0,0.0,0.9994733887214371,0
192,133.7722222222222,0.7277777777777601,0.6972222222222229,0.7277777777777601,1.0,0.038619213875867565,1.0455704102897763,58.333333333333336,0.9999999999828572,0.9580152671755967,0.0,0.9989157084555367,0
193,134.46944444444443,0.6972222222222229,0.6944444444444571,0.7277777777777601,0.9580152671755967,0.03674199702973998,0.9947469420980793,58.333333333333336,0.9999999999828572,0.9541984732824833,0.0,0.9978261056559784,0
194,135.1638888888889,0.6944444444444571,0.6916666666666629,0.7277777777777601,0.9541984732824833,0.03525823002375361,0.9545756718539423,55.55555555555556,0.9523809523646259,0.9503816793893308,0.0,0.9982174826072914,0
195,135.85555555555555,0.6916666666666629,0.7055555555555486,0.7277777777777601,0.9503816793893308,0.03711786241182606,1.0049230612450057,63.888888888888886,1.0952380952193197,0.9694656488549759,0.0,0.9990833466681883,0
196,136.5611111111111,0.7055555555555486,0.6805555555555713,0.7277777777777601,0.9694656488549759,0.03564825757015613,0.9651352151690181,58.333333333333336,0.9999999999828572,0.9351145038168384,0.0,0.9994634361400279,0
197,137.24166666666667,0.6805555555555713,0.7055555555555486,0.7277777777777601,0.9351145038168384,0.039422359382430126,1.067314643083281,58.333333333333336,0.9999999999828572,0.9694656488549759,0.0,0.9988947192910655,0
198,137.94722222222222,0.7055555555555486,0.6805555555555429,0.7277777777777601,0.9694656488549759,0.03999782172811573,1.0828946184504336,61.111111111111114,1.0476190476010885,0.9351145038167993,0.0,0.9972886179747074,0
199,138.62777777777777,0.6805555555555429,0.700000000000017,0.7277777777777601,0.9351145038167993,0.03630152962295998,0.9828217980828092,55.55555555555556,0.9523809523646259,0.9618320610687491,0.0,0.9988740168753651,0
200,139.32777777777778,0.700000000000017,0.6861111111111029,0.7277777777777601,0.9618320610687491,0.03690137230163726,0.9990618426800357,58.333333333333336,0.9999999999828572,0.942748091603065,0.0,0.9997152409718704,0
201,140.01388888888889,0.6861111111111029,0.6750000000000114,0.7277777777777601,0.942748091603065,0.03753718155424613,1.0162756405386117,61.111111111111114,1.0476190476010885,0.9274809160305725,0.0,0.998913994538541,0
202,140.6888888888889,0.6750000000000114,0.6999999999999886,0.7277777777777601,0.9274809160305725,0.03701566732951462,1.002156247956537,58.333333333333336,0.9999999999828572,0.96183206106871,0.0,0.9986265662836824,0
203,141.38888888888889,0.6999999999999886,0.700000000000017,0.7277777777777601,0.96183206106871,0.037049083427303564,1.003060950035346,58.333333333333336,0.9999999999828572,0.9618320610687491,0.0,0.9994860246875226,0
204,142.0888888888889,0.700000000000017,0.6916666666666629,0.7277777777777601,0.9618320610687491,0.03533505188415764,0.9566555345968776,55.55555555555556,0.9523809523646259,0.9503816793893308,0.0,0.9983907860936243,0
205,142.78055555555557,0.6916666666666629,0.674999999999983,0.7277777777777601,0.9503816793893308,0.039084633937253,1.0581711184788145,58.333333333333336,0.9999999999828572,0.9274809160305335,0.0,0.9987224821327751,0
206,143.45555555555555,0.674999999999983,0.6666666666666856,0.7277777777777601,0.9274809160305335,0.035481637051490544,0.96062415793663,55.55555555555556,0.9523809523646259,0.9160305343511933,0.0,0.999137583704182,0
207,144.12222222222223,0.6666666666666856,0.7055555555555486,0.7277777777777601,0.9160305343511933,0.03590524128180534,0.9720927510134946,58.333333333333336,0.9999999999828572,0.9694656488549759,0.0,0.9994440655796246,0
208,144.82777777777778,0.7055555555555486,0.6833333333333371,0.7277777777777601,0.9694656488549759,0.038136545368622606,1.0325027204404646,61.111111111111114,1.0476190476010885,0.9389312977099517,0.0,0.9979389780640896,0
209,145.51111111111112,0.6833333333333371,0.6805555555555429,0.7277777777777601,0.9389312977099517,0.03716245277102721,1.0061302934873495,58.333333333333336,0.9999999999828572,0.9351145038167993,0.0,0.9995311661914963,0
210,146.19166666666666,0.6805555555555429,0.6638888888888914,0.7277777777777601,0.9351145038167993,0.036858579694405806,0.9979032824865482,58.333333333333336,0.9999999999828572,0.9122137404580409,0.0,0.9990962753306378,0
211,146.85555555555555,0.6638888888888914,0.6861111111111029,0.7277777777777601,0.9122137404580409,0.03742118194940783,1.0131350858185162,58.333333333333336,0.9999999999828572,0.942748091603065,0.0,0.9992726341429001,0
212,147.54166666666666,0.6861111111111029,0.6555555555555657,0.7277777777777601,0.942748091603065,0.035747580878915726,0.9678242785203568,58.333333333333336,0.9999999999828572,0.9007633587786618,0.0,0.9995128315466609,0
213,148.19722222222222,0.6555555555555657,0.6805555555555429,0.7277777777777601,0.9007633587786618,0.03599859385215289,0.9746201635494832,58.333333333333336,0.9999999999828572,0.9351145038167993,0.0,0.9994236979397976,0
214,148.87777777777777,0.6805555555555429,0.6916666666666913,0.7277777777777601,0.9351145038167993,0.0369374380768044,1.0000382816997457,58.333333333333336,0.9999999999828572,0.9503816793893699,0.0,0.9986842389447235,0
215,149.56944444444446,0.6916666666666913,0.6972222222222229,0.7277777777777601,0.9503816793893699,0.036671394445246835,0.992835459034926,58.333333333333336,0.9999999999828572,0.9580152671755967,0.0,0.998801585602029,0
216,150.26666666666668,0.6972222222222229,0.6861111111111029,0.7277777777777601,0.9580152671755967,0.0387453958805059,1.048986641670999,61.111111111111114,1.0476190476010885,0.942748091603065,0.0,0.9983203580570579,0
217,150.95277777777778,0.6861111111111029,0.6777777777777771,0.7277777777777601,0.942748091603065,0.036638249596918804,0.9919381007205718,58.333333333333336,0.9999999999828572,0.9312977099236859,0.0,0.9986019034893159,0
218,151.63055555555556,0.6777777777777771,0.6972222222222229,0.7277777777777601,0.9312977099236859,0.03499155138819406,0.9473556571924903,55.55555555555556,0.9523809523646259,0.9580152671755967,0.0,0.9993397090895779,0
219,152.32777777777778,0.6972222222222229,0.7138888888888744,0.7277777777777601,0.9580152671755967,0.03933895880678286,1.0650566692576562,63.888888888888886,1.0952380952193197,0.980916030534355,0.0,0.9978181223588523,0
220,153.04166666666666,0.7138888888888744,0.6888888888888971,0.7277777777777601,0.980916030534355,0.03688262816273503,0.9985543668659105,58.333333333333336,0.9999999999828572,0.9465648854962175,0.0,0.998612059981581,0
221,153.73055555555555,0.6888888888888971,0.7027777777777828,0.7277777777777601,0.9465648854962175,0.03661161581372273,0.9912170219406309,58.333333333333336,0.9999999999828572,0.9656488549618625,0.0,0.9991805860800996,0
222,154.43333333333334,0.7027777777777828,0.6694444444444514,0.7277777777777601,0.9656488549618625,0.03905743631716862,1.0574347744692774,61.111111111111114,1.0476190476010885,0.9198473282443067,0.0,0.9979593069120488,0
223,155.1027777777778,0.6694444444444514,0.6861111111111029,0.7277777777777601,0.9198473282443067,0.03415881436451557,0.9248102684046807,55.55555555555556,0.9523809523646259,0.942748091603065,0.0,0.997660291401646,0
224,155.7888888888889,0.6861111111111029,0.6833333333333371,0.7277777777777601,0.942748091603065,0.03785969013518665,1.0250071861982364,58.333333333333336,0.9999999999828572,0.9389312977099517,0.0,0.9980667565296313,0
225,156.47222222222223,0.6833333333333371,0.6888888888888687,0.7277777777777601,0.9389312977099517,0.03614057955079181,0.9784642616105765,55.55555555555556,0.9523809523646259,0.9465648854961785,0.0,0.998683863883007,0
226,157.1611111111111,0.6888888888888687,0.6972222222222229,0.7277777777777601,0.9465648854961785,0.037260439057480284,1.0087831585109313,58.333333333333336,0.9999999999828572,0.9580152671755967,0.0,0.998366205396634,0
227,157.85833333333332,0.6972222222222229,0.705555555555577,0.7277777777777601,0.9580152671755967,0.03720817124297422,1.007368068073469,58.333333333333336,0.9999999999828572,0.9694656488550148,0.0,0.9980448246382123,0
228,158.5638888888889,0.705555555555577,0.6999999999999886,0.7277777777777601,0.9694656488550148,0.03677106300067682,0.9955338695393158,58.333333333333336,0.9999999999828572,0.96183206106871,0.0,0.9980402825066924,0
229,159.26388888888889,0.6999999999999886,0.700000000000017,0.7277777777777601,0.96183206106871,0.03657925845458783,0.9903409839825482,58.333333333333336,0.9999999999828572,0.9618320610687491,0.0,0.9980754316439827,0
230,159.9638888888889,0.700000000000017,0.7083333333333144,0.7277777777777601,0.9618320610687491,0.037618816107656924,1.018485801361095,61.111111111111114,1.0476190476010885,0.9732824427480892,0.0,0.9983981529191543,0
231,160.67222222222222,0.7083333333333144,0.7416666666666742,0.7277777777777601,0.9732824427480892,0.03740924668643114,1.012811952420525,58.333333333333336,0.9999999999828572,1.0190839694656841,0.0,0.999323756484125,0
232,161.4138888888889,0.7416666666666742,0.7305555555555543,0.7277777777777601,1.0190839694656841,0.035429588320602966,0.9592149989339608,55.55555555555556,0.9523809523646259,1.0038167938931524,0.0,0.9977461041018246,0
233,162.14444444444445,0.7305555555555543,0.7361111111111143,0.7277777777777601,1.0038167938931524,0.03691037334788135,0.9993055355642235,58.333333333333336,0.9999999999828572,1.0114503816794183,0.0,0.9987483737248289,0
234,162.88055555555556,0.7361111111111143,0.7083333333333428,0.7277777777777601,1.0114503816794183,0.03570860802452317,0.9667691337033658,58.333333333333336,0.9999999999828572,0.9732824427481283,0.0,0.9977711293235512,0
235,163.5888888888889,0.7083333333333428,0.75,0.7277777777777601,0.9732824427481283,0.03785426564606255,1.0248603244486076,61.111111111111114,1.0476190476010885,1.0305343511450633,0.0,0.9990982422694529,0
236,164.3388888888889,0.75,0.7361111111110858,0.7277777777777601,1.0305343511450633,0.03787205004262108,1.025341816352255,58.333333333333336,0.9999999999828572,1.0114503816793792,0.0,0.9985283392919464,0
237,165.075,0.7361111111110858,0.7527777777777942,0.7277777777777601,1.0114503816793792,0.036658959349353586,0.9924987932406173,58.333333333333336,0.9999999999828572,1.0343511450382157,0.0,0.99929349398003,0
238,165.82777777777778,0.7527777777777942,0.76111111111112,0.7277777777777601,1.0343511450382157,0.03758998884285084,1.0177053366114057,58.333333333333336,0.9999999999828572,1.0458015267175949,0.0,0.9985142668465077,0
239,166.5888888888889,0.76111111111112,0.7361111111110858,0.7277777777777601,1.0458015267175949,0.0378587638362102,1.0249821077281265,61.111111111111114,1.0476190476010885,1.0114503816793792,0.0,0.9985905587333119,0
240,167.325,0.7361111111110858,0.7111111111111086,0.7277777777777601,1.0114503816793792,0.0366230358874457,0.9915262071872919,58.333333333333336,0.9999999999828572,0.9770992366412417,0.0,0.9993096682507009,0
241,168.0361111111111,0.7111111111111086,0.7138888888889028,0.7277777777777601,0.9770992366412417,0.03669208083305156,0.9933955189847199,58.333333333333336,0.9999999999828572,0.980916030534394,0.0,0.999172523507913,0
242,168.75,0.7138888888889028,0.7416666666666742,0.7277777777777601,0.980916030534394,0.03673411639234123,0.9945335829834987,58.333333333333336,0.9999999999828572,1.0190839694656841,0.0,0.9992988383446701,0
243,169.49166666666667,0.7416666666666742,0.7194444444444343,0.7277777777777601,1.0190839694656841,0.03847374080073136,1.0416318955560178,61.111111111111114,1.0476190476010885,0.9885496183206208,0.0,0.998859211240015,0
244,170.2111111111111,0.7194444444444343,0.7194444444444343,0.7277777777777601,0.9885496183206208,0.03624821255937957,0.9813783004439811,61.111111111111114,1.0476190476010885,0.9885496183206208,0.0,0.9995060360036252,0
245,170.93055555555554,0.7194444444444343,0.6916666666666913,0.7277777777777601,0.9885496183206208,0.03648100421539249,0.9876808644493442,58.333333333333336,0.9999999999828572,0.9503816793893699,0.0,0.999536093208671,0
246,171.62222222222223,0.6916666666666913,0.7583333333333258,0.7277777777777601,0.9503816793893699,0.03570270391410176,0.9666092867635614,55.55555555555556,0.9523809523646259,1.0419847328244425,0.0,0.999347131123445,0
247,172.38055555555556,0.7583333333333258,0.7361111111111143,0.7277777777777601,1.0419847328244425,0.035547258687390414,0.9624007875954379,58.333333333333336,0.9999999999828572,1.0114503816794183,0.0,0.9994256238258369,0
248,173.11666666666667,0.7361111111111143,0.75,0.7277777777777601,1.0114503816794183,0.036540565931037314,0.9892934287978701,58.333333333333336,0.9999999999828572,1.0305343511450633,0.0,0.9987484837266676,0
249,173.86666666666667,0.75,0.75,0.7277777777777601,1.0305343511450633,0.0380028010922454,1.0288817493255398,61.111111111111114,1.0476190476010885,1.0305343511450633,0.0,0.9990973253289148,0
250,174.61666666666667,0.75,0.7361111111111143,0.7277777777777601,1.0305343511450633,0.03649113116556197,0.9879550398760559,61.111111111111114,1.0476190476010885,1.0114503816794183,0.0,0.9991508944373514,0
251,175.3527777777778,0.7361111111111143,0.7166666666666686,0.7277777777777601,1.0114503816794183,0.03704156292867035,1.002857341260015,61.111111111111114,1.0476190476010885,0.9847328244275074,0.0,0.9980371489305001,0
252,176.06944444444446,0.7166666666666686,0.7277777777777601,0.7277777777777601,0.9847328244275074,0.03918548814885593,1.0609016292485074,61.111111111111114,1.0476190476010885,1.0,0.0,0.9987224280044551,0
253,176.79722222222222,0.7277777777777601,0.73888888888888,0.7277777777777601,1.0,0.036821089611775264,0.9968882819947256,58.333333333333336,0.9999999999828572,1.0152671755725315,0.0,0.9990661557564959,0
254,177.5361111111111,0.73888888888888,0.75,0.7277777777777601,1.0152671755725315,0.03805801535884988,1.0303766115351398,61.111111111111114,1.0476190476010885,1.0305343511450633,0.0,0.9982658050071058,0
255,178.2861111111111,0.75,0.75555555555556,0.7277777777777601,1.0305343511450633,0.03423198795142533,0.9267913583754276,55.55555555555556,0.9523809523646259,1.038167938931329,0.0,0.9968467363135449,0
256,179.04166666666666,0.75555555555556,0.75,0.7277777777777601,1.038167938931329,0.03984487869220791,1.0787538631953135,63.888888888888886,1.0952380952193197,1.0305343511450633,0.0,0.997424709899094,0
257,179.79166666666666,0.75,0.7861111111111256,0.7277777777777601,1.0305343511450633,0.037159771631345845,1.0060577047410924,58.333333333333336,0.9999999999828572,1.0801526717557715,0.0,0.999502237377259,0
258,180.57777777777778,0.7861111111111256,0.8083333333333371,0.7277777777777601,1.0801526717557715,0.03935590960185566,1.0655155923682085,61.111111111111114,1.0476190476010885,1.1106870229007955,0.0,0.9972104379352961,0
259,181.38611111111112,0.8083333333333371,0.8333333333333144,0.7277777777777601,1.1106870229007955,0.0384319650359721,1.0405008651927403,63.888888888888886,1.0952380952193197,1.145038167938933,0.0,0.9987675749566476,0
260,182.21944444444443,0.8333333333333144,0.8666666666666742,0.7277777777777601,1.145038167938933,0.037802454496576494,1.0234575976867466,63.888888888888886,1.0952380952193197,1.1908396946565278,0.0,0.9989423626048729,0
261,183.0861111111111,0.8666666666666742,0.88055555555556,0.7277777777777601,1.1908396946565278,0.03931650683046161,1.064448808047185,63.888888888888886,1.0952380952193197,1.209923664122173,0.0,0.9980346618408046,0
262,183.96666666666667,0.88055555555556,0.8583333333333201,0.7277777777777601,1.209923664122173,0.035333375407735186,0.956610145942761,58.333333333333336,0.9999999999828572,1.1793893129771096,0.0,0.9985834647085077,0
263,184.825,0.8583333333333201,0.9027777777777999,0.7277777777777601,1.1793893129771096,0.03687741130450047,0.9984131264817261,58.333333333333336,0.9999999999828572,1.240458015267236,0.0,0.9996322359541187,0
264,185.7277777777778,0.9027777777777999,0.9138888888888914,0.7277777777777601,1.240458015267236,0.03868285850086292,1.0472935146720412,63.888888888888886,1.0952380952193197,1.2557251908397287,0.0,0.9979915731176554,0
265,186.64166666666668,0.9138888888888914,0.8666666666666458,0.7277777777777601,1.2557251908397287,0.03731107495209038,1.010154066610538,58.333333333333336,0.9999999999828572,1.1908396946564888,0.0,0.9986653870378024,0
266,187.50833333333333,0.8666666666666458,0.8444444444444628,0.7277777777777601,1.1908396946564888,0.03736113106929692,1.0115092779095918,61.111111111111114,1.0476190476010885,1.1603053435115038,0.0,0.9991597627619166,0
267,188.3527777777778,0.8444444444444628,0.8333333333333144,0.7277777777777601,1.1603053435115038,0.0387493989390506,1.0490950198368116,61.111111111111114,1.0476190476010885,1.145038167938933,0.0,0.9982526010580561,0
268,189.1861111111111,0.8333333333333144,0.8000000000000114,0.7277777777777601,1.145038167938933,0.03790990614919883,1.0263667265177931,61.111111111111114,1.0476190476010885,1.0992366412214163,0.0,0.9991526104397146,0
269,189.98611111111111,0.8000000000000114,0.7777777777777715,0.7277777777777601,1.0992366412214163,0.037376503975403735,1.011925481507032,61.111111111111114,1.0476190476010885,1.0687022900763532,0.0,0.9991650710635602,0
270,190.76388888888889,0.7777777777777715,0.7694444444444457,0.7277777777777601,1.0687022900763532,0.03651349366140404,0.988560478506367,58.333333333333336,0.9999999999828572,1.057251908396974,0.0,0.9991556290044274,0
271,191.53333333333333,0.7694444444444457,0.7638888888888857,0.7277777777777601,1.057251908396974,0.03852284937869586,1.0429614533294134,61.111111111111114,1.0476190476010885,1.0496183206107081,0.0,0.9994858104945203,0
272,192.29722222222222,0.7638888888888857,0.7666666666666799,0.7277777777777601,1.0496183206107081,0.03533480305340346,0.9566487977928976,55.55555555555556,0.9523809523646259,1.0534351145038605,0.0,0.9978950880274786,0
273,193.0638888888889,0.7666666666666799,0.7416666666666458,0.7277777777777601,1.0534351145038605,0.037677583941533026,1.0200768722817817,61.111111111111114,1.0476190476010885,1.019083969465645,0.0,0.9991908230195019,0
274,193.80555555555554,0.7416666666666458,0.75,0.7277777777777601,1.019083969465645,0.03658627478666911,0.9905309430334116,61.111111111111114,1.0476190476010885,1.0305343511450633,0.0,0.999047613036119,0
275,194.55555555555554,0.75,0.7388888888889085,0.7277777777777601,1.0305343511450633,0.0351687842730028,0.9521540319259053,58.333333333333336,0.9999999999828572,1.0152671755725706,0.0,0.9993610118492573,0
276,195.29444444444445,0.7388888888889085,0.74444444444444,0.7277777777777601,1.0152671755725706,0.039314906236007766,1.0644054738093316,61.111111111111114,1.0476190476010885,1.0229007633587974,0.0,0.9974203886090061,0
277,196.0388888888889,0.74444444444444,0.7333333333333201,0.7277777777777601,1.0229007633587974,0.03586896104941764,0.9711105058133478,58.333333333333336,0.9999999999828572,1.0076335877862659,0.0,0.9979687737196536,0
278,196.7722222222222,0.7333333333333201,0.7444444444444684,0.7277777777777601,1.0076335877862659,0.036146029193037894,0.9786118043518008,58.333333333333336,0.9999999999828572,1.0229007633588365,0.0,0.9997306977386022,0
279,197.51666666666668,0.7444444444444684,0.7055555555555486,0.7277777777777601,1.0229007633588365,0.03746946947849671,1.0144424146461724,61.111111111111114,1.0476190476010885,0.9694656488549759,0.0,0.9975698397574784,0
280,198.22222222222223,0.7055555555555486,0.7166666666666686,0.7277777777777601,0.9694656488549759,0.03440728208463072,0.9315372436584909,55.55555555555556,0.9523809523646259,0.9847328244275074,0.0,0.996933411916829,0
281,198.9388888888889,0.7166666666666686,0.7249999999999943,0.7277777777777601,0.9847328244275074,0.03827682622160923,1.0363006617834571,58.333333333333336,0.9999999999828572,0.9961832061068866,0.0,0.9989082178618062,0
282,199.6638888888889,0.7249999999999943,0.7194444444444343,0.7277777777777601,0.9961832061068866,0.03849708305900663,1.042263860117503,58.333333333333336,0.9999999999828572,0.9885496183206208,0.0,0.9989372108953648,0
283,200.38333333333333,0.7194444444444343,0.7111111111111086,0.7277777777777601,0.9885496183206208,0.03822695044342143,1.0349503329541092,61.111111111111114,1.0476190476010885,0.9770992366412417,0.0,0.9984859501749066,0
284,201.09444444444443,0.7111111111111086,0.6944444444444571,0.7277777777777601,0.9770992366412417,0.037394200000277426,1.0124045808498399,61.111111111111114,1.0476190476010885,0.9541984732824833,0.0,0.9990782260036024,0
285,201.7888888888889,0.6944444444444571,0.7027777777777828,0.7277777777777601,0.9541984732824833,0.03597269481507546,0.9739189771682637,55.55555555555556,0.9523809523646259,0.9656488549618625,0.0,0.9979963123924621,0
286,202.49166666666667,0.7027777777777828,0.6999999999999886,0.7277777777777601,0.9656488549618625,0.03651664124431153,0.9886456956618116,58.333333333333336,0.9999999999828572,0.96183206106871,0.0,0.9980094895698302,0
287,203.19166666666666,0.6999999999999886,0.7055555555555486,0.7277777777777601,0.96183206106871,0.0392749693004923,1.0633242276144492,61.111111111111114,1.0476190476010885,0.9694656488549759,0.0,0.9977176852338303,0
288,203.8972222222222,0.7055555555555486,0.6805555555555713,0.7277777777777601,0.9694656488549759,0.037397864328594904,1.01250378828774,58.333333333333336,0.9999999999828572,0.9351145038168384,0.0,0.999315853792146,0
289,204.57777777777778,0.6805555555555713,0.7166666666666686,0.7277777777777601,0.9351145038168384,0.03663988440337241,0.9919823612086267,61.111111111111114,1.0476190476010885,0.9847328244275074,0.0,0.9996247172647101,0
290,205.29444444444445,0.7166666666666686,0.674999999999983,0.7277777777777601,0.9847328244275074,0.03816673143531502,1.0333199731747662,61.111111111111114,1.0476190476010885,0.9274809160305335,0.0,0.9981556154725297,0
291,205.96944444444443,0.674999999999983,0.6833333333333371,0.7277777777777601,0.9274809160305335,0.035995093359649726,0.9745253917761759,55.55555555555556,0.9523809523646259,0.9389312977099517,0.0,0.9971201684680058,0
292,206.65277777777777,0.6833333333333371,0.6972222222222229,0.7277777777777601,0.9389312977099517,0.03966021417715001,1.0737542856949618,61.111111111111114,1.0476190476010885,0.9580152671755967,0.0,0.9984173728781758,0
293,207.35,0.6972222222222229,0.7055555555555486,0.7277777777777601,0.9580152671755967,0.036271943137266026,0.9820207783084167,58.333333333333336,0.9999999999828572,0.9694656488549759,0.0,0.9997297644477767,0
294,208.05555555555554,0.7055555555555486,0.6861111111111313,0.7277777777777601,0.9694656488549759,0.03844101520805933,1.040745888102136,61.111111111111114,1.0476190476010885,0.9427480916031041,0.0,0.9985000612185589,0
295,208.74166666666667,0.6861111111111313,0.6888888888888687,0.7277777777777601,0.9427480916031041,0.03780114411447158,1.0234221206115404,58.333333333333336,0.9999999999828572,0.9465648854961785,0.0,0.9993753099404509,0
296,209.43055555555554,0.6888888888888687,0.6777777777777771,0.7277777777777601,0.9465648854961785,0.037356460431911556,1.0113828258211826,58.333333333333336,0.9999999999828572,0.9312977099236859,0.0,0.9995312894593626,0
297,210.10833333333332,0.6777777777777771,0.7083333333333428,0.7277777777777601,0.9312977099236859,0.03780844895599216,1.023619890720749,61.111111111111114,1.0476190476010885,0.9732824427481283,0.0,0.9983787522956362,0
298,210.81666666666666,0.7083333333333428,0.6805555555555713,0.7277777777777601,0.9732824427481283,0.03759846961987379,1.017934943810039,58.333333333333336,0.9999999999828572,0.9351145038168384,0.0,0.9993442805839197,0
299,211.49722222222223,0.6805555555555713,0.7027777777777544,0.7277777777777601,0.9351145038168384,0.03730379838458509,1.0099570619874905,58.333333333333336,0.9999999999828572,0.9656488549618234,0.0,0.9984203523983348,0
300,212.2,0.7027777777777544,0.6638888888888914,0.7277777777777601,0.9656488549618234,0.038708143762502784,1.047978083795381,63.888888888888886,1.0952380952193197,0.9122137404580409,0.0,0.9990096617544373,0
301,212.86388888888888,0.6638888888888914,0.6833333333333371,0.7277777777777601,0.9122137404580409,0.03731697850016242,1.0103138983253857,61.111111111111114,1.0476190476010885,0.9389312977099517,0.0,0.9984077646663029,0
302,213.54722222222222,0.6833333333333371,0.6861111111111029,0.7277777777777601,0.9389312977099517,0.03848263983602224,1.0418728266119988,63.888888888888886,1.0952380952193197,0.942748091603065,0.0,0.9979987245246842,0
303,214.23333333333332,0.6861111111111029,0.6833333333333371,0.7277777777777601,0.942748091603065,0.04264099911352066,1.1544555795877969,66.66666666666667,1.1428571428375511,0.9389312977099517,0.0,0.9957791150403361,0
304,214.91666666666666,0.6833333333333371,0.6916666666666629,0.7277777777777601,0.9389312977099517,0.04063070767503951,1.1000292711991584,66.66666666666667,1.1428571428375511,0.9503816793893308,0.0,0.9972144418289186,0
305,215.60833333333332,0.6916666666666629,0.7083333333333428,0.7277777777777601,0.9503816793893308,0.04080575039818982,1.1047683498466623,63.888888888888886,1.0952380952193197,0.9732824427481283,0.0,0.9979195085531425,0
306,216.31666666666666,0.7083333333333428,0.6777777777777771,0.7277777777777601,0.9732824427481283,0.03538008417802657,0.9578747317076258,58.333333333333336,0.9999999999828572,0.9312977099236859,0.0,0.998713029124912,0
307,216.99444444444444,0.6777777777777771,0.6916666666666629,0.7277777777777601,0.9312977099236859,0.03637762830084668,0.9848820814981127,61.111111111111114,1.0476190476010885,0.9503816793893308,0.0,0.9985350959969999,0
308,217.6861111111111,0.6916666666666629,0.6777777777777771,0.7277777777777601,0.9503816793893308,0.03907385889860727,1.0578793968085103,61.111111111111114,1.0476190476010885,0.9312977099236859,0.0,0.998180319969695,0
309,218.36388888888888,0.6777777777777771,0.7277777777777885,0.7277777777777601,0.9312977099236859,0.038500993476934045,1.0423697301460828,61.111111111111114,1.0476190476010885,1.000000000000039,0.0,0.9987168965361702,0
310,219.09166666666667,0.7277777777777885,0.6972222222222229,0.7277777777777601,1.000000000000039,0.0368212403619533,0.9968923633808979,58.333333333333336,0.9999999999828572,0.9580152671755967,0.0,0.9994243079485168,0
311,219.7888888888889,0.6972222222222229,0.7111111111111086,0.7277777777777601,0.9580152671755967,0.035229230485378175,0.9537905429972318,55.55555555555556,0.9523809523646259,0.9770992366412417,0.0,0.9985437738444084,0
312,220.5,0.7111111111111086,0.6944444444444571,0.7277777777777601,0.9770992366412417,0.036182193894867806,0.9795909216961324,61.111111111111114,1.0476190476010885,0.9541984732824833,0.0,0.999392914504686,0
313,221.19444444444446,0.6944444444444571,0.7277777777777601,0.7277777777777601,0.9541984732824833,0.03523842248882575,0.9540394058261583,58.333333333333336,0.9999999999828572,1.0,0.0,0.9989690625036575,0
314,221.92222222222222,0.7277777777777601,0.7166666666666686,0.7277777777777601,1.0,0.036664434347797974,0.9926470224714927,58.333333333333336,0.9999999999828572,0.9847328244275074,0.0,0.9997498456764747,0
315,222.63888888888889,0.7166666666666686,0.7194444444444343,0.7277777777777601,0.9847328244275074,0.03792420488208579,1.0267538481215446,58.333333333333336,0.9999999999828572,0.9885496183206208,0.0,0.9988288193356802,0
316,223.35833333333332,0.7194444444444343,0.7361111111111143,0.7277777777777601,0.9885496183206208,0.036935483381878395,0.9999853606024304,58.333333333333336,0.9999999999828572,1.0114503816794183,0.0,0.9989252296322799,0
317,224.09444444444443,0.7361111111111143,0.7138888888889028,0.7277777777777601,1.0114503816794183,0.03885339052614397,1.051910471407975,63.888888888888886,1.0952380952193197,0.980916030534394,0.0,0.9965596659918867,0
318,224.80833333333334,0.7138888888889028,0.7055555555555486,0.7277777777777601,0.980916030534394,0.0364449493696925,0.986704721332277,58.333333333333336,0.9999999999828572,0.9694656488549759,0.0,0.9983457552500045,0
319,225.51388888888889,0.7055555555555486,0.7055555555555486,0.7277777777777601,0.9694656488549759,0.03867446601858996,1.0470662979513257,61.111111111111114,1.0476190476010885,0.9694656488549759,0.0,0.9985596305985168,0
320,226.21944444444443,0.7055555555555486,0.7305555555555543,0.7277777777777601,0.9694656488549759,0.03737952167973826,1.0120071823507966,61.111111111111114,1.0476190476010885,1.0038167938931524,0.0,0.9993224729232548,0
321,226.95,0.7305555555555543,0.705555555555577,0.7277777777777601,1.0038167938931524,0.0376209046963017,1.0185423474755049,58.333333333333336,0.9999999999828572,0.9694656488550148,0.0,0.9989753408964691,0
322,227.65555555555557,0.705555555555577,0.7166666666666686,0.7277777777777601,0.9694656488550148,0.038520910319351336,1.0429089555473263,61.111111111111114,1.0476190476010885,0.9847328244275074,0.0,0.9976893678441197,0
323,228.37222222222223,0.7166666666666686,0.6916666666666629,0.7277777777777601,0.9847328244275074,0.03693455043426256,0.9999601021281226,61.111111111111114,1.0476190476010885,0.9503816793893308,0.0,0.999156646482963,0
324,229.0638888888889,0.6916666666666629,0.7138888888888744,0.7277777777777601,0.9503816793893308,0.035140243707936,0.9513813292390326,58.333333333333336,0.9999999999828572,0.980916030534355,0.0,0.9989106141907249,0
325,229.77777777777777,0.7138888888888744,0.6916666666666629,0.7277777777777601,0.980916030534355,0.03833532281285159,1.0378843891245269,61.111111111111114,1.0476190476010885,0.9503816793893308,0.0,0.9984723234546029,0
326,230.46944444444443,0.6916666666666629,0.700000000000017,0.7277777777777601,0.9503816793893308,0.03719170696442425,1.0069223168333232,58.333333333333336,0.9999999999828572,0.9618320610687491,0.0,0.9990186717709812,0
327,231.16944444444445,0.700000000000017,0.7055555555555486,0.7277777777777601,0.9618320610687491,0.0353794009973219,0.9578562353826622,55.55555555555556,0.9523809523646259,0.9694656488549759,0.0,0.998793537563009,0
328,231.875,0.7055555555555486,0.7138888888889028,0.7277777777777601,0.9694656488549759,0.03754626125739595,1.0165214629672654,61.111111111111114,1.0476190476010885,0.980916030534394,0.0,0.9986335032983338,0
329,232.5888888888889,0.7138888888889028,0.6861111111111029,0.7277777777777601,0.980916030534394,0.03270009137041974,0.8853170357268145,55.55555555555556,0.9523809523646259,0.942748091603065,0.0,0.9964019002658164,0
330,233.275,0.6861111111111029,0.6916666666666629,0.7277777777777601,0.942748091603065,0.037403261290868316,1.0126499047798225,58.333333333333336,0.9999999999828572,0.9503816793893308,0.0,0.9992571538255884,0
331,233.96666666666667,0.6916666666666629,0.6888888888888971,0.7277777777777601,0.9503816793893308,0.03654605562908507,0.9894420560034525,58.333333333333336,0.9999999999828572,0.9465648854962175,0.0,0.9983197861787059,0
332,234.65555555555557,0.6888888888888971,0.7138888888888744,0.7277777777777601,0.9465648854962175,0.038648504124601725,1.0463634097921717,61.111111111111114,1.0476190476010885,0.980916030534355,0.0,0.9979588910553656,0
333,235.36944444444444,0.7138888888888744,0.6944444444444571,0.7277777777777601,0.980916030534355,0.03797748597429547,1.0281963718772438,61.111111111111114,1.0476190476010885,0.9541984732824833,0.0,0.9989016992846664,0
334,236.0638888888889,0.6944444444444571,0.7055555555555486,0.7277777777777601,0.9541984732824833,0.03756337654164196,1.016984839431345,61.111111111111114,1.0476190476010885,0.9694656488549759,0.0,0.9988983582189306,0
335,236.76944444444445,0.7055555555555486,0.6777777777777771,0.7277777777777601,0.9694656488549759,0.03537922412550301,0.9578514467833698,58.333333333333336,0.9999999999828572,0.9312977099236859,0.0,0.9992859542730016,0
336,237.44722222222222,0.6777777777777771,0.7111111111111086,0.7277777777777601,0.9312977099236859,0.03614673579963376,0.9786309349055902,58.333333333333336,0.9999999999828572,0.9770992366412417,0.0,0.9996196488429729,0
337,238.15833333333333,0.7111111111111086,0.7055555555555486,0.7277777777777601,0.9770992366412417,0.03768820305863735,1.02036437255725,58.333333333333336,0.9999999999828572,0.9694656488549759,0.0,0.9981282997699201,0
338,238.86388888888888,0.7055555555555486,0.7027777777777828,0.7277777777777601,0.9694656488549759,0.03570831621776965,0.9667612333740639,58.333333333333336,0.9999999999828572,0.9656488549618625,0.0,0.9994523505211947,0
339,239.56666666666666,0.7027777777777828,0.7194444444444343,0.7277777777777601,0.9656488549618625,0.037161520188219194,1.0061050448897904,58.333333333333336,0.9999999999828572,0.9885496183206208,0.0,0.9996186616231006,0
340,240.2861111111111,0.7194444444444343,0.7166666666666686,0.7277777777777601,0.9885496183206208,0.03638017455585441,0.9849510183983223,58.333333333333336,0.9999999999828572,0.9847328244275074,0.0,0.9996805237128352,0
341,241.00277777777777,0.7166666666666686,0.700000000000017,0.7277777777777601,0.9847328244275074,0.036121979563669096,0.9779606885386392,58.333333333333336,0.9999999999828572,0.9618320610687491,0.0,0.9981029489882944,0
342,241.70277777777778,0.700000000000017,0.6888888888888971,0.7277777777777601,0.9618320610687491,0.037417746055296304,1.0130420629717165,58.333333333333336,0.9999999999828572,0.9465648854962175,0.0,0.9993000952270175,0
343,242.39166666666668,0.6888888888888971,0.7194444444444343,0.7277777777777601,0.9465648854962175,0.03835594125900822,1.0384426096330235,61.111111111111114,1.0476190476010885,0.9885496183206208,0.0,0.9984392871106098,0
344,243.11111111111111,0.7194444444444343,0.7222222222222285,0.7277777777777601,0.9885496183206208,0.037976898115680516,1.028180456287268,61.111111111111114,1.0476190476010885,0.9923664122137732,0.0,0.9979818588963809,0
345,243.83333333333334,0.7222222222222285,0.7138888888888744,0.7277777777777601,0.9923664122137732,0.035855902757676444,0.9707569677144777,58.333333333333336,0.9999999999828572,0.980916030534355,0.0,0.9992619803067773,0
346,244.54722222222222,0.7138888888888744,0.6972222222222229,0.7277777777777601,0.980916030534355,0.0362326019952917,0.9809556625324307,58.333333333333336,0.9999999999828572,0.9580152671755967,0.0,0.9996476843703851,0
347,245.24444444444444,0.6972222222222229,0.7194444444444628,0.7277777777777601,0.9580152671755967,0.03549641640629341,0.9610242918211447,58.333333333333336,0.9999999999828572,0.9885496183206599,0.0,0.9994581667259117,0
348,245.9638888888889,0.7194444444444628,0.7111111111111086,0.7277777777777601,0.9885496183206599,0.03821871444436726,1.034727352834993,58.333333333333336,0.9999999999828572,0.9770992366412417,0.0,0.9992515681918404,0
349,246.675,0.7111111111111086,0.7138888888888744,0.7277777777777601,0.9770992366412417,0.036618623345552465,0.9914067427348937,58.333333333333336,0.9999999999828572,0.980916030534355,0.0,0.9995499456759429,0
350,247.38888888888889,0.7138888888888744,0.7222222222222285,0.7277777777777601,0.980916030534355,0.03627633714274387,0.982139740908874,58.333333333333336,0.9999999999828572,0.9923664122137732,0.0,0.9998347504075226,0
351,248.11111111111111,0.7222222222222285,0.7305555555555543,0.7277777777777601,0.9923664122137732,0.03741677704256173,1.013015828076161,61.111111111111114,1.0476190476010885,1.0038167938931524,0.0,0.9981839541314134,0
352,248.84166666666667,0.7305555555555543,0.7222222222222285,0.7277777777777601,1.0038167938931524,0.03529562211144896,0.9555880192465869,55.55555555555556,0.9523809523646259,0.9923664122137732,0.0,0.9994848173418056,0
353,249.5638888888889,0.7222222222222285,0.7305555555555543,0.7277777777777601,0.9923664122137732,0.03838011393885802,1.039097056895197,58.333333333333336,0.9999999999828572,1.0038167938931524,0.0,0.9989160764023455,0
354,250.29444444444445,0.7305555555555543,0.7361111111111143,0.7277777777777601,1.0038167938931524,0.037603405461578567,1.0180685759977106,61.111111111111114,1.0476190476010885,1.0114503816794183,0.0,0.9991690335087189,0
355,251.03055555555557,0.7361111111111143,0.7472222222222058,0.7277777777777601,1.0114503816794183,0.03919162341079018,1.0610677343473436,61.111111111111114,1.0476190476010885,1.0267175572519107,0.0,0.9989426545396782,0
356,251.77777777777777,0.7472222222222058,0.7249999999999943,0.7277777777777601,1.0267175572519107,0.03569701871902205,0.9664553667026513,58.333333333333336,0.9999999999828572,0.9961832061068866,0.0,0.9995911168190921,0
357,252.50277777777777,0.7249999999999943,0.7416666666666742,0.7277777777777601,0.9961832061068866,0.03530344289365107,0.9557997578511614,55.55555555555556,0.9523809523646259,1.0190839694656841,0.0,0.9992718909559364,0
358,253.24444444444444,0.7416666666666742,0.7222222222222285,0.7277777777777601,1.0190839694656841,0.037259714914427235,1.0087635531779093,58.333333333333336,0.9999999999828572,0.9923664122137732,0.0,0.9995951628204262,0
359,253.96666666666667,0.7222222222222285,0.73888888888888,0.7277777777777601,0.9923664122137732,0.03929557055136008,1.06388198258045,61.111111111111114,1.0476190476010885,1.0152671755725315,0.0,0.998168185932633,0
360,254.70555555555555,0.73888888888888,0.7222222222222285,0.7277777777777601,1.0152671755725315,0.03682894583322801,0.9971009800758951,58.333333333333336,0.9999999999828572,0.9923664122137732,0.0,0.9998529701626386,0
361,255.42777777777778,0.7222222222222285,0.7194444444444628,0.7277777777777601,0.9923664122137732,0.03693602310301988,0.9999999729261602,58.333333333333336,0.9999999999828572,0.9885496183206599,0.0,0.9995664924663945,0
362,256.14722222222224,0.7194444444444628,0.7249999999999659,0.7277777777777601,0.9885496183206599,0.03623672877284288,0.9810673902468072,58.333333333333336,0.9999999999828572,0.9961832061068475,0.0,0.9990183744433533,0
363,256.8722222222222,0.7249999999999659,0.7333333333333485,0.7277777777777601,0.9961832061068475,0.03894040171102828,1.054266198289721,61.111111111111114,1.0476190476010885,1.007633587786305,0.0,0.9987230512455176,0
364,257.60555555555555,0.7333333333333485,0.7194444444444343,0.7277777777777601,1.007633587786305,0.03530339097305615,0.9557983521612915,55.55555555555556,0.9523809523646259,0.9885496183206208,0.0,0.9982828841560295,0
365,258.325,0.7194444444444343,0.7111111111111086,0.7277777777777601,0.9885496183206208,0.03644790728879364,0.9867848035602097,61.111111111111114,1.0476190476010885,0.9770992366412417,0.0,0.9993190412168083,0
366,259.0361111111111,0.7111111111111086,0.7416666666666742,0.7277777777777601,0.9770992366412417,0.03685042518016346,0.9976825084741748,58.333333333333336,0.9999999999828572,1.0190839694656841,0.0,0.9987022462449668,0
367,259.77777777777777,0.7416666666666742,0.7361111111111427,0.7277777777777601,1.0190839694656841,0.03949335033939438,1.0692366408805059,63.888888888888886,1.0952380952193197,1.0114503816794573,0.0,0.9986847667986873,0
368,260.5138888888889,0.7361111111111427,0.7361111111110858,0.7277777777777601,1.0114503816794573,0.036882158989378064,0.9985416645415982,58.333333333333336,0.9999999999828572,1.0114503816793792,0.0,0.9995148341427764,0
369,261.25,0.7361111111110858,0.7277777777777601,0.7277777777777601,1.0114503816793792,0.035199278699713184,0.9529796331499388,58.333333333333336,0.9999999999828572,1.0,0.0,0.9993277307669992,0
370,261.97777777777776,0.7277777777777601,0.7583333333333258,0.7277777777777601,1.0,0.03824735865647724,1.0355028616453104,61.111111111111114,1.0476190476010885,1.0419847328244425,0.0,0.9986636246365788,0
371,262.7361111111111,0.7583333333333258,0.7305555555555543,0.7277777777777601,1.0419847328244425,0.037356003153489296,1.011370445538427,61.111111111111114,1.0476190476010885,1.0038167938931524,0.0,0.9996965492616847,0
372,263.46666666666664,0.7305555555555543,0.7527777777777942,0.7277777777777601,1.0038167938931524,0.036333055277705265,0.9836753186094732,58.333333333333336,0.9999999999828572,1.0343511450382157,0.0,0.9985506970915492,0
373,264.21944444444443,0.7527777777777942,0.75,0.7277777777777601,1.0343511450382157,0.03740114445251231,1.012592593837256,61.111111111111114,1.0476190476010885,1.0305343511450633,0.0,0.9980904071649287,0
374,264.96944444444443,0.75,0.7666666666666515,0.7277777777777601,1.0305343511450633,0.03812928961676065,1.0323062793768105,58.333333333333336,0.9999999999828572,1.0534351145038217,0.0,0.9988536463369135,0
375,265.7361111111111,0.7666666666666515,0.7361111111111427,0.7277777777777601,1.0534351145038217,0.034849792022113954,0.9435176868228392,55.55555555555556,0.9523809523646259,1.0114503816794573,0.0,0.9982953488114306,0
376,266.47222222222223,0.7361111111111427,0.73888888888888,0.7277777777777601,1.0114503816794573,0.036393366385800374,0.9853081718891574,58.333333333333336,0.9999999999828572,1.0152671755725315,0.0,0.9991149223621483,0
377,267.2111111111111,0.73888888888888,0.75,0.7277777777777601,1.0152671755725315,0.038039017319651716,1.0298622616650732,61.111111111111114,1.0476190476010885,1.0305343511450633,0.0,0.9991610646298621,0
378,267.9611111111111,0.75,0.7305555555555543,0.7277777777777601,1.0305343511450633,0.03594389666388018,0.9731393006358098,58.333333333333336,0.9999999999828572,1.0038167938931524,0.0,0.9993856986623736,0
379,268.69166666666666,0.7305555555555543,0.7333333333333485,0.7277777777777601,1.0038167938931524,0.038742223700004755,1.048900758564244,61.111111111111114,1.0476190476010885,1.007633587786305,0.0,0.9978303174991846,0
380,269.425,0.7333333333333485,0.7083333333333144,0.7277777777777601,1.007633587786305,0.03691479946202432,0.9994253674695369,61.111111111111114,1.0476190476010885,0.9732824427480892,0.0,0.9996344576300124,0
381,270.1333333333333,0.7083333333333144,0.7222222222222285,0.7277777777777601,0.9732824427480892,0.0352090548084327,0.9532443099514334,55.55555555555556,0.9523809523646259,0.9923664122137732,0.0,0.9993795407308597,0
382,270.85555555555555,0.7222222222222285,0.7083333333333144,0.7277777777777601,0.9923664122137732,0.038695841803618444,1.0476450225311251,61.111111111111114,1.0476190476010885,0.9732824427480892,0.0,0.998122700373447,0
383,271.56388888888887,0.7083333333333144,0.7333333333333485,0.7277777777777601,0.9732824427480892,0.03615592050000983,0.9788796000123287,58.333333333333336,0.9999999999828572,1.007633587786305,0.0,0.9994911606105868,0
384,272.2972222222222,0.7333333333333485,0.7194444444444343,0.7277777777777601,1.007633587786305,0.03810975786361367,1.0317774798207862,61.111111111111114,1.0476190476010885,0.9885496183206208,0.0,0.9993745879714171,0
385,273.01666666666665,0.7194444444444343,0.7277777777778169,0.7277777777777601,0.9885496183206208,0.037235150405698816,1.0080984976034406,58.333333333333336,0.9999999999828572,1.0000000000000782,0.0,0.99934209003032,0
386,273.74444444444447,0.7277777777778169,0.702777777777726,0.7277777777777601,1.0000000000000782,0.03773692400303161,1.021683435601458,61.111111111111114,1.0476190476010885,0.9656488549617843,0.0,0.9985899850621474,0
387,274.4472222222222,0.702777777777726,0.7111111111111654,0.7277777777777601,0.9656488549617843,0.03779212714683049,1.0231779966740007,58.333333333333336,0.9999999999828572,0.9770992366413197,0.0,0.9994099771684373,0
388,275.15833333333336,0.7111111111111654,0.7083333333333144,0.7277777777777601,0.9770992366413197,0.037411082249203434,1.0128616481529942,58.333333333333336,0.9999999999828572,0.9732824427480892,0.0,0.9991656827948152,0
389,275.8666666666667,0.7083333333333144,0.7416666666666742,0.7277777777777601,0.9732824427480892,0.03861450537626621,1.0454429331257962,61.111111111111114,1.0476190476010885,1.0190839694656841,0.0,0.9984291837702537,0
390,276.60833333333335,0.7416666666666742,0.7083333333333144,0.7277777777777601,1.0190839694656841,0.03752257619529678,1.0158802173899637,61.111111111111114,1.0476190476010885,0.9732824427480892,0.0,0.9997140433238567,0
391,277.31666666666666,0.7083333333333144,0.705555555555577,0.7277777777777601,0.9732824427480892,0.03554198513802834,0.9622580123647481,55.55555555555556,0.9523809523646259,0.9694656488550148,0.0,0.9990831712627555,0
392,278.02222222222224,0.705555555555577,0.6999999999999886,0.7277777777777601,0.9694656488550148,0.0363319240641056,0.9836446923136783,55.55555555555556,0.9523809523646259,0.96183206106871,0.0,0.9985939187878967,0
393,278.72222222222223,0.6999999999999886,0.7166666666666401,0.7277777777777601,0.96183206106871,0.038502209632544616,1.0424026561482747,58.333333333333336,0.9999999999828572,0.9847328244274683,0.0,0.9990835129866703,0
394,279.43888888888887,0.7166666666666401,0.7000000000000455,0.7277777777777601,0.9847328244274683,0.03704486497135062,1.0029467402346057,61.111111111111114,1.0476190476010885,0.9618320610687882,0.0,0.9993282847026812,0
395,280.1388888888889,0.7000000000000455,0.6944444444444002,0.7277777777777601,0.9618320610687882,0.0353023747386194,0.9557708387929356,58.333333333333336,0.9999999999828572,0.9541984732824051,0.0,0.9992291111403939,0
396,280.8333333333333,0.6944444444444002,0.705555555555577,0.7277777777777601,0.9541984732824051,0.036671286713723446,0.9928325423289186,61.111111111111114,1.0476190476010885,0.9694656488550148,0.0,0.9986020588254583,0
397,281.5388888888889,0.705555555555577,0.6972222222221944,0.7277777777777601,0.9694656488550148,0.0366996256791754,0.9935997869401122,58.333333333333336,0.9999999999828572,0.9580152671755576,0.0,0.9990971975304546,0
398,282.2361111111111,0.6972222222221944,0.7027777777777828,0.7277777777777601,0.9580152671755576,0.038012550929858085,1.0291457148672964,61.111111111111114,1.0476190476010885,0.9656488549618625,0.0,0.9986731887802733,0
399,282.93888888888887,0.7027777777777828,0.7194444444444912,0.7277777777777601,0.9656488549618625,0.03628956915834087,0.9824979823795881,58.333333333333336,0.9999999999828572,0.9885496183206989,0.0,0.9992517963674226,0
400,283.65833333333336,0.7194444444444912,0.7666666666666515,0.7277777777777601,0.9885496183206989,0.037837716803879935,1.0244122837462175,58.333333333333336,0.9999999999828572,1.0534351145038217,0.0,0.9987556687309642,0
401,284.425,0.7666666666666515,0.7805555555555657,0.7277777777777601,1.0534351145038217,0.0390568716701142,1.0574194873053735,61.111111111111114,1.0476190476010885,1.0725190839695056,0.0,0.998557830398074,0
402,285.2055555555556,0.7805555555555657,0.8138888888888687,0.7277777777777601,1.0725190839695056,0.03792688510471028,1.0268264120395512,61.111111111111114,1.0476190476010885,1.1183206106870223,0.0,0.9978569978328562,0
403,286.01944444444445,0.8138888888888687,0.8083333333333371,0.7277777777777601,1.1183206106870223,0.040389404884959394,1.0934962781134085,63.888888888888886,1.0952380952193197,1.1106870229007955,0.0,0.9965811803205094,0
404,286.8277777777778,0.8083333333333371,0.8194444444444571,0.7277777777777601,1.1106870229007955,0.03906203911612289,1.0575593899108697,61.111111111111114,1.0476190476010885,1.1259541984733272,0.0,0.9989763828339431,0
405,287.64722222222224,0.8194444444444571,0.783333333333303,0.7277777777777601,1.1259541984733272,0.036867673829281966,0.9981494956374493,58.333333333333336,0.9999999999828572,1.07633587786258,0.0,0.998879862496162,0
406,288.43055555555554,0.783333333333303,0.7972222222222172,0.7277777777777601,1.07633587786258,0.03803810363207519,1.0298375246339846,61.111111111111114,1.0476190476010885,1.095419847328264,0.0,0.9982000032978413,0
407,289.22777777777776,0.7972222222222172,0.7916666666666856,0.7277777777777601,1.095419847328264,0.03806402634850521,1.0305393521062032,61.111111111111114,1.0476190476010885,1.0877862595420371,0.0,0.998598776449324,0
408,290.01944444444445,0.7916666666666856,0.7777777777777715,0.7277777777777601,1.0877862595420371,0.03681165121967305,0.996632748478831,61.111111111111114,1.0476190476010885,1.0687022900763532,0.0,0.9996096192056712,0
409,290.7972222222222,0.7777777777777715,0.7527777777777942,0.7277777777777601,1.0687022900763532,0.03774737800192715,1.021966465492991,58.333333333333336,0.9999999999828572,1.0343511450382157,0.0,0.998639161394044,0
410,291.55,0.7527777777777942,0.73888888888888,0.7277777777777601,1.0343511450382157,0.034428036104394745,0.9320991346651172,55.55555555555556,0.9523809523646259,1.0152671755725315,0.0,0.9977607675755,0
411,292.2888888888889,0.73888888888888,0.7749999999999773,0.7277777777777601,1.0152671755725315,0.03763123315615155,1.0188219785430244,58.333333333333336,0.9999999999828572,1.0648854961832008,0.0,0.9994714166992216,0
412,293.06388888888887,0.7749999999999773,0.7583333333333258,0.7277777777777601,1.0648854961832008,0.03929175491285942,1.063778678594888,63.888888888888886,1.0952380952193197,1.0419847328244425,0.0,0.9985286214677547,0
413,293.8222222222222,0.7583333333333258,0.7555555555555884,0.7277777777777601,1.0419847328244425,0.03849848222106076,1.042301740806833,61.111111111111114,1.0476190476010885,1.038167938931368,0.0,0.9988658991847406,0
414,294.5777777777778,0.7555555555555884,0.7305555555555543,0.7277777777777601,1.038167938931368,0.03542126155688137,0.9589895614667777,58.333333333333336,0.9999999999828572,1.0038167938931524,0.0,0.9994844639625886,0
415,295.30833333333334,0.7305555555555543,0.7777777777777715,0.7277777777777601,1.0038167938931524,0.0387463903903532,1.0490135668713,61.111111111111114,1.0476190476010885,1.0687022900763532,0.0,0.9984465709914951,0
416,296.0861111111111,0.7777777777777715,0.7694444444444457,0.7277777777777601,1.0687022900763532,0.03730427736697107,1.009970029879883,61.111111111111114,1.0476190476010885,1.057251908396974,0.0,0.9988756235503874,0
417,296.85555555555555,0.7694444444444457,0.7694444444444457,0.7277777777777601,1.057251908396974,0.035932738929302634,0.9728372179171494,58.333333333333336,0.9999999999828572,1.057251908396974,0.0,0.9988020279602288,0
418,297.625,0.7694444444444457,0.7805555555555657,0.7277777777777601,1.057251908396974,0.03579218030737132,0.9690317563022426,58.333333333333336,0.9999999999828572,1.0725190839695056,0.0,0.9991768832681519,0
419,298.40555555555557,0.7805555555555657,0.7694444444444457,0.7277777777777601,1.0725190839695056,0.0408284765913846,1.1053836351608421,63.888888888888886,1.0952380952193197,1.057251908396974,0.0,0.9964107015783379,0
420,299.175,0.7694444444444457,0.7527777777777942,0.7277777777777601,1.057251908396974,0.03854036725960388,1.0434357296310306,61.111111111111114,1.0476190476010885,1.0343511450382157,0.0,0.9991519216514715,0
421,299.9277777777778,0.7527777777777942,0.7611111111110631,0.7277777777777601,1.0343511450382157,0.03782032887819956,1.0239415258316171,58.333333333333336,0.9999999999828572,1.0458015267175167,0.0,0.9980285237366296,0
422,300.68888888888887,0.7611111111110631,0.7583333333333258,0.7277777777777601,1.0458015267175167,0.03744398882889984,1.0137525556205826,61.111111111111114,1.0476190476010885,1.0419847328244425,0.0,0.9982627132033386,0
423,301.4472222222222,0.7583333333333258,0.7194444444444912,0.7277777777777601,1.0419847328244425,0.0379229740260994,1.0267205241237327,61.111111111111114,1.0476190476010885,0.9885496183206989,0.0,0.9979532908379369,0
424,302.1666666666667,0.7194444444444912,0.73888888888888,0.7277777777777601,0.9885496183206989,0.03760698157047332,1.0181653949970912,58.333333333333336,0.9999999999828572,1.0152671755725315,0.0,0.9981027099779977,0
425,302.90555555555557,0.73888888888888,0.7222222222222285,0.7277777777777601,1.0152671755725315,0.03809009156259261,1.0312450375371716,58.333333333333336,0.9999999999828572,0.9923664122137732,0.0,0.9982735419176431,0
426,303.6277777777778,0.7222222222222285,0.7416666666666742,0.7277777777777601,0.9923664122137732,0.0372674761105049,1.0089736785572954,58.333333333333336,0.9999999999828572,1.0190839694656841,0.0,0.9986714791590225,0
427,304.36944444444447,0.7416666666666742,0.7416666666666174,0.7277777777777601,1.0190839694656841,0.03408550628412609,0.9228255371790075,55.55555555555556,0.9523809523646259,1.019083969465606,0.0,0.9974247961569982,0
428,305.1111111111111,0.7416666666666174,0.7555555555555884,0.7277777777777601,1.019083969465606,0.03807359258418353,1.0307983468385988,61.111111111111114,1.0476190476010885,1.038167938931368,0.0,0.9992599837315828,0
429,305.8666666666667,0.7555555555555884,0.7638888888888573,0.7277777777777601,1.038167938931368,0.0374797244682648,1.014720056596467,58.333333333333336,0.9999999999828572,1.049618320610669,0.0,0.9996248383874241,0
430,306.63055555555553,0.7638888888888573,0.7722222222222399,0.7277777777777601,1.049618320610669,0.03727623115447002,1.009210711215188,58.333333333333336,0.9999999999828572,1.0610687022901264,0.0,0.9985470143144182,0
431,307.40277777777777,0.7722222222222399,0.7583333333333258,0.7277777777777601,1.0610687022901264,0.037722184425941926,1.0212843786523782,58.333333333333336,0.9999999999828572,1.0419847328244425,0.0,0.9976820805801092,0
432,308.1611111111111,0.7583333333333258,0.7416666666666742,0.7277777777777601,1.0419847328244425,0.03730320044460015,1.0099408734561186,61.111111111111114,1.0476190476010885,1.0190839694656841,0.0,0.9986031261910244,0
433,308.90277777777777,0.7416666666666742,0.7888888888888914,0.7277777777777601,1.0190839694656841,0.03886732196542737,1.0522876489635382,61.111111111111114,1.0476190476010885,1.0839694656488847,0.0,0.9981379000763226,0
434,309.69166666666666,0.7888888888888914,0.7666666666666515,0.7277777777777601,1.0839694656488847,0.036212161044356955,0.9804022475011396,58.333333333333336,0.9999999999828572,1.0534351145038217,0.0,0.998935742085419,0
435,310.4583333333333,0.7666666666666515,0.7416666666666742,0.7277777777777601,1.0534351145038217,0.03855995434386157,1.0439660272126832,61.111111111111114,1.0476190476010885,1.0190839694656841,0.0,0.998041952116264,0
436,311.2,0.7416666666666742,0.7250000000000227,0.7277777777777601,1.0190839694656841,0.03642440081173781,0.9861483929657648,58.333333333333336,0.9999999999828572,0.9961832061069257,0.0,0.9992893084402211,0
437,311.925,0.7250000000000227,0.7444444444444116,0.7277777777777601,0.9961832061069257,0.03841419861982396,1.0400198600878436,61.111111111111114,1.0476190476010885,1.0229007633587583,0.0,0.99799922328401,0
438,312.6694444444444,0.7444444444444116,0.7388888888889369,0.7277777777777601,1.0229007633587583,0.03818999664301057,1.0339498516811982,61.111111111111114,1.0476190476010885,1.0152671755726097,0.0,0.9983993456507795,0
439,313.40833333333336,0.7388888888889369,0.7305555555555543,0.7277777777777601,1.0152671755726097,0.03891579769603116,1.053600073128862,61.111111111111114,1.0476190476010885,1.0038167938931524,0.0,0.9981300638681299,0
440,314.1388888888889,0.7305555555555543,0.7472222222222058,0.7277777777777601,1.0038167938931524,0.03571037982350246,0.966817103105117,58.333333333333336,0.9999999999828572,1.0267175572519107,0.0,0.9991750843199573,0
441,314.8861111111111,0.7472222222222058,0.7083333333333144,0.7277777777777601,1.0267175572519107,0.03871886175976708,1.0482682611364615,61.111111111111114,1.0476190476010885,0.9732824427480892,0.0,0.9986294522042398,0
442,315.59444444444443,0.7083333333333144,0.7138888888889028,0.7277777777777601,0.9732824427480892,0.035818564314629174,0.9697460726884423,55.55555555555556,0.9523809523646259,0.980916030534394,0.0,0.9981883584961628,0
443,316.30833333333334,0.7138888888889028,0.705555555555577,0.7277777777777601,0.980916030534394,0.03733542988215032,1.0108134480857074,58.333333333333336,0.9999999999828572,0.9694656488550148,0.0,0.9995530988292636,0
444,317.0138888888889,0.705555555555577,0.7472222222222058,0.7277777777777601,0.9694656488550148,0.03875698297336475,1.0493003487669912,61.111111111111114,1.0476190476010885,1.0267175572519107,0.0,0.9981327212988629,0
445,317.7611111111111,0.7472222222222058,0.6999999999999886,0.7277777777777601,1.0267175572519107,0.03874450987700806,1.0489626541542223,61.111111111111114,1.0476190476010885,0.96183206106871,0.0,0.9982111208853865,0
446,318.4611111111111,0.6999999999999886,0.6999999999999886,0.7277777777777601,0.96183206106871,0.03750523239138361,1.015410654021021,61.111111111111114,1.0476190476010885,0.96183206106871,0.0,0.9992237514404018,0
447,319.1611111111111,0.6999999999999886,0.6861111111111313,0.7277777777777601,0.96183206106871,0.0362832654859967,0.9823273177642905,58.333333333333336,0.9999999999828572,0.9427480916031041,0.0,0.9990799364814194,0
448,319.84722222222223,0.6861111111111313,0.7194444444444343,0.7277777777777601,0.9427480916031041,0.03871677627790314,1.0482117991345383,58.333333333333336,0.9999999999828572,0.9885496183206208,0.0,0.9986534356614598,0
449,320.56666666666666,0.7194444444444343,0.6861111111111313,0.7277777777777601,0.9885496183206208,0.03843943517278865,1.0407031104803144,61.111111111111114,1.0476190476010885,0.9427480916031041,0.0,0.9985683478696288,0
450,321.2527777777778,0.6861111111111313,0.7055555555555202,0.7277777777777601,0.9427480916031041,0.03534183936104173,0.9568392976587913,58.333333333333336,0.9999999999828572,0.9694656488549368,0.0,0.9975946694852853,0
451,321.9583333333333,0.7055555555555202,0.6833333333333371,0.7277777777777601,0.9694656488549368,0.03732846959978881,1.0106250065159785,58.333333333333336,0.9999999999828572,0.9389312977099517,0.0,0.9988850040779218,0
452,322.64166666666665,0.6833333333333371,0.6999999999999886,0.7277777777777601,0.9389312977099517,0.03719916903254731,1.007124343670382,61.111111111111114,1.0476190476010885,0.96183206106871,0.0,0.9989788970433675,0
453,323.34166666666664,0.6999999999999886,0.6777777777778056,0.7277777777777601,0.96183206106871,0.03730467818283421,1.0099808815043572,55.55555555555556,0.9523809523646259,0.931297709923725,0.0,0.9985757892050258,0
454,324.01944444444445,0.6777777777778056,0.6888888888888687,0.7277777777777601,0.931297709923725,0.038655526543759366,1.0465535336435656,61.111111111111114,1.0476190476010885,0.9465648854961785,0.0,0.9980707275662619,0
455,324.7083333333333,0.6888888888888687,0.6833333333333371,0.7277777777777601,0.9465648854961785,0.035003301089347294,0.9476737667193972,58.333333333333336,0.9999999999828572,0.9389312977099517,0.0,0.9994043911073769,0
456,325.39166666666665,0.6833333333333371,0.6750000000000114,0.7277777777777601,0.9389312977099517,0.03781983743254528,1.0239282205106948,63.888888888888886,1.0952380952193197,0.9274809160305725,0.0,0.9991829633681868,0
457,326.06666666666666,0.6750000000000114,0.6666666666666856,0.7277777777777601,0.9274809160305725,0.0372076983933099,1.0073552662174001,58.333333333333336,0.9999999999828572,0.9160305343511933,0.0,0.9991238221857246,0
458,326.73333333333335,0.6666666666666856,0.6833333333333371,0.7277777777777601,0.9160305343511933,0.03944326803955983,1.0678807207171754,61.111111111111114,1.0476190476010885,0.9389312977099517,0.0,0.9986985061094136,0
459,327.4166666666667,0.6833333333333371,0.6555555555555088,0.7277777777777601,0.9389312977099517,0.03541296423675543,0.9587649211507872,55.55555555555556,0.9523809523646259,0.9007633587785836,0.0,0.998212894530959,0
460,328.0722222222222,0.6555555555555088,0.6833333333333371,0.7277777777777601,0.9007633587785836,0.03844152504512212,1.0407596913491062,63.888888888888886,1.0952380952193197,0.9389312977099517,0.0,0.9988572366573418,0
461,328.75555555555553,0.6833333333333371,0.6472222222222399,0.7277777777777601,0.9389312977099517,0.03665666921809465,0.9924367905937556,61.111111111111114,1.0476190476010885,0.8893129770992826,0.0,0.9981208278043523,0
462,329.40277777777777,0.6472222222222399,0.6583333333333599,0.7277777777777601,0.8893129770992826,0.03548779735972227,0.960790941134912,58.333333333333336,0.9999999999828572,0.9045801526718141,0.0,0.9991777578430632,0
463,330.06111111111113,0.6583333333333599,0.6833333333333371,0.7277777777777601,0.9045801526718141,0.037930364996806236,1.0269206260807333,61.111111111111114,1.0476190476010885,0.9389312977099517,0.0,0.9988610891638319,0
464,330.74444444444447,0.6833333333333371,0.6888888888888687,0.7277777777777601,0.9389312977099517,0.0400345414444712,1.0838887621691256,63.888888888888886,1.0952380952193197,0.9465648854961785,0.0,0.9979519656398176,0
465,331.43333333333334,0.6888888888888687,0.6611111111110972,0.7277777777777601,0.9465648854961785,0.03655339411917441,0.9896407371086215,58.333333333333336,0.9999999999828572,0.9083969465648885,0.0,0.9987482490549455,0
466,332.09444444444443,0.6611111111110972,0.6750000000000114,0.7277777777777601,0.9083969465648885,0.037843605079019356,1.024571701964134,61.111111111111114,1.0476190476010885,0.9274809160305725,0.0,0.9981981607127263,0
467,332.76944444444445,0.6750000000000114,0.6527777777777715,0.7277777777777601,0.9274809160305725,0.038695280150347316,1.0476298164204305,61.111111111111114,1.0476190476010885,0.8969465648855093,0.0,0.9978348651704831,0
468,333.4222222222222,0.6527777777777715,0.7111111111111086,0.7277777777777601,0.8969465648855093,0.037855304889123365,1.0248884607487658,61.111111111111114,1.0476190476010885,0.9770992366412417,0.0,0.9980319642134565,0
469,334.1333333333333,0.7111111111111086,0.6888888888888687,0.7277777777777601,0.9770992366412417,0.04003003979193114,1.0837668851493492,61.111111111111114,1.0476190476010885,0.9465648854961785,0.0,0.9976359745963159,0
470,334.8222222222222,0.6888888888888687,0.6916666666667197,0.7277777777777601,0.9465648854961785,0.03814319512688251,1.0326827549304076,61.111111111111114,1.0476190476010885,0.950381679389409,0.0,0.9988836319669103,0
471,335.5138888888889,0.6916666666667197,0.6805555555555429,0.7277777777777601,0.950381679389409,0.03283422459516789,0.8889485371676311,52.77777777777778,0.9047619047463946,0.9351145038167993,0.0,0.9957140125963866,0
472,336.19444444444446,0.6805555555555429,0.7111111111111086,0.7277777777777601,0.9351145038167993,0.039253334773724446,1.0627384979022445,61.111111111111114,1.0476190476010885,0.9770992366412417,0.0,0.9986023450357125,0
473,336.90555555555557,0.7111111111111086,0.6999999999999886,0.7277777777777601,0.9770992366412417,0.035505255231614935,0.96126359276206,55.55555555555556,0.9523809523646259,0.96183206106871,0.0,0.9992951100715463,0
474,337.60555555555555,0.6999999999999886,0.7083333333333144,0.7277777777777601,0.96183206106871,0.03790501364537121,1.0262342676528657,61.111111111111114,1.0476190476010885,0.9732824427480892,0.0,0.9988421250825388,0
475,338.31388888888887,0.7083333333333144,0.7194444444444912,0.7277777777777601,0.9732824427480892,0.03563835520376527,0.9648671200875539,58.333333333333336,0.9999999999828572,0.9885496183206989,0.0,0.9995818918935471,0
476,339.03333333333336,0.7194444444444912,0.7249999999999659,0.7277777777777601,0.9885496183206989,0.03877698110484101,1.049841774975196,61.111111111111114,1.0476190476010885,0.9961832061068475,0.0,0.9986684891099469,0
477,339.7583333333333,0.7249999999999659,0.716666666666697,0.7277777777777601,0.9961832061068475,0.034012241871308475,0.9208419882021801,55.55555555555556,0.9523809523646259,0.9847328244275465,0.0,0.998577445168883,0
478,340.475,0.716666666666697,0.7138888888888459,0.7277777777777601,0.9847328244275465,0.039390439283090016,1.0664504434268403,63.888888888888886,1.0952380952193197,0.980916030534316,0.0,0.9986266601443734,0
479,341.18888888888887,0.7138888888888459,0.7361111111111427,0.7277777777777601,0.980916030534316,0.03487787501444726,0.9442780012588212,58.333333333333336,0.9999999999828572,1.0114503816794573,0.0,0.9993688233435998,0
480,341.925,0.7361111111111427,0.7194444444444343,0.7277777777777601,1.0114503816794573,0.03792434750982845,1.0267577096022027,61.111111111111114,1.0476190476010885,0.9885496183206208,0.0,0.9988859485797292,0
481,342.64444444444445,0.7194444444444343,0.7333333333333485,0.7277777777777601,0.9885496183206208,0.03679390871579428,0.9961523907708847,58.333333333333336,0.9999999999828572,1.007633587786305,0.0,0.9984113843111655,0
482,343.3777777777778,0.7333333333333485,0.7083333333333144,0.7277777777777601,1.007633587786305,0.03855723301319388,1.0438923503421,61.111111111111114,1.0476190476010885,0.9732824427480892,0.0,0.9991129565872887,0
483,344.0861111111111,0.7083333333333144,0.7361111111110858,0.7277777777777601,0.9732824427480892,0.03706615498541748,1.0035231426651294,61.111111111111114,1.0476190476010885,1.0114503816793792,0.0,0.999168686241001,0
484,344.8222222222222,0.7361111111110858,0.7388888888889369,0.7277777777777601,1.0114503816793792,0.03627460703438074,0.9820929002321865,58.333333333333336,0.9999999999828572,1.0152671755726097,0.0,0.9986220386055964,0
485,345.56111111111113,0.7388888888889369,0.7444444444444116,0.7277777777777601,1.0152671755726097,0.03796897679853766,1.0279659958158118,61.111111111111114,1.0476190476010885,1.0229007633587583,0.0,0.9990566403117727,0
486,346.30555555555554,0.7444444444444116,0.7444444444444684,0.7277777777777601,1.0229007633587583,0.036960080839631926,1.0006513082335269,58.333333333333336,0.9999999999828572,1.0229007633588365,0.0,0.9982609829814075,0
487,347.05,0.7444444444444684,0.7416666666666742,0.7277777777777601,1.0229007633588365,0.03747064780529164,1.014474316477069,58.333333333333336,0.9999999999828572,1.0190839694656841,0.0,0.9992229851446093,0
488,347.7916666666667,0.7416666666666742,0.7249999999999659,0.7277777777777601,1.0190839694656841,0.037399047767450504,1.0125358285217483,61.111111111111114,1.0476190476010885,0.9961832061068475,0.0,0.999658977266115,0
489,348.51666666666665,0.7249999999999659,0.7361111111111427,0.7277777777777601,0.9961832061068475,0.036428132384227076,0.9862494209616004,58.333333333333336,0.9999999999828572,1.0114503816794573,0.0,0.9997912267472392,0
490,349.2527777777778,0.7361111111111427,0.7472222222222058,0.7277777777777601,1.0114503816794573,0.0391109142599935,1.058882627727,61.111111111111114,1.0476190476010885,1.0267175572519107,0.0,0.9987547693707794,0
491,350.0,0.7472222222222058,0.7416666666666742,0.7277777777777601,1.0267175572519107,0.036235003760262736,0.9810206875325319,61.111111111111114,1.0476190476010885,1.0190839694656841,0.0,0.9978806504760794,0
492,350.7416666666667,0.7416666666666742,0.7333333333333485,0.7277777777777601,1.0190839694656841,0.03516777530311705,0.9521267152368394,55.55555555555556,0.9523809523646259,1.007633587786305,0.0,0.9983637020332987,0
493,351.475,0.7333333333333485,0.7222222222221717,0.7277777777777601,1.007633587786305,0.03874502535370285,1.0489766100876856,61.111111111111114,1.0476190476010885,0.9923664122136951,0.0,0.997442621416663,0
494,352.1972222222222,0.7222222222221717,0.7527777777777942,0.7277777777777601,0.9923664122136951,0.03555528634473558,0.9626181271044976,55.55555555555556,0.9523809523646259,1.0343511450382157,0.0,0.9974656122919037,0
495,352.95,0.7527777777777942,0.7277777777778169,0.7277777777777601,1.0343511450382157,0.0375227035878091,1.015883666394436,58.333333333333336,0.9999999999828572,1.0000000000000782,0.0,0.999443506400896,0
496,353.6777777777778,0.7277777777778169,0.7166666666666401,0.7277777777777601,1.0000000000000782,0.037794154917187905,1.0232328962038408,61.111111111111114,1.0476190476010885,0.9847328244274683,0.0,0.9993843261004343,0
497,354.39444444444445,0.7166666666666401,0.7416666666666742,0.7277777777777601,0.9847328244274683,0.03645674489446002,0.9870240714803769,58.333333333333336,0.9999999999828572,1.0190839694656841,0.0,0.9997374868903445,0
498,355.1361111111111,0.7416666666666742,0.7527777777777942,0.7277777777777601,1.0190839694656841,0.036982780972770704,1.001265888001925,61.111111111111114,1.0476190476010885,1.0343511450382157,0.0,0.999659135458546,0
499,355.8888888888889,0.7527777777777942,0.7277777777777601,0.7277777777777601,1.0343511450382157,0.038219519442761515,1.0347491472325712,61.111111111111114,1.0476190476010885,1.0,0.0,0.9991021380451677,0
500,356.6166666666667,0.7277777777777601,0.7194444444444343,0.7277777777777601,1.0,0.03557671236037583,0.9631982116198339,55.55555555555556,0.9523809523646259,0.9885496183206208,0.0,0.9988272355168939,0
501,357.3361111111111,0.7194444444444343,0.73888888888888,0.7277777777777601,0.9885496183206208,0.03826028563061951,1.035852844472542,61.111111111111114,1.0476190476010885,1.0152671755725315,0.0,0.9990352524010625,0
502,358.075,0.73888888888888,0.75,0.7277777777777601,1.0152671755725315,0.03788581296455922,1.0257144314962066,61.111111111111114,1.0476190476010885,1.0305343511450633,0.0,0.9981026377658424,0
503,358.825,0.75,0.7222222222222285,0.7277777777777601,1.0305343511450633,0.03841550249268156,1.0400551609327306,61.111111111111114,1.0476190476010885,0.9923664122137732,0.0,0.9987103332800971,0
504,359.5472222222222,0.7222222222222285,0.7138888888889028,0.7277777777777601,0.9923664122137732,0.03650715433457345,0.9883888485872153,58.333333333333336,0.9999999999828572,0.980916030534394,0.0,0.9987441049132217,0
505,360.2611111111111,0.7138888888889028,0.7166666666666401,0.7277777777777601,0.980916030534394,0.037914858307476734,1.026500800457752,61.111111111111114,1.0476190476010885,0.9847328244274683,0.0,0.998562204287782,0
506,360.97777777777776,0.7166666666666401,0.7222222222222285,0.7277777777777601,0.9847328244274683,0.0376675627802177,1.0198055609655616,61.111111111111114,1.0476190476010885,0.9923664122137732,0.0,0.9991054277858749,0
507,361.7,0.7222222222222285,0.705555555555577,0.7277777777777601,0.9923664122137732,0.03607681761738437,0.9767379812391539,55.55555555555556,0.9523809523646259,0.9694656488550148,0.0,0.9983254037073883,0
508,362.40555555555557,0.705555555555577,0.7138888888889028,0.7277777777777601,0.9694656488550148,0.03757732379047123,1.0173624450120207,61.111111111111114,1.0476190476010885,0.980916030534394,0.0,0.998189994849578,0
509,363.11944444444447,0.7138888888889028,0.7222222222221717,0.7277777777777601,0.980916030534394,0.036858707372314475,0.9979067392177956,58.333333333333336,0.9999999999828572,0.9923664122136951,0.0,0.9998844930740475,0
510,363.84166666666664,0.7222222222221717,0.7138888888889028,0.7277777777777601,0.9923664122136951,0.037281273730444736,1.0093472331093867,58.333333333333336,0.9999999999828572,0.980916030534394,0.0,0.9996205544352967,0
511,364.55555555555554,0.7138888888889028,0.7083333333333712,0.7277777777777601,0.980916030534394,0.03589736912939023,0.9718796216200019,58.333333333333336,0.9999999999828572,0.9732824427481673,0.0,0.9996049989804391,0
512,365.2638888888889,0.7083333333333712,0.6944444444444002,0.7277777777777601,0.9732824427481673,0.03734625395469644,1.0111064972919763,58.333333333333336,0.9999999999828572,0.9541984732824051,0.0,0.9993253787723588,0
513,365.9583333333333,0.6944444444444002,0.7222222222222285,0.7277777777777601,0.9541984732824051,0.03659106851404375,0.9906607276404736,58.333333333333336,0.9999999999828572,0.9923664122137732,0.0,0.9996361691599988,0
514,366.68055555555554,0.7222222222222285,0.705555555555577,0.7277777777777601,0.9923664122137732,0.037156884877497666,1.005979549229819,61.111111111111114,1.0476190476010885,0.9694656488550148,0.0,0.998325976909985,0
515,367.3861111111111,0.705555555555577,0.7083333333333144,0.7277777777777601,0.9694656488550148,0.03704476333010993,1.0029439884159366,58.333333333333336,0.9999999999828572,0.9732824427480892,0.0,0.9997498402454668,0
516,368.09444444444443,0.7083333333333144,0.6805555555555429,0.7277777777777601,0.9732824427480892,0.03732576849424493,1.0105518772171578,61.111111111111114,1.0476190476010885,0.9351145038167993,0.0,0.9996242198384523,0
517,368.775,0.6805555555555429,0.6972222222222513,0.7277777777777601,0.9351145038167993,0.03706649972692352,1.0035324761414417,61.111111111111114,1.0476190476010885,0.9580152671756357,0.0,0.9994164258316248,0
518,369.47222222222223,0.6972222222222513,0.6999999999999886,0.7277777777777601,0.9580152671756357,0.036390755487357984,0.9852374848429526,55.55555555555556,0.9523809523646259,0.96183206106871,0.0,0.9980890748899071,0
519,370.1722222222222,0.6999999999999886,0.6861111111111313,0.7277777777777601,0.96183206106871,0.039440295491753645,1.0678002424340256,61.111111111111114,1.0476190476010885,0.9427480916031041,0.0,0.99810432036886,0
520,370.85833333333335,0.6861111111111313,0.6833333333333371,0.7277777777777601,0.9427480916031041,0.036366747089874536,0.9845874853352502,58.333333333333336,0.9999999999828572,0.9389312977099517,0.0,0.9998010577301522,0
521,371.5416666666667,0.6833333333333371,0.7027777777777828,0.7277777777777601,0.9389312977099517,0.037446022386463905,1.0138076118323283,58.333333333333336,0.9999999999828572,0.9656488549618625,0.0,0.9997087790741337,0
522,372.24444444444447,0.7027777777777828,0.6611111111110972,0.7277777777777601,0.9656488549618625,0.039038268496447454,1.0569158279614532,63.888888888888886,1.0952380952193197,0.9083969465648885,0.0,0.9987319079905461,0
523,372.90555555555557,0.6611111111110972,0.6777777777777487,0.7277777777777601,0.9083969465648885,0.03407394770364083,0.9225126020224509,55.55555555555556,0.9523809523646259,0.9312977099236468,0.0,0.997940032572308,0
524,373.5833333333333,0.6777777777777487,0.6638888888888914,0.7277777777777601,0.9312977099236468,0.037535911578790014,1.0162412574265427,58.333333333333336,0.9999999999828572,0.9122137404580409,0.0,0.9993852344247125,0
525,374.2472222222222,0.6638888888888914,0.6944444444444571,0.7277777777777601,0.9122137404580409,0.03723070780725559,1.0079782194048226,58.333333333333336,0.9999999999828572,0.9541984732824833,0.0,0.999237404696213,0
526,374.94166666666666,0.6944444444444571,0.6416666666666515,0.7277777777777601,0.9541984732824833,0.036783188639033265,0.9958621571298433,58.333333333333336,0.9999999999828572,0.8816793893129777,0.0,0.9994781544395219,0
527,375.5833333333333,0.6416666666666515,0.6527777777777715,0.7277777777777601,0.8816793893129777,0.03591267017422483,0.9722938796568691,58.333333333333336,0.9999999999828572,0.8969465648855093,0.0,0.9992975116666416,0
528,376.2361111111111,0.6527777777777715,0.63611111111112,0.7277777777777601,0.8969465648855093,0.03648885814155158,0.9878935003881011,58.333333333333336,0.9999999999828572,0.8740458015267509,0.0,0.9995373607719606,0
529,376.8722222222222,0.63611111111112,0.6805555555555998,0.7277777777777601,0.8740458015267509,0.03765969778081463,1.019592625231571,58.333333333333336,0.9999999999828572,0.9351145038168773,0.0,0.997962561128222,0
530,377.5527777777778,0.6805555555555998,0.6333333333333258,0.7277777777777601,0.9351145038168773,0.04036559924146292,1.0928517679346716,61.111111111111114,1.0476190476010885,0.8702290076335986,0.0,0.9980836575590637,0
531,378.18611111111113,0.6333333333333258,0.658333333333303,0.7277777777777601,0.8702290076335986,0.035328745543942816,0.9564847977520771,58.333333333333336,0.9999999999828572,0.9045801526717361,0.0,0.9991497624011969,0
532,378.84444444444443,0.658333333333303,0.6305555555555884,0.7277777777777601,0.9045801526717361,0.03789560845886448,1.0259796331399442,61.111111111111114,1.0476190476010885,0.8664122137405242,0.0,0.998213250619537,0
533,379.475,0.6305555555555884,0.6472222222221831,0.7277777777777601,0.8664122137405242,0.03789012401022188,1.0258311480559164,58.333333333333336,0.9999999999828572,0.8893129770992044,0.0,0.9991347502892519,0
534,380.1222222222222,0.6472222222221831,0.6666666666666856,0.7277777777777601,0.8893129770992044,0.037987526935631344,1.0284682192560486,61.111111111111114,1.0476190476010885,0.9160305343511933,0.0,0.9982090686940128,0
535,380.7888888888889,0.6666666666666856,0.44999999999998863,0.7277777777777601,0.9160305343511933,0.03989591950255644,1.0801357339187614,63.888888888888886,1.0952380952193197,0.6183206106870223,0.0,0.9802443857668429,0
536,381.2388888888889,0.44999999999998863,0.20555555555557703,0.7277777777777601,0.6183206106870223,0.030932511279240446,0.8374618554765186,47.22222222222222,0.809523809509932,0.28244274809163944,1.0,0.3783619693649928,1
537,381.44444444444446,0.20555555555557703,0.63611111111112,0.7277777777777601,0.28244274809163944,0.03093397497656815,0.8375014833835078,47.22222222222222,0.809523809509932,0.8740458015267509,0.0,0.9898616719941162,0
538,382.0805555555556,0.63611111111112,0.6416666666666515,0.7277777777777601,0.8740458015267509,0.03477707259289529,0.9415488926446721,58.333333333333336,0.9999999999828572,0.8816793893129777,0.0,0.9989103381777764,0
539,382.72222222222223,0.6416666666666515,0.6499999999999773,0.7277777777777601,0.8816793893129777,0.038520397787814346,1.0428950793505933,58.333333333333336,0.9999999999828572,0.8931297709923569,0.0,0.9981962502947328,0
540,383.3722222222222,0.6499999999999773,0.63611111111112,0.7277777777777601,0.8931297709923569,0.03456801289834612,0.9358888439624948,58.333333333333336,0.9999999999828572,0.8740458015267509,0.0,0.9985095331273561,0
541,384.0083333333333,0.63611111111112,0.6416666666666515,0.7277777777777601,0.8740458015267509,0.03876180860203877,1.0494309970647222,63.888888888888886,1.0952380952193197,0.8816793893129777,0.0,0.9986628060764159,0
542,384.65,0.6416666666666515,0.6111111111111427,0.7277777777777601,0.8816793893129777,0.03611882069538519,0.9778751658447212,58.333333333333336,0.9999999999828572,0.8396946564886134,0.0,0.999062672226843,0
543,385.2611111111111,0.6111111111111427,0.6388888888888573,0.7277777777777601,0.8396946564886134,0.03627263803921542,0.9820395919724824,58.333333333333336,0.9999999999828572,0.8778625954198253,0.0,0.999370684629362,0
544,385.9,0.6388888888888573,0.63611111111112,0.7277777777777601,0.8778625954198253,0.03676451215722451,0.9953565130530292,58.333333333333336,0.9999999999828572,0.8740458015267509,0.0,0.998430662693087,0
545,386.5361111111111,0.63611111111112,0.6166666666666742,0.7277777777777601,0.8740458015267509,0.03502319426800956,0.9482123514519276,55.55555555555556,0.9523809523646259,0.8473282442748402,0.0,0.9978224125194481,0
546,387.15277777777777,0.6166666666666742,0.61388888888888,0.7277777777777601,0.8473282442748402,0.03634794372371415,0.984078406011825,55.55555555555556,0.9523809523646259,0.8435114503816877,0.0,0.9982709696515097,0
547,387.76666666666665,0.61388888888888,0.6333333333333258,0.7277777777777601,0.8435114503816877,0.034172030149295166,0.9251680704448443,55.55555555555556,0.9523809523646259,0.8702290076335986,0.0,0.9974528817519761,0
548,388.4,0.6333333333333258,0.6527777777778283,0.7277777777777601,0.8702290076335986,0.038445484637852495,1.0408668927284244,61.111111111111114,1.0476190476010885,0.8969465648855874,0.0,0.9986508766064016,0
549,389.0527777777778,0.6527777777778283,0.6361111111110631,0.7277777777777601,0.8969465648855874,0.037136705206638594,1.0054332080534436,61.111111111111114,1.0476190476010885,0.8740458015266729,0.0,0.9977919695425213,0
550,389.68888888888887,0.6361111111110631,0.6055555555555543,0.7277777777777601,0.8740458015266729,0.037640971919718366,1.0190856442678369,58.333333333333336,0.9999999999828572,0.8320610687023086,0.0,0.9992142839602665,0
551,390.2944444444444,0.6055555555555543,0.6194444444444684,0.7277777777777601,0.8320610687023086,0.03605818298170846,0.9762334700978373,58.333333333333336,0.9999999999828572,0.8511450381679926,0.0,0.9987860233787456,0
552,390.9138888888889,0.6194444444444684,0.6527777777777715,0.7277777777777601,0.8511450381679926,0.03728012624720986,1.0093161663320944,58.333333333333336,0.9999999999828572,0.8969465648855093,0.0,0.9989496861481679,0
