beat_index,peak_time_s,rr_prev_s,rr_next_s,rr_baseline_s,prematurity_index,aa_ratio,morph_index,qrs_width_ms,width_index,pause_index,pvc_score,morphology_score,is_pvc_candidate
0,0.19722222222222222,,1.3333333333333333,1.19861111111112,,0.02042969539739901,0.9921172158719314,41.666666666666664,1.0714285714010205,1.1123986095017298,0.0,0.9972437812640467,0
1,1.5305555555555554,1.3333333333333333,1.3083333333333336,1.19861111111112,1.1123986095017298,0.019969486153672916,0.9697683014744024,38.888888888888886,0.9999999999742858,1.0915411355735727,0.0,0.9996971472962446,0
2,2.838888888888889,1.3083333333333336,1.3222222222222224,1.19861111111112,1.0915411355735727,0.020653981671584696,1.003009119523697,41.666666666666664,1.0714285714010205,1.1031286210892157,0.0,0.9972971565560256,0
3,4.161111111111111,1.3222222222222224,1.1888888888888882,1.19861111111112,1.1031286210892157,0.022728185236856015,1.1037376436793047,38.888888888888886,0.9999999999742858,0.9918887601390419,0.0,0.9935574615984852,0
4,5.35,1.1888888888888882,1.1527777777777786,1.19861111111112,0.9918887601390419,0.01930717885070294,0.9376049987578149,36.111111111111114,0.9285714285475513,0.9617612977983713,0.0,0.9989108582648755,0
5,6.502777777777778,1.1527777777777786,1.3361111111111104,1.19861111111112,0.9617612977983713,0.021197029366007793,1.0293808767230386,41.666666666666664,1.0714285714010205,1.1147161066048579,0.0,0.9988229140739368,0
6,7.838888888888889,1.3361111111111104,1.2166666666666668,1.19861111111112,1.1147161066048579,0.022594783430711564,1.0972593175990653,38.888888888888886,0.9999999999742858,1.0150637311703286,0.0,0.992148715746614,0
7,9.055555555555555,1.2166666666666668,1.1333333333333329,1.19861111111112,1.0150637311703286,0.021852692769697545,1.0612215350375336,41.666666666666664,1.0714285714010205,0.94553881807647,0.0,0.9985432413416824,0
8,10.188888888888888,1.1333333333333329,1.3500000000000014,1.19861111111112,0.94553881807647,0.01939655309868485,0.9419452362578682,36.111111111111114,0.9285714285475513,1.1263035921205027,0.0,0.9996732012435516,0
9,11.53888888888889,1.3500000000000014,1.3249999999999993,1.19861111111112,1.1263035921205027,0.024254648448232212,1.1778665233293797,44.44444444444444,1.1428571428277552,1.1054461181923436,0.0,0.9945171101793562,0
10,12.863888888888889,1.3249999999999993,1.2222222222222214,1.19861111111112,1.1054461181923436,0.02044036088573912,0.9926351587189524,38.888888888888886,0.9999999999742858,1.019698725376585,0.0,0.9996477096472332,0
11,14.08611111111111,1.2222222222222214,1.4555555555555557,1.19861111111112,1.019698725376585,0.0248024691352845,1.2044700690143808,41.666666666666664,1.0714285714010205,1.2143684820393885,0.0,0.9928821532710956,0
12,15.541666666666666,1.4555555555555557,1.3305555555555575,1.19861111111112,1.2143684820393885,0.019429980792871598,0.943568568874653,38.888888888888886,0.9999999999742858,1.110081112398603,0.0,0.9972573163652063,0
13,16.872222222222224,1.3305555555555575,1.216666666666665,1.19861111111112,1.110081112398603,0.021057141136281307,1.022587553655326,41.666666666666664,1.0714285714010205,1.0150637311703272,0.0,0.9994529889835317,0
14,18.08888888888889,1.216666666666665,1.3333333333333321,1.19861111111112,1.0150637311703272,0.021577747277130067,1.0478694927629673,38.888888888888886,0.9999999999742858,1.1123986095017289,0.0,0.9984616259304644,0
15,19.42222222222222,1.3333333333333321,1.3416666666666686,1.19861111111112,1.1123986095017289,0.02397902331043646,1.1644814757789863,44.44444444444444,1.1428571428277552,1.1193511008111172,0.0,0.9922845848936683,0
16,20.76388888888889,1.3416666666666686,1.2416666666666671,1.19861111111112,1.1193511008111172,0.021685364753898814,1.0530956671798686,41.666666666666664,1.0714285714010205,1.0359212050984863,0.0,0.9980809570722026,0
17,22.005555555555556,1.2416666666666671,1.3555555555555543,1.19861111111112,1.0359212050984863,0.021380834394550994,1.038306909619484,38.888888888888886,0.9999999999742858,1.1309385863267576,0.0,0.9989149431203914,0
18,23.36111111111111,1.3555555555555543,1.3416666666666686,1.19861111111112,1.1309385863267576,0.021344562217191696,1.0365454417700954,41.666666666666664,1.0714285714010205,1.1193511008111172,0.0,0.9971868893516971,0
19,24.70277777777778,1.3416666666666686,1.2055555555555557,1.19861111111112,1.1193511008111172,0.021258966605946672,1.0323887043412014,41.666666666666664,1.0714285714010205,1.0057937427578143,0.0,0.99847342078101,0
20,25.908333333333335,1.2055555555555557,1.2944444444444443,1.19861111111112,1.0057937427578143,0.021514302652550187,1.0447884627683524,38.888888888888886,0.9999999999742858,1.0799536500579294,0.0,0.998996415235516,0
21,27.20277777777778,1.2944444444444443,1.3361111111111086,1.19861111111112,1.0799536500579294,0.0238437266239763,1.1579111295610667,41.666666666666664,1.0714285714010205,1.1147161066048563,0.0,0.9923708761379288,0
22,28.538888888888888,1.3361111111111086,1.222222222222225,1.19861111111112,1.1147161066048563,0.01910145063633784,0.927614321007025,38.888888888888886,0.9999999999742858,1.0196987253765881,0.0,0.9970543505297166,0
23,29.761111111111113,1.222222222222225,1.3472222222222214,1.19861111111112,1.0196987253765881,0.02033772604688292,0.9876509536881501,38.888888888888886,0.9999999999742858,1.1239860950173723,0.0,0.9996614495654069,0
24,31.108333333333334,1.3472222222222214,1.3416666666666686,1.19861111111112,1.1239860950173723,0.02103543266973126,1.02153333610702,41.666666666666664,1.0714285714010205,1.1193511008111172,0.0,0.9976742790421207,0
25,32.45,1.3416666666666686,1.2888888888888843,1.19861111111112,1.1193511008111172,0.021755523034922748,1.056502729159299,41.666666666666664,1.0714285714010205,1.0753186558516685,0.0,0.9981919167644302,0
26,33.73888888888889,1.2888888888888843,1.3611111111111143,1.19861111111112,1.0753186558516685,0.0200009099724001,0.9712943208761232,38.888888888888886,0.9999999999742858,1.1355735805330185,0.0,0.9983394863733874,0
27,35.1,1.3611111111111143,1.3305555555555557,1.19861111111112,1.1355735805330185,0.02170262023800162,1.0539336367390613,41.666666666666664,1.0714285714010205,1.1100811123986014,0.0,0.9971242242442606,0
28,36.43055555555556,1.3305555555555557,1.1555555555555515,1.19861111111112,1.1100811123986014,0.02047840447024986,0.9944826505396767,38.888888888888886,0.9999999999742858,0.9640787949014958,0.0,0.9995474875272634,0
29,37.58611111111111,1.1555555555555515,1.2833333333333385,1.19861111111112,0.9640787949014958,0.021005540344059236,1.0200816898467708,41.666666666666664,1.0714285714010205,1.0706836616454194,0.0,0.9996003089972088,0
30,38.86944444444445,1.2833333333333385,1.2361111111111072,1.19861111111112,1.0706836616454194,0.02020163515469429,0.9810420388493659,41.666666666666664,1.0714285714010205,1.0312862108922254,0.0,0.9976895927517557,0
31,40.105555555555554,1.2361111111111072,1.1416666666666657,1.19861111111112,1.0312862108922254,0.02325045585540137,1.129100413995934,38.888888888888886,0.9999999999742858,0.9524913093858555,0.0,0.9943312156310302,0
32,41.24722222222222,1.1416666666666657,1.18611111111111,1.19861111111112,0.9524913093858555,0.01939644822478139,0.9419401433182482,36.111111111111114,0.9285714285475513,0.989571263035913,0.0,0.9995072149906179,0
33,42.43333333333333,1.18611111111111,1.2361111111111143,1.19861111111112,0.989571263035913,0.02421580163375457,1.1759800246481533,41.666666666666664,1.0714285714010205,1.0312862108922314,0.0,0.9934962492415772,0
34,43.669444444444444,1.2361111111111143,1.0888888888888886,1.19861111111112,1.0312862108922314,0.023120657122736418,1.122797062195023,38.888888888888886,0.9999999999742858,0.9084588644264125,0.0,0.9942299236021508,0
35,44.75833333333333,1.0888888888888886,1.1138888888888872,1.19861111111112,0.9084588644264125,0.02039419190572908,0.9903930773263421,38.888888888888886,0.9999999999742858,0.9293163383545687,0.0,0.9987119202009744,0
36,45.87222222222222,1.1138888888888872,1.2083333333333357,1.19861111111112,0.9293163383545687,0.02165241786425925,1.0514956836370397,44.44444444444444,1.1428571428277552,1.0081112398609446,0.0,0.9971394281426458,0
37,47.080555555555556,1.2083333333333357,1.12222222222222,1.19861111111112,1.0081112398609446,0.02120291073028751,1.0296664905142,41.666666666666664,1.0714285714010205,0.9362688296639542,0.0,0.9983385738145326,0
38,48.202777777777776,1.12222222222222,1.0750000000000028,1.19861111111112,0.9362688296639542,0.020001879118950183,0.9713413850617774,38.888888888888886,0.9999999999742858,0.8968713789107721,0.0,0.9992262116541866,0
39,49.27777777777778,1.0750000000000028,1.2611111111111128,1.19861111111112,0.8968713789107721,0.023270446109516764,1.1300711908416847,38.888888888888886,0.9999999999742858,1.0521436848203876,0.0,0.9928126875242601,0
40,50.53888888888889,1.2611111111111128,1.18333333333333,1.19861111111112,1.0521436848203876,0.023270548343128403,1.1300761555621162,41.666666666666664,1.0714285714010205,0.9872537659327826,0.0,0.993543197700306,0
41,51.72222222222222,1.18333333333333,1.1305555555555529,1.19861111111112,0.9872537659327826,0.023119836869963908,1.1227572286644125,38.888888888888886,0.9999999999742858,0.9432213209733395,0.0,0.9949441610473141,0
42,52.852777777777774,1.1305555555555529,1.2916666666666714,1.19861111111112,0.9432213209733395,0.019731907710416215,0.9582308967755035,38.888888888888886,0.9999999999742858,1.0776361529548049,0.0,0.9976873212274014,0
43,54.144444444444446,1.2916666666666714,1.1805555555555571,1.19861111111112,1.0776361529548049,0.022354698592658158,1.0856001960865176,38.888888888888886,0.9999999999742858,0.984936268829658,0.0,0.9933174251870824,0
44,55.325,1.1805555555555571,1.1166666666666671,1.19861111111112,0.984936268829658,0.019424657372926223,0.9433100502588642,38.888888888888886,0.9999999999742858,0.9316338354576992,0.0,0.9949272365037383,0
45,56.44166666666667,1.1166666666666671,1.2111111111111086,1.19861111111112,0.9316338354576992,0.01972392477679282,0.9578432255093945,41.666666666666664,1.0714285714010205,1.0104287369640692,0.0,0.9985157415169157,0
46,57.65277777777778,1.2111111111111086,1.1416666666666657,1.19861111111112,1.0104287369640692,0.02044519138280662,0.9928697397642723,41.666666666666664,1.0714285714010205,0.9524913093858555,0.0,0.9979676829244382,0
47,58.794444444444444,1.1416666666666657,1.0805555555555557,1.19861111111112,0.9524913093858555,0.02086191168204868,1.0131067220118875,38.888888888888886,0.9999999999742858,0.9015063731170271,0.0,0.9981362326551491,0
48,59.875,1.0805555555555557,1.2416666666666671,1.19861111111112,0.9015063731170271,0.019849065598857067,0.963920377496404,38.888888888888886,0.9999999999742858,1.0359212050984863,0.0,0.9986954873142211,0
49,61.11666666666667,1.2416666666666671,1.2666666666666657,1.19861111111112,1.0359212050984863,0.021034114553993635,1.0214693251029219,41.666666666666664,1.0714285714010205,1.0567786790266427,0.0,0.9979103823701969,0
50,62.38333333333333,1.2666666666666657,1.1583333333333314,1.19861111111112,1.0567786790266427,0.021407782382935003,1.0396155714809965,41.666666666666664,1.0714285714010205,0.9663962920046263,0.0,0.998326927737248,0
51,63.541666666666664,1.1583333333333314,1.2416666666666671,1.19861111111112,0.9663962920046263,0.020905756402789154,1.0152359315485728,38.888888888888886,0.9999999999742858,1.0359212050984863,0.0,0.9988604096568675,0
52,64.78333333333333,1.2416666666666671,1.2166666666666686,1.19861111111112,1.0359212050984863,0.024022928707266186,1.1666136318986513,44.44444444444444,1.1428571428277552,1.01506373117033,0.0,0.994669886686302,0
53,66.0,1.2166666666666686,1.1500000000000057,1.19861111111112,1.01506373117033,0.02464823694575517,1.1969801673052662,41.666666666666664,1.0714285714010205,0.9594438006952468,0.0,0.9951287397825754,0
54,67.15,1.1500000000000057,1.2361111111111,1.19861111111112,0.9594438006952468,0.021926744581403104,1.0648176766260637,38.888888888888886,0.9999999999742858,1.0312862108922196,0.0,0.9947595672914308,0
55,68.3861111111111,1.2361111111111,1.2333333333333343,1.19861111111112,1.0312862108922196,0.01999332838230902,0.9709261398579176,38.888888888888886,0.9999999999742858,1.028968713789101,0.0,0.9945212839091218,0
56,69.61944444444444,1.2333333333333343,1.1166666666666742,1.19861111111112,1.028968713789101,0.021121613147121278,1.0257184761018916,38.888888888888886,0.9999999999742858,0.9316338354577052,0.0,0.9981727086575377,0
57,70.73611111111111,1.1166666666666742,1.25,1.19861111111112,0.9316338354577052,0.023339023968326388,1.1334015035570337,41.666666666666664,1.0714285714010205,1.0428736964078718,0.0,0.9942999375127903,0
58,71.98611111111111,1.25,1.2083333333333286,1.19861111111112,1.0428736964078718,0.02194284569153434,1.0655995868917392,38.888888888888886,0.9999999999742858,1.0081112398609389,0.0,0.9959563292650226,0
59,73.19444444444444,1.2083333333333286,1.1000000000000085,1.19861111111112,1.0081112398609389,0.02290607926144573,1.1123766234077381,41.666666666666664,1.0714285714010205,0.9177288528389344,0.0,0.9969016336432699,0
60,74.29444444444445,1.1000000000000085,1.0388888888888772,1.19861111111112,0.9177288528389344,0.023982343030404422,1.1646426897015643,41.666666666666664,1.0714285714010205,0.8667439165700881,0.0,0.9962092209281088,0
61,75.33333333333333,1.0388888888888772,0.9916666666666742,1.19861111111112,0.8667439165700881,0.024566276001704163,1.192999938425668,41.666666666666664,1.0714285714010205,0.827346465816918,0.0,0.9940416427424326,0
62,76.325,0.9916666666666742,1.0111111111111057,1.19861111111112,0.827346465816918,0.020160181704802466,0.9790289554188513,36.111111111111114,0.9285714285475513,0.8435689455388073,0.0,0.9989756915061244,0
63,77.33611111111111,1.0111111111111057,1.0,1.19861111111112,0.8435689455388073,0.02028871534788264,0.9852708712985573,36.111111111111114,0.9285714285475513,0.8342989571262974,0.0,0.9961602703964798,0
64,78.33611111111111,1.0,0.9472222222222229,1.19861111111112,0.8342989571262974,0.025967094326142005,1.2610271874349996,41.666666666666664,1.0714285714010205,0.7902665121668545,0.0,0.9939691022484495,0
65,79.28333333333333,0.9472222222222229,1.0222222222222257,1.19861111111112,0.7902665121668545,0.021341995309559013,1.0364207863014554,41.666666666666664,1.0714285714010205,0.8528389339513291,0.0,0.9993102385861127,0
66,80.30555555555556,1.0222222222222257,1.0555555555555571,1.19861111111112,0.8528389339513291,0.019894535011756354,0.9661284861566396,38.888888888888886,0.9999999999742858,0.8806488991888708,0.0,0.9979805824519898,0
67,81.36111111111111,1.0555555555555571,1.0249999999999915,1.19861111111112,0.8806488991888708,0.02057604486884745,0.9992243130328728,41.666666666666664,1.0714285714010205,0.8551564310544477,0.0,0.9984582449799191,0
68,82.3861111111111,1.0249999999999915,1.13333333333334,1.19861111111112,0.8551564310544477,0.02378308824262162,1.1549663777713632,41.666666666666664,1.0714285714010205,0.945538818076476,0.0,0.9937994441792491,0
69,83.51944444444445,1.13333333333334,1.3305555555555486,1.19861111111112,0.945538818076476,0.019928806235935133,0.9677927827041595,38.888888888888886,0.9999999999742858,1.1100811123985954,0.0,0.9969035443655051,0
70,84.85,1.3305555555555486,1.2666666666666657,1.19861111111112,1.1100811123985954,0.020740199974749404,1.0071960964329985,38.888888888888886,0.9999999999742858,1.0567786790266427,0.0,0.998898244855595,0
71,86.11666666666666,1.2666666666666657,1.3055555555555571,1.19861111111112,1.0567786790266427,0.019879764748177563,0.9654112051353401,36.111111111111114,0.9285714285475513,1.0892236384704452,0.0,0.9995395697365147,0
72,87.42222222222222,1.3055555555555571,1.2861111111111114,1.19861111111112,1.0892236384704452,0.020267293416033783,0.9842305685935452,41.666666666666664,1.0714285714010205,1.073001158748544,0.0,0.9967819449387482,0
73,88.70833333333333,1.2861111111111114,1.1972222222222229,1.19861111111112,1.073001158748544,0.020196233898464144,0.9807797403084907,38.888888888888886,0.9999999999742858,0.9988412514484288,0.0,0.9972085002521626,0
74,89.90555555555555,1.1972222222222229,1.2027777777777828,1.19861111111112,0.9988412514484288,0.019390368382331227,0.9416448909296411,38.888888888888886,0.9999999999742858,1.0034762456546897,0.0,0.9996447692074173,0
75,91.10833333333333,1.2027777777777828,1.2777777777777715,1.19861111111112,1.0034762456546897,0.02564687899773574,1.2454767284624988,41.666666666666664,1.0714285714010205,1.0660486674391525,0.0,0.9934675530898864,0
76,92.3861111111111,1.2777777777777715,1.1527777777777857,1.19861111111112,1.0660486674391525,0.0205370282430498,0.997329567888312,38.888888888888886,0.9999999999742858,0.9617612977983773,0.0,0.9954512181550901,0
77,93.53888888888889,1.1527777777777857,1.1888888888888829,1.19861111111112,0.9617612977983773,0.023077402523484825,1.120696510436987,41.666666666666664,1.0714285714010205,0.9918887601390375,0.0,0.9955300738182002,0
78,94.72777777777777,1.1888888888888829,1.2333333333333343,1.19861111111112,0.9918887601390375,0.02120264575464442,1.0296536226328055,41.666666666666664,1.0714285714010205,1.028968713789101,0.0,0.9955488147144271,0
79,95.96111111111111,1.2333333333333343,1.13333333333334,1.19861111111112,1.028968713789101,0.023401334005604072,1.1364274351483918,41.666666666666664,1.0714285714010205,0.945538818076476,0.0,0.9936092929723128,0
80,97.09444444444445,1.13333333333334,1.1694444444444372,1.19861111111112,0.945538818076476,0.020239894903808047,0.9829000281650329,36.111111111111114,0.9285714285475513,0.9756662804171362,0.0,0.9995705991196436,0
81,98.26388888888889,1.1694444444444372,1.3972222222222257,1.19861111111112,0.9756662804171362,0.020216088457770457,0.9817439274741911,38.888888888888886,0.9999999999742858,1.1657010428736907,0.0,0.9953126001606601,0
82,99.66111111111111,1.3972222222222257,1.1888888888888829,1.19861111111112,1.1657010428736907,0.023849367626075278,1.1581850707622594,44.44444444444444,1.1428571428277552,0.9918887601390375,0.0,0.9924940486297189,0
83,100.85,1.1888888888888829,1.12777777777778,1.19861111111112,0.9918887601390375,0.02093420933018575,1.0166176770206914,38.888888888888886,0.9999999999742858,0.9409038238702151,0.0,0.9988924420723596,0
84,101.97777777777777,1.12777777777778,1.4083333333333314,1.19861111111112,0.9409038238702151,0.022879617562450084,1.1110915769778171,41.666666666666664,1.0714285714010205,1.1749710312862007,0.0,0.9961023095673691,0
85,103.3861111111111,1.4083333333333314,1.1805555555555571,1.19861111111112,1.1749710312862007,0.02102482766917081,1.0210183306981928,41.666666666666664,1.0714285714010205,0.984936268829658,0.0,0.9972741159282561,0
86,104.56666666666666,1.1805555555555571,1.0805555555555628,1.19861111111112,0.984936268829658,0.020584333193684873,0.9996268148618034,38.888888888888886,0.9999999999742858,0.901506373117033,0.0,0.9943888499306598,0
87,105.64722222222223,1.0805555555555628,1.00277777777778,1.19861111111112,0.901506373117033,0.02273704136923908,1.1041677196658708,41.666666666666664,1.0714285714010205,0.8366164542294279,0.0,0.9938591986608738,0
88,106.65,1.00277777777778,0.9749999999999943,1.19861111111112,0.8366164542294279,0.023818841316857627,1.156702636671944,41.666666666666664,1.0714285714010205,0.8134414831981353,0.0,0.9938488993850743,0
89,107.625,0.9749999999999943,1.0,1.19861111111112,0.8134414831981353,0.02027957546839405,0.98482701584133,38.888888888888886,0.9999999999742858,0.8342989571262974,0.0,0.9988090703637187,0
90,108.625,1.0,1.0416666666666714,1.19861111111112,0.8342989571262974,0.019728204710818924,0.9580510698334284,38.888888888888886,0.9999999999742858,0.8690614136732304,0.0,0.9894692359757078,0
91,109.66666666666667,1.0416666666666714,1.0138888888888857,1.19861111111112,0.8690614136732304,0.02293987218710378,1.1140176925802283,41.666666666666664,1.0714285714010205,0.8458864426419378,0.0,0.9958840991253404,0
92,110.68055555555556,1.0138888888888857,1.0583333333333371,1.19861111111112,0.8458864426419378,0.01835089263155103,0.8911653430083475,36.111111111111114,0.9285714285475513,0.8829663962920012,0.0,0.993001340433046,0
93,111.7388888888889,1.0583333333333371,1.1111111111111,1.19861111111112,0.8829663962920012,0.026764075466983984,1.2997305892808855,41.666666666666664,1.0714285714010205,0.9269988412514324,0.0,0.9926503060341481,0
94,112.85,1.1111111111111,1.0888888888888886,1.19861111111112,0.9269988412514324,0.020244309843060863,0.983114428681269,41.666666666666664,1.0714285714010205,0.9084588644264125,0.0,0.9990398273058902,0
95,113.93888888888888,1.0888888888888886,1.375,1.19861111111112,0.9084588644264125,0.02234322389874186,1.0850429561884294,38.888888888888886,0.9999999999742858,1.147161066048659,0.0,0.992913900116847,0
96,115.31388888888888,1.375,1.38333333333334,1.19861111111112,1.147161066048659,0.021072982328123033,1.0233568416373733,41.666666666666664,1.0714285714010205,1.1541135573580503,0.0,0.9981684421330934,0
97,116.69722222222222,1.38333333333334,1.3388888888888886,1.19861111111112,1.1541135573580503,0.02066655179062413,1.0036195560114662,38.888888888888886,0.9999999999742858,1.1170336037079869,0.0,0.99936734915541,0
98,118.03611111111111,1.3388888888888886,1.36944444444444,1.19861111111112,1.1170336037079869,0.021462797503078775,1.0422872436114996,41.666666666666664,1.0714285714010205,1.1425260718423982,0.0,0.9979866538695742,0
99,119.40555555555555,1.36944444444444,1.2083333333333428,1.19861111111112,1.1425260718423982,0.019907789212191003,0.9667721433516219,38.888888888888886,0.9999999999742858,1.0081112398609506,0.0,0.9993605186982417,0
100,120.6138888888889,1.2083333333333428,1.2305555555555543,1.19861111111112,1.0081112398609506,0.019963604712216417,0.9694826839353432,38.888888888888886,0.9999999999742858,1.0266512166859705,0.0,0.999704335495815,0
101,121.84444444444445,1.2305555555555543,1.2999999999999972,1.19861111111112,1.0266512166859705,0.023692531106763632,1.150568696271119,41.666666666666664,1.0714285714010205,1.0845886442641843,0.0,0.9942543732338306,0
102,123.14444444444445,1.2999999999999972,1.1666666666666714,1.19861111111112,1.0845886442641843,0.02055290223529067,0.9981004487399564,41.666666666666664,1.0714285714010205,0.9733487833140176,0.0,0.997107220993779,0
103,124.31111111111112,1.1666666666666714,1.0861111111111086,1.19861111111112,0.9733487833140176,0.02279873447404059,1.1071636914698342,38.888888888888886,0.9999999999742858,0.9061413673232821,0.0,0.9932544580383635,0
104,125.39722222222223,1.0861111111111086,1.1611111111111114,1.19861111111112,0.9061413673232821,0.01967240595536522,0.95534134240808,38.888888888888886,0.9999999999742858,0.9687137891077567,0.0,0.9996817318016589,0
105,126.55833333333334,1.1611111111111114,1.24444444444444,1.19861111111112,0.9687137891077567,0.022929574411419556,1.1135176067814547,38.888888888888886,0.9999999999742858,1.0382387022016109,0.0,0.9932194642539043,0
106,127.80277777777778,1.24444444444444,1.1666666666666572,1.19861111111112,1.0382387022016109,0.019946472355053164,0.968650693728955,41.666666666666664,1.0714285714010205,0.9733487833140058,0.0,0.9998232738764816,0
107,128.96944444444443,1.1666666666666572,1.2388888888889085,1.19861111111112,0.9733487833140058,0.022374996576007087,1.0865859170351775,38.888888888888886,0.9999999999742858,1.0336037079953737,0.0,0.996587684827726,0
108,130.20833333333334,1.2388888888889085,1.2722222222222115,1.19861111111112,1.0336037079953737,0.01939910964297313,0.9420693884565283,38.888888888888886,0.9999999999742858,1.0614136732328916,0.0,0.9972581549610997,0
109,131.48055555555555,1.2722222222222115,1.0194444444444457,1.19861111111112,1.0614136732328916,0.022179426513941,1.0770885446216067,44.44444444444444,1.1428571428277552,0.8505214368481987,0.0,0.9978935017831865,0
110,132.5,1.0194444444444457,1.0194444444444457,1.19861111111112,0.8505214368481987,0.024241821485817668,1.177243613883533,41.666666666666664,1.0714285714010205,0.8505214368481987,0.0,0.9934876944751582,0
111,133.51944444444445,1.0194444444444457,1.0194444444444457,1.19861111111112,0.8505214368481987,0.020254453946106584,0.9836070517515336,38.888888888888886,0.9999999999742858,0.8505214368481987,0.0,0.9985215800621562,0
112,134.5388888888889,1.0194444444444457,1.055555555555543,1.19861111111112,0.8505214368481987,0.02244919505726883,1.0901891812649858,38.888888888888886,0.9999999999742858,0.880648899188859,0.0,0.9948032514726113,0
113,135.59444444444443,1.055555555555543,1.4611111111111086,1.19861111111112,0.880648899188859,0.020661139129340558,1.0033567036126096,41.666666666666664,1.0714285714010205,1.2190034762456436,0.0,0.9986382580491769,0
114,137.05555555555554,1.4611111111111086,1.3027777777777771,1.19861111111112,1.2190034762456436,0.021436278610550526,1.0409994197202788,41.666666666666664,1.0714285714010205,1.0869061413673147,0.0,0.9973195753239018,0
115,138.35833333333332,1.3027777777777771,1.3333333333333428,1.19861111111112,1.0869061413673147,0.021308963537841154,1.0348166806721462,38.888888888888886,0.9999999999742858,1.1123986095017377,0.0,0.9984788317240538,0
116,139.69166666666666,1.3333333333333428,1.3277777777777828,1.19861111111112,1.1123986095017377,0.023545389295689244,1.143423121111929,44.44444444444444,1.1428571428277552,1.1077636152954768,0.0,0.9919061649478758,0
117,141.01944444444445,1.3277777777777828,1.23888888888888,1.19861111111112,1.1077636152954768,0.022837560499128443,1.1090491805661835,38.888888888888886,0.9999999999742858,1.03360370799535,0.0,0.9937958947946257,0
118,142.25833333333333,1.23888888888888,1.3083333333333371,1.19861111111112,1.03360370799535,0.02024573272337116,0.9831835273156103,38.888888888888886,0.9999999999742858,1.0915411355735756,0.0,0.9994543512253944,0
119,143.56666666666666,1.3083333333333371,1.3305555555555486,1.19861111111112,1.0915411355735756,0.0217536181175987,1.056410221599336,41.666666666666664,1.0714285714010205,1.1100811123985954,0.0,0.9962295117407634,0
120,144.8972222222222,1.3305555555555486,1.1805555555555713,1.19861111111112,1.1100811123985954,0.02100879015171612,1.0202395086522866,38.888888888888886,0.9999999999742858,0.9849362688296699,0.0,0.9955522401462129,0
121,146.07777777777778,1.1805555555555713,1.36388888888888,1.19861111111112,0.9849362688296699,0.020168378122538074,0.979426994008551,38.888888888888886,0.9999999999742858,1.1378910776361373,0.0,0.998467478524175,0
122,147.44166666666666,1.36388888888888,1.3000000000000114,1.19861111111112,1.1378910776361373,0.021632425547840194,1.0505248066406538,41.666666666666664,1.0714285714010205,1.084588644264196,0.0,0.996296960349955,0
123,148.74166666666667,1.3000000000000114,1.1500000000000057,1.19861111111112,1.084588644264196,0.02108059231724573,1.0237264017837369,38.888888888888886,0.9999999999742858,0.9594438006952468,0.0,0.9987913836717117,0
124,149.89166666666668,1.1500000000000057,1.2194444444444343,1.19861111111112,0.9594438006952468,0.020478386278243485,0.9944817670902486,38.888888888888886,0.9999999999742858,1.0173812282734487,0.0,0.9993805935614186,0
125,151.11111111111111,1.2194444444444343,1.3027777777777771,1.19861111111112,1.0173812282734487,0.021626049093485287,1.0502151500344898,44.44444444444444,1.1428571428277552,1.0869061413673147,0.0,0.9961156426750808,0
126,152.4138888888889,1.3027777777777771,1.1944444444444287,1.19861111111112,1.0869061413673147,0.022134993260321152,1.0749307544531315,44.44444444444444,1.1428571428277552,0.9965237543452865,0.0,0.9969012518517048,0
127,153.60833333333332,1.1944444444444287,1.1583333333333599,1.19861111111112,0.9965237543452865,0.02103872145017895,1.0216930475289432,38.888888888888886,0.9999999999742858,0.96639629200465,0.0,0.9990486265268435,0
128,154.76666666666668,1.1583333333333599,1.305555555555543,1.19861111111112,0.96639629200465,0.02113199238375403,1.026222517848509,41.666666666666664,1.0714285714010205,1.0892236384704332,0.0,0.9973101655846793,0
129,156.07222222222222,1.305555555555543,1.0583333333333371,1.19861111111112,1.0892236384704332,0.02105109164405658,1.0222937751497394,41.666666666666664,1.0714285714010205,0.8829663962920012,0.0,0.9974997243231231,0
130,157.13055555555556,1.0583333333333371,1.0583333333333371,1.19861111111112,0.8829663962920012,0.02053305929893174,0.9971368260137138,41.666666666666664,1.0714285714010205,0.8829663962920012,0.0,0.9989011755428663,0
131,158.1888888888889,1.0583333333333371,1.0999999999999943,1.19861111111112,0.8829663962920012,0.019545470288278778,0.9491770282479833,38.888888888888886,0.9999999999742858,0.9177288528389225,0.0,0.9985831346227464,0
132,159.2888888888889,1.0999999999999943,1.1638888888888914,1.19861111111112,0.9177288528389225,0.01995821996541255,0.9692211871335893,38.888888888888886,0.9999999999742858,0.9710312862108872,0.0,0.9994952705885524,0
133,160.45277777777778,1.1638888888888914,1.5083333333333258,1.19861111111112,0.9710312862108872,0.020468844256766764,0.9940183826101022,41.666666666666664,1.0714285714010205,1.2584009269988257,0.0,0.9993971119896279,0
134,161.9611111111111,1.5083333333333258,1.3972222222222115,1.19861111111112,1.2584009269988257,0.020079019447238368,0.9750875127569786,38.888888888888886,0.9999999999742858,1.165701042873679,0.0,0.994441587853022,0
135,163.35833333333332,1.3972222222222115,1.27222222222224,1.19861111111112,1.165701042873679,0.023054807608341388,1.1195992447230878,41.666666666666664,1.0714285714010205,1.0614136732329154,0.0,0.9960028244742556,0
136,164.63055555555556,1.27222222222224,1.3361111111111086,1.19861111111112,1.0614136732329154,0.023384425597936857,1.1356063204908644,41.666666666666664,1.0714285714010205,1.1147161066048563,0.0,0.9952351246038293,0
137,165.96666666666667,1.3361111111111086,1.26111111111112,1.19861111111112,1.1147161066048563,0.020085071451312043,0.975381413244246,41.666666666666664,1.0714285714010205,1.0521436848203936,0.0,0.9973351385514089,0
138,167.2277777777778,1.26111111111112,1.2138888888888744,1.19861111111112,1.0521436848203936,0.02344886109874833,1.1387354699189332,38.888888888888886,0.9999999999742858,1.0127462340671878,0.0,0.9934885680323535,0
139,168.44166666666666,1.2138888888888744,1.3083333333333371,1.19861111111112,1.0127462340671878,0.02318894600022486,1.1261133412530788,38.888888888888886,0.9999999999742858,1.0915411355735756,0.0,0.9939848430633174,0
140,169.75,1.3083333333333371,1.1916666666666629,1.19861111111112,1.0915411355735756,0.021769730536230478,1.0571926810341428,41.666666666666664,1.0714285714010205,0.9942062572421679,0.0,0.9955846567415564,0
141,170.94166666666666,1.1916666666666629,1.1027777777777885,1.19861111111112,0.9942062572421679,0.019788870260623453,0.9609971409911546,38.888888888888886,0.9999999999742858,0.9200463499420647,0.0,0.9992913543273703,0
142,172.04444444444445,1.1027777777777885,1.1777777777777771,1.19861111111112,0.9200463499420647,0.018922376225181607,0.9189180187482627,38.888888888888886,0.9999999999742858,0.9826187717265276,0.0,0.9955130939051273,0
143,173.22222222222223,1.1777777777777771,1.1500000000000057,1.19861111111112,0.9826187717265276,0.020387198895590812,0.9900534792259305,38.888888888888886,0.9999999999742858,0.9594438006952468,0.0,0.9946196345029763,0
144,174.37222222222223,1.1500000000000057,1.0972222222222001,1.19861111111112,0.9594438006952468,0.019667174782356335,0.9550873035347456,38.888888888888886,0.9999999999742858,0.9154113557357801,0.0,0.9973014149589219,0
145,175.46944444444443,1.0972222222222001,1.1083333333333485,1.19861111111112,0.9154113557357801,0.02017447918356575,0.9797232768244668,38.888888888888886,0.9999999999742858,0.9246813441483256,0.0,0.9986400316412993,0
146,176.57777777777778,1.1083333333333485,1.3777777777777658,1.19861111111112,0.9246813441483256,0.02181878803038194,1.0595750359135698,44.44444444444444,1.1428571428277552,1.1494785631517777,0.0,0.997729625788591,0
147,177.95555555555555,1.3777777777777658,1.3166666666666629,1.19861111111112,1.1494785631517777,0.020807467663246735,1.0104627839940186,41.666666666666664,1.0714285714010205,1.098493626882955,0.0,0.9966242546904985,0
148,179.2722222222222,1.3166666666666629,1.1138888888889085,1.19861111111112,1.098493626882955,0.02126004465648098,1.0324410571772993,41.666666666666664,1.0714285714010205,0.9293163383545865,0.0,0.9992853423322899,0
149,180.38611111111112,1.1138888888889085,1.3305555555555486,1.19861111111112,0.9293163383545865,0.02598068952718547,1.2616874044742696,41.666666666666664,1.0714285714010205,1.1100811123985954,0.0,0.9938663249689584,0
150,181.71666666666667,1.3305555555555486,1.2638888888888857,1.19861111111112,1.1100811123985954,0.022794334995518542,1.1069500417654368,41.666666666666664,1.0714285714010205,1.0544611819235121,0.0,0.9952451986204078,0
151,182.98055555555555,1.2638888888888857,1.063888888888897,1.19861111111112,1.0544611819235121,0.020598506216931843,1.0003150923955968,41.666666666666664,1.0714285714010205,0.8876013904982621,0.0,0.9977804447958609,0
152,184.04444444444445,1.063888888888897,1.0138888888888857,1.19861111111112,0.8876013904982621,0.022758183432437202,1.1051944312477076,41.666666666666664,1.0714285714010205,0.8458864426419378,0.0,0.9957446496630822,0
153,185.05833333333334,1.0138888888888857,1.0277777777777715,1.19861111111112,0.8458864426419378,0.022952248149823863,1.1146187003504735,38.888888888888886,0.9999999999742858,0.8574739281575782,0.0,0.9947991732798718,0
154,186.0861111111111,1.0277777777777715,0.98888888888888,1.19861111111112,0.8574739281575782,0.02450978515745855,1.1902566014338523,41.666666666666664,1.0714285714010205,0.8250289687137756,0.0,0.9944889118272875,0
155,187.075,0.98888888888888,1.0305555555555657,1.19861111111112,0.8250289687137756,0.023074498334807732,1.1205554757554297,41.666666666666664,1.0714285714010205,0.8597914252607205,0.0,0.9971393600497231,0
156,188.10555555555555,1.0305555555555657,1.4166666666666572,1.19861111111112,0.8597914252607205,0.020856626690236565,1.0128500695625706,41.666666666666664,1.0714285714010205,1.1819235225955802,0.0,0.998607818613835,0
157,189.5222222222222,1.4166666666666572,1.3277777777777828,1.19861111111112,1.1819235225955802,0.022370140104987623,1.0863500746296462,38.888888888888886,0.9999999999742858,1.1077636152954768,0.0,0.9950756888653735,0
158,190.85,1.3277777777777828,1.39166666666668,1.19861111111112,1.1077636152954768,0.021516171430870177,1.0448792153276953,44.44444444444444,1.1428571428277552,1.1610660486674416,0.0,0.9983574443242401,0
159,192.24166666666667,1.39166666666668,1.311111111111103,1.19861111111112,1.1610660486674416,0.01982745957781664,0.9628711349588267,38.888888888888886,0.9999999999742858,1.0938586326766941,0.0,0.9981300932622708,0
160,193.55277777777778,1.311111111111103,1.3166666666666629,1.19861111111112,1.0938586326766941,0.024150538217183694,1.1728106695556229,41.666666666666664,1.0714285714010205,1.098493626882955,0.0,0.9934995952939409,0
161,194.86944444444444,1.3166666666666629,1.3833333333333258,1.19861111111112,1.098493626882955,0.020038714584355168,0.9731302075905555,38.888888888888886,0.9999999999742858,1.1541135573580386,0.0,0.9951736257328628,0
162,196.25277777777777,1.3833333333333258,1.2305555555555543,1.19861111111112,1.1541135573580386,0.0205838202238735,0.9996019037619955,41.666666666666664,1.0714285714010205,1.0266512166859705,0.0,0.9977765942565596,0
163,197.48333333333332,1.2305555555555543,1.2138888888889028,1.19861111111112,1.0266512166859705,0.023110120572696125,1.122285380915027,41.666666666666664,1.0714285714010205,1.0127462340672115,0.0,0.9952992324196399,0
164,198.69722222222222,1.2138888888889028,1.3333333333333428,1.19861111111112,1.0127462340672115,0.022370387311382748,1.0863620795918203,41.666666666666664,1.0714285714010205,1.1123986095017377,0.0,0.9958036323792414,0
165,200.03055555555557,1.3333333333333428,1.2583333333333258,1.19861111111112,1.1123986095017377,0.019580580131992785,0.9508820502621478,38.888888888888886,0.9999999999742858,1.0498261877172512,0.0,0.9947347756250626,0
166,201.2888888888889,1.2583333333333258,1.1750000000000114,1.19861111111112,1.0498261877172512,0.021169301569706943,1.0280343454344827,41.666666666666664,1.0714285714010205,0.980301274623409,0.0,0.9993256313835581,0
167,202.4638888888889,1.1750000000000114,1.2305555555555543,1.19861111111112,0.980301274623409,0.02094133123086697,1.016963534368935,38.888888888888886,0.9999999999742858,1.0266512166859705,0.0,0.9985058768249631,0
168,203.69444444444446,1.2305555555555543,1.1472222222222115,1.19861111111112,1.0266512166859705,0.021553868218364438,1.046709865816047,41.666666666666664,1.0714285714010205,0.9571263035921045,0.0,0.9967677119639125,0
169,204.84166666666667,1.1472222222222115,1.0916666666666686,1.19861111111112,0.9571263035921045,0.02083313756883983,1.0117093789516682,38.888888888888886,0.9999999999742858,0.910776361529543,0.0,0.9989413927445066,0
170,205.93333333333334,1.0916666666666686,1.2888888888888914,1.19861111111112,0.910776361529543,0.01977772063642395,0.9604556872933067,38.888888888888886,0.9999999999742858,1.0753186558516743,0.0,0.9981902315774955,0
171,207.22222222222223,1.2888888888888914,1.1361111111110915,1.19861111111112,1.0753186558516743,0.02022620314316485,0.9822351219495715,41.666666666666664,1.0714285714010205,0.9478563151795827,0.0,0.9971495465997335,0
172,208.35833333333332,1.1361111111110915,1.0277777777777999,1.19861111111112,0.9478563151795827,0.019506321671981817,0.9472758733139395,36.111111111111114,0.9285714285475513,0.8574739281576019,0.0,0.9993086944996239,0
173,209.38611111111112,1.0277777777777999,1.0583333333333371,1.19861111111112,0.8574739281576019,0.024047024724883275,1.1677837949112095,38.888888888888886,0.9999999999742858,0.8829663962920012,0.0,0.9955767859015039,0
174,210.44444444444446,1.0583333333333371,1.0277777777777715,1.19861111111112,0.8829663962920012,0.020729152669699744,1.0066596116095317,41.666666666666664,1.0714285714010205,0.8574739281575782,0.0,0.9993923491656631,0
175,211.47222222222223,1.0277777777777715,1.4027777777777715,1.19861111111112,0.8574739281575782,0.021938868330862542,1.0654064362881954,38.888888888888886,0.9999999999742858,1.1703360370799398,0.0,0.9973466412542069,0
176,212.875,1.4027777777777715,1.319444444444457,1.19861111111112,1.1703360370799398,0.023358479951429534,1.1343463348632705,44.44444444444444,1.1428571428277552,1.1008111239860974,0.0,0.9950926514675646,0
177,214.19444444444446,1.319444444444457,1.299999999999983,1.19861111111112,1.1008111239860974,0.021339931228721402,1.0363205493623278,41.666666666666664,1.0714285714010205,1.0845886442641723,0.0,0.9954880905916932,0
178,215.49444444444444,1.299999999999983,1.3722222222222342,1.19861111111112,1.0845886442641723,0.02098949546903014,1.0193025104986095,38.888888888888886,0.9999999999742858,1.1448435689455403,0.0,0.9978849950861493,0
179,216.86666666666667,1.3722222222222342,1.2722222222222115,1.19861111111112,1.1448435689455403,0.025179960950880643,1.222802017769298,44.44444444444444,1.1428571428277552,1.0614136732328916,0.0,0.9924251198052723,0
180,218.13888888888889,1.2722222222222115,1.2638888888888857,1.19861111111112,1.0614136732328916,0.02017611254326032,0.9798025968652787,41.666666666666664,1.0714285714010205,1.0544611819235121,0.0,0.9994901420245476,0
181,219.40277777777777,1.2638888888888857,1.2361111111111143,1.19861111111112,1.0544611819235121,0.021454920238560358,1.0419047039019895,44.44444444444444,1.1428571428277552,1.0312862108922314,0.0,0.996892308621778,0
182,220.63888888888889,1.2361111111111143,1.1333333333333258,1.19861111111112,1.0312862108922314,0.022285646556280084,1.0822468561199108,38.888888888888886,0.9999999999742858,0.9455388180764641,0.0,0.9964942266697816,0
183,221.7722222222222,1.1333333333333258,1.2805555555555657,1.19861111111112,0.9455388180764641,0.024448482076837825,1.18727957018171,44.44444444444444,1.1428571428277552,1.0683661645422948,0.0,0.9945532427071047,0
184,223.05277777777778,1.2805555555555657,1.194444444444457,1.19861111111112,1.0683661645422948,0.020619230492014053,1.001321515139332,38.888888888888886,0.9999999999742858,0.9965237543453103,0.0,0.9941757259743425,0
185,224.24722222222223,1.194444444444457,1.1388888888888857,1.19861111111112,0.9965237543453103,0.019833474206043276,0.9631632203812787,38.888888888888886,0.9999999999742858,0.950173812282725,0.0,0.999502586409809,0
186,225.38611111111112,1.1388888888888857,1.1611111111110972,1.19861111111112,0.950173812282725,0.02029934378200765,0.9857870147000162,38.888888888888886,0.9999999999742858,0.9687137891077449,0.0,0.9988692588919883,0
187,226.54722222222222,1.1611111111110972,1.26111111111112,1.19861111111112,0.9687137891077449,0.025140190372827845,1.220870658813433,38.888888888888886,0.9999999999742858,1.0521436848203936,0.0,0.9916768293646901,0
188,227.80833333333334,1.26111111111112,1.0972222222222285,1.19861111111112,1.0521436848203936,0.02058101082063336,0.9994654720988381,41.666666666666664,1.0714285714010205,0.9154113557358039,0.0,0.9988876636516119,0
189,228.90555555555557,1.0972222222222285,1.1055555555555543,1.19861111111112,0.9154113557358039,0.020249156794616505,0.9833498087977763,41.666666666666664,1.0714285714010205,0.9223638470451834,0.0,0.9997259403709204,0
190,230.01111111111112,1.1055555555555543,1.0222222222222115,1.19861111111112,0.9223638470451834,0.021486992367582877,1.0434622068766526,41.666666666666664,1.0714285714010205,0.8528389339513173,0.0,0.9983547576636682,0
191,231.03333333333333,1.0222222222222115,0.9833333333333485,1.19861111111112,0.8528389339513173,0.018835834816046428,0.9147153510031646,36.111111111111114,0.9285714285475513,0.8203939745075385,0.0,0.9981107689556249,0
192,232.01666666666668,0.9833333333333485,1.049999999999983,1.19861111111112,0.8203939745075385,0.022891455255842706,1.11166644504034,41.666666666666664,1.0714285714010205,0.8760139049825981,0.0,0.9965753549694633,0
193,233.06666666666666,1.049999999999983,1.0138888888888857,1.19861111111112,0.8760139049825981,0.018224922396371156,0.8850479126415051,36.111111111111114,0.9285714285475513,0.8458864426419378,0.0,0.9947915821388379,0
194,234.08055555555555,1.0138888888888857,1.0722222222222229,1.19861111111112,0.8458864426419378,0.02072424641706072,1.006421351683776,38.888888888888886,0.9999999999742858,0.8945538818076416,0.0,0.9978080061034739,0
195,235.15277777777777,1.0722222222222229,1.3638888888889085,1.19861111111112,0.8945538818076416,0.021013637553129284,1.0204749106150026,41.666666666666664,1.0714285714010205,1.1378910776361608,0.0,0.9986529711744299,0
196,236.51666666666668,1.3638888888889085,1.3027777777777771,1.19861111111112,1.1378910776361608,0.02057489565314069,0.9991685042376242,41.666666666666664,1.0714285714010205,1.0869061413673147,0.0,0.9983970668958584,0
197,237.81944444444446,1.3027777777777771,1.3611111111110858,1.19861111111112,1.0869061413673147,0.020376294835098056,0.9895239507171917,41.666666666666664,1.0714285714010205,1.135573580532995,0.0,0.9997124950859935,0
198,239.18055555555554,1.3611111111110858,1.3472222222222285,1.19861111111112,1.135573580532995,0.023705271445834203,1.1511873990702597,41.666666666666664,1.0714285714010205,1.1239860950173781,0.0,0.9935455124583692,0
199,240.52777777777777,1.3472222222222285,1.2083333333333428,1.19861111111112,1.1239860950173781,0.024572384573478913,1.1932965859822875,41.666666666666664,1.0714285714010205,1.0081112398609506,0.0,0.9933870971739731,0
200,241.73611111111111,1.2083333333333428,1.1972222222222229,1.19861111111112,1.0081112398609506,0.026463414378846625,1.2851297332288742,41.666666666666664,1.0714285714010205,0.9988412514484288,0.0,0.9937973773600675,0
201,242.93333333333334,1.1972222222222229,1.2944444444444514,1.19861111111112,0.9988412514484288,0.019975484867426105,0.970059614050134,41.666666666666664,1.0714285714010205,1.0799536500579352,0.0,0.9973174908839151,0
202,244.2277777777778,1.2944444444444514,1.1833333333333087,1.19861111111112,1.0799536500579352,0.020214024647329062,0.9816437036661816,38.888888888888886,0.9999999999742858,0.9872537659327647,0.0,0.9952849545477063,0
203,245.4111111111111,1.1833333333333087,1.200000000000017,1.19861111111112,0.9872537659327647,0.020452940796128357,0.9932460706992102,38.888888888888886,0.9999999999742858,1.0011587485515712,0.0,0.9992949881263261,0
204,246.61111111111111,1.200000000000017,1.2472222222222058,1.19861111111112,1.0011587485515712,0.021421112622643942,1.040262921333732,38.888888888888886,0.9999999999742858,1.0405561993047294,0.0,0.9961567969236718,0
205,247.85833333333332,1.2472222222222058,1.1777777777777771,1.19861111111112,1.0405561993047294,0.021059442180134176,1.0226992981124263,41.666666666666664,1.0714285714010205,0.9826187717265276,0.0,0.9971439588497655,0
206,249.0361111111111,1.1777777777777771,1.1555555555555657,1.19861111111112,0.9826187717265276,0.022487325477890858,1.0920408900649303,38.888888888888886,0.9999999999742858,0.9640787949015077,0.0,0.9944710026080223,0
207,250.19166666666666,1.1555555555555657,1.319444444444457,1.19861111111112,0.9640787949015077,0.023347743050521376,1.133824924042948,41.666666666666664,1.0714285714010205,1.1008111239860974,0.0,0.9935422339364568,0
208,251.51111111111112,1.319444444444457,1.1999999999999886,1.19861111111112,1.1008111239860974,0.023813608718569478,1.1564485285834762,41.666666666666664,1.0714285714010205,1.0011587485515474,0.0,0.9926677850189178,0
209,252.7111111111111,1.1999999999999886,1.1333333333333258,1.19861111111112,1.0011587485515474,0.020216719614139563,0.981774578009479,38.888888888888886,0.9999999999742858,0.9455388180764641,0.0,0.9991111104814077,0
210,253.84444444444443,1.1333333333333258,1.2333333333333485,1.19861111111112,0.9455388180764641,0.02374409063140323,1.1530725560224315,41.666666666666664,1.0714285714010205,1.0289687137891128,0.0,0.9939194431500007,0
211,255.07777777777778,1.2333333333333485,1.2749999999999773,1.19861111111112,1.0289687137891128,0.02328635615367747,1.1308438224649213,41.666666666666664,1.0714285714010205,1.0637311703360102,0.0,0.9941145277425594,0
212,256.35277777777776,1.2749999999999773,1.150000000000034,1.19861111111112,1.0637311703360102,0.019975878348394763,0.9700787224722387,36.111111111111114,0.9285714285475513,0.9594438006952705,0.0,0.9996395677819054,0
213,257.5027777777778,1.150000000000034,1.3666666666666742,1.19861111111112,0.9594438006952705,0.020829953159888493,1.011554736071217,41.666666666666664,1.0714285714010205,1.1402085747392794,0.0,0.9991705332772175,0
214,258.86944444444447,1.3666666666666742,1.2111111111111086,1.19861111111112,1.1402085747392794,0.023661685755220888,1.1490707686858124,41.666666666666664,1.0714285714010205,1.0104287369640692,0.0,0.9946548641458408,0
215,260.0805555555556,1.2111111111111086,1.1416666666666515,1.19861111111112,1.0104287369640692,0.019772786699121567,0.9602160829309063,38.888888888888886,0.9999999999742858,0.9524913093858436,0.0,0.9995409894000771,0
216,261.22222222222223,1.1416666666666515,1.2555555555555316,1.19861111111112,0.9524913093858436,0.021594960925817506,1.0487054306895285,38.888888888888886,0.9999999999742858,1.047508690614109,0.0,0.9982495745914866,0
217,262.47777777777776,1.2555555555555316,1.2472222222222626,1.19861111111112,1.047508690614109,0.019914963938470247,0.9671205660433138,38.888888888888886,0.9999999999742858,1.040556199304777,0.0,0.9941545474477649,0
218,263.725,1.2472222222222626,1.1305555555555316,1.19861111111112,1.040556199304777,0.020277803040007297,0.9847409422762478,38.888888888888886,0.9999999999742858,0.9432213209733218,0.0,0.9963184948448516,0
219,264.85555555555555,1.1305555555555316,1.2555555555555316,1.19861111111112,0.9432213209733218,0.021073716354260485,1.0233924877864569,41.666666666666664,1.0714285714010205,1.047508690614109,0.0,0.9987339306377347,0
220,266.1111111111111,1.2555555555555316,1.2361111111111427,1.19861111111112,1.047508690614109,0.019573027873412637,0.9505152936556329,41.666666666666664,1.0714285714010205,1.0312862108922551,0.0,0.9973294900093892,0
221,267.34722222222223,1.2361111111111427,1.13611111111112,1.19861111111112,1.0312862108922551,0.019552869971807392,0.9495363754275638,38.888888888888886,0.9999999999742858,0.9478563151796064,0.0,0.9996439042414611,0
222,268.48333333333335,1.13611111111112,1.2555555555555316,1.19861111111112,0.9478563151796064,0.020498423454605497,0.9954548225979066,38.888888888888886,0.9999999999742858,1.047508690614109,0.0,0.998016306374137,0
223,269.7388888888889,1.2555555555555316,1.1083333333333485,1.19861111111112,1.047508690614109,0.019797304569114132,0.9614067321521977,38.888888888888886,0.9999999999742858,0.9246813441483256,0.0,0.9966330640265032,0
224,270.84722222222223,1.1083333333333485,1.0500000000000114,1.19861111111112,0.9246813441483256,0.02233666750217979,1.0847245611376573,38.888888888888886,0.9999999999742858,0.8760139049826218,0.0,0.9949899766128498,0
225,271.89722222222224,1.0500000000000114,1.022222222222183,1.19861111111112,0.8760139049826218,0.020635996834732957,1.0021357307668812,38.888888888888886,0.9999999999742858,0.8528389339512936,0.0,0.9994177874954795,0
226,272.9194444444444,1.022222222222183,0.9861111111111427,1.19861111111112,0.8528389339512936,0.022581892428335543,1.0966332982121718,38.888888888888886,0.9999999999742858,0.8227114716106808,0.0,0.9955629374366435,0
227,273.90555555555557,0.9861111111111427,1.0138888888888573,1.19861111111112,0.8227114716106808,0.026010227712720567,1.2631218528018116,41.666666666666664,1.0714285714010205,0.8458864426419141,0.0,0.994491902249828,0
228,274.9194444444444,1.0138888888888573,0.9861111111111427,1.19861111111112,0.8458864426419141,0.0211026936039919,1.0247996956653769,38.888888888888886,0.9999999999742858,0.8227114716106808,0.0,0.9976965470816758,0
229,275.90555555555557,0.9861111111111427,1.0027777777777942,1.19861111111112,0.8227114716106808,0.020123890745772373,0.9772665754844524,38.888888888888886,0.9999999999742858,0.8366164542294398,0.0,0.9993055581126342,0
230,276.90833333333336,1.0027777777777942,1.0027777777777374,1.19861111111112,0.8366164542294398,0.02051857909244585,0.9964336308918786,41.666666666666664,1.0714285714010205,0.8366164542293923,0.0,0.9989660327316818,0
231,277.9111111111111,1.0027777777777374,1.0083333333333258,1.19861111111112,0.8366164542293923,0.02061219685312417,1.0009799440049054,38.888888888888886,0.9999999999742858,0.8412514484356769,0.0,0.9988576036615009,0
232,278.9194444444444,1.0083333333333258,1.4055555555555657,1.19861111111112,0.8412514484356769,0.020483360680250612,0.9947233365201368,41.666666666666664,1.0714285714010205,1.1726535341830822,0.0,0.9987660047455478,0
233,280.325,1.4055555555555657,1.27222222222224,1.19861111111112,1.1726535341830822,0.01954018904913847,0.9489205580378155,38.888888888888886,0.9999999999742858,1.0614136732329154,0.0,0.9944626725380166,0
234,281.59722222222223,1.27222222222224,1.2972222222222172,1.19861111111112,1.0614136732329154,0.020295946711073865,0.9856220444206563,38.888888888888886,0.9999999999742858,1.0822711471610538,0.0,0.9990445215551911,0
235,282.89444444444445,1.2972222222222172,1.3805555555555316,1.19861111111112,1.0822711471610538,0.02368657774921311,1.1502795863062751,41.666666666666664,1.0714285714010205,1.1517960602548962,0.0,0.994271303447732,0
236,284.275,1.3805555555555316,1.26111111111112,1.19861111111112,1.1517960602548962,0.024047208970141877,1.1677927423227812,41.666666666666664,1.0714285714010205,1.0521436848203936,0.0,0.9926287339672925,0
237,285.5361111111111,1.26111111111112,1.3277777777777828,1.19861111111112,1.0521436848203936,0.02040327327054,0.9908340911641536,38.888888888888886,0.9999999999742858,1.1077636152954768,0.0,0.9995784986129217,0
238,286.8638888888889,1.3277777777777828,1.3833333333333258,1.19861111111112,1.1077636152954768,0.021443835618420563,1.0413664069642148,41.666666666666664,1.0714285714010205,1.1541135573580386,0.0,0.9969523128291699,0
239,288.2472222222222,1.3833333333333258,1.2305555555555543,1.19861111111112,1.1541135573580386,0.021461018108338267,1.0422008317428177,41.666666666666664,1.0714285714010205,1.0266512166859705,0.0,0.9985251763782369,0
240,289.47777777777776,1.2305555555555543,1.2527777777777942,1.19861111111112,1.0266512166859705,0.02422475024912454,1.1764145918403734,41.666666666666664,1.0714285714010205,1.045191193511014,0.0,0.9954765190914636,0
241,290.73055555555555,1.2527777777777942,1.27222222222224,1.19861111111112,1.045191193511014,0.01960506579016521,0.9520711351967136,38.888888888888886,0.9999999999742858,1.0614136732329154,0.0,0.9964935842290708,0
242,292.0027777777778,1.27222222222224,1.1722222222222172,1.19861111111112,1.0614136732329154,0.019915693469453006,0.9671559938964182,38.888888888888886,0.9999999999742858,0.9779837775202667,0.0,0.9958874822231413,0
243,293.175,1.1722222222222172,1.2361111111110858,1.19861111111112,0.9779837775202667,0.02167036483253576,1.0523672334009242,38.888888888888886,0.9999999999742858,1.0312862108922076,0.0,0.9979587786767382,0
244,294.4111111111111,1.2361111111110858,1.3361111111111086,1.19861111111112,1.0312862108922076,0.023063006752574177,1.1199974157183248,38.888888888888886,0.9999999999742858,1.1147161066048563,0.0,0.9925983272097575,0
245,295.7472222222222,1.3361111111111086,1.2194444444444343,1.19861111111112,1.1147161066048563,0.020429619320981963,0.9921135214104326,38.888888888888886,0.9999999999742858,1.0173812282734487,0.0,0.9958637310560694,0
246,296.96666666666664,1.2194444444444343,1.2638888888889142,1.19861111111112,1.0173812282734487,0.021096600637531212,1.0245038059419231,41.666666666666664,1.0714285714010205,1.0544611819235359,0.0,0.9986715727900155,0
247,298.23055555555555,1.2638888888889142,1.3277777777777828,1.19861111111112,1.0544611819235359,0.020558520894738863,0.9983733049260247,41.666666666666664,1.0714285714010205,1.1077636152954768,0.0,0.997630560487308,0
248,299.55833333333334,1.3277777777777828,1.23888888888888,1.19861111111112,1.1077636152954768,0.023687816426315414,1.150339739571128,41.666666666666664,1.0714285714010205,1.03360370799535,0.0,0.9940905665272204,0
249,300.7972222222222,1.23888888888888,1.2666666666666515,1.19861111111112,1.03360370799535,0.01978641698526472,0.9608780037905588,38.888888888888886,0.9999999999742858,1.0567786790266307,0.0,0.9989720265201409,0
250,302.06388888888887,1.2666666666666515,1.3555555555555543,1.19861111111112,1.0567786790266307,0.02025504382359524,0.9836356976809206,41.666666666666664,1.0714285714010205,1.1309385863267576,0.0,0.9976936824649287,0
251,303.4194444444444,1.3555555555555543,1.1916666666666629,1.19861111111112,1.1309385863267576,0.022974161672137134,1.1156828759206174,38.888888888888886,0.9999999999742858,0.9942062572421679,0.0,0.9950650430444359,0
252,304.6111111111111,1.1916666666666629,1.3111111111111313,1.19861111111112,0.9942062572421679,0.0221887325875913,1.0775404708838952,38.888888888888886,0.9999999999742858,1.093858632676718,0.0,0.9951909389638169,0
253,305.9222222222222,1.3111111111111313,1.2805555555555657,1.19861111111112,1.093858632676718,0.020940567260955844,1.0169264340751474,38.888888888888886,0.9999999999742858,1.0683661645422948,0.0,0.9941430359449641,0
254,307.2027777777778,1.2805555555555657,1.1722222222222172,1.19861111111112,1.0683661645422948,0.020924672900098362,1.0161545640724259,41.666666666666664,1.0714285714010205,0.9779837775202667,0.0,0.9996425185179486,0
255,308.375,1.1722222222222172,1.2472222222222058,1.19861111111112,0.9779837775202667,0.019512331401006427,0.9475677208188611,38.888888888888886,0.9999999999742858,1.0405561993047294,0.0,0.9986839637773477,0
256,309.6222222222222,1.2472222222222058,1.1805555555555998,1.19861111111112,1.0405561993047294,0.01936099058876507,0.940218231638136,38.888888888888886,0.9999999999742858,0.9849362688296935,0.0,0.9969188636206054,0
257,310.8027777777778,1.1805555555555998,1.011111111111063,1.19861111111112,0.9849362688296935,0.02076737793434701,1.0085159262730699,41.666666666666664,1.0714285714010205,0.8435689455387718,0.0,0.9993097367766807,0
258,311.81388888888887,1.011111111111063,0.9944444444444684,1.19861111111112,0.8435689455387718,0.019610023576376805,0.952311897721923,36.111111111111114,0.9285714285475513,0.8296639629200603,0.0,0.9993082256646134,0
259,312.80833333333334,0.9944444444444684,1.0249999999999773,1.19861111111112,0.8296639629200603,0.02463278594531319,1.1962298279956118,41.666666666666664,1.0714285714010205,0.855156431054436,0.0,0.9926954361405,0
260,313.8333333333333,1.0249999999999773,0.9916666666666742,1.19861111111112,0.855156431054436,0.020425777858467577,0.9919269703620439,38.888888888888886,0.9999999999742858,0.827346465816918,0.0,0.9995478333274448,0
261,314.825,0.9916666666666742,1.1527777777777715,1.19861111111112,0.827346465816918,0.019855534001565815,0.9642344993451007,38.888888888888886,0.9999999999742858,0.9617612977983654,0.0,0.9998932579443713,0
262,315.97777777777776,1.1527777777777715,1.4611111111111086,1.19861111111112,0.9617612977983654,0.023115597856631778,1.1225513715518463,41.666666666666664,1.0714285714010205,1.2190034762456436,0.0,0.99406075913291,0
263,317.43888888888887,1.4611111111111086,1.341666666666697,1.19861111111112,1.2190034762456436,0.023006908720642257,1.1172731546770525,38.888888888888886,0.9999999999742858,1.119351100811141,0.0,0.9959560172395183,0
264,318.78055555555557,1.341666666666697,1.3361111111111086,1.19861111111112,1.119351100811141,0.022842937760656934,1.1093103138642033,38.888888888888886,0.9999999999742858,1.1147161066048563,0.0,0.9930520376863097,0
265,320.1166666666667,1.3361111111111086,1.27222222222224,1.19861111111112,1.1147161066048563,0.020490943249932187,0.9950915651097122,41.666666666666664,1.0714285714010205,1.0614136732329154,0.0,0.9973678352186344,0
266,321.3888888888889,1.27222222222224,1.2694444444444457,1.19861111111112,1.0614136732329154,0.021389325566668362,1.0387192622207688,38.888888888888886,0.9999999999742858,1.059096176129773,0.0,0.9979252708757715,0
267,322.65833333333336,1.2694444444444457,1.3305555555555202,1.19861111111112,1.059096176129773,0.020711777725966222,1.0058158407912439,41.666666666666664,1.0714285714010205,1.1100811123985719,0.0,0.99815853968876,0
268,323.9888888888889,1.3305555555555202,1.2305555555555543,1.19861111111112,1.1100811123985719,0.019822237059469436,0.9626175163775567,38.888888888888886,0.9999999999742858,1.0266512166859705,0.0,0.9977445465517765,0
269,325.21944444444443,1.2305555555555543,1.22777777777776,1.19861111111112,1.0266512166859705,0.020120208449779502,0.977087753961302,36.111111111111114,0.9285714285475513,1.0243337195828282,0.0,0.9996527412122667,0
270,326.4472222222222,1.22777777777776,1.2638888888889142,1.19861111111112,1.0243337195828282,0.019760969989677565,0.9596422339015251,38.888888888888886,0.9999999999742858,1.0544611819235359,0.0,0.9951092091465379,0
271,327.7111111111111,1.2638888888889142,1.1583333333333599,1.19861111111112,1.0544611819235359,0.01974867167897068,0.9590449971076768,36.111111111111114,0.9285714285475513,0.96639629200465,0.0,0.9995343643023625,0
272,328.86944444444447,1.1583333333333599,1.2749999999999773,1.19861111111112,0.96639629200465,0.021017107410277503,1.0206434155753754,41.666666666666664,1.0714285714010205,1.0637311703360102,0.0,0.9981533504162254,0
273,330.14444444444445,1.2749999999999773,1.305555555555543,1.19861111111112,1.0637311703360102,0.019961766659113447,0.969393423469552,38.888888888888886,0.9999999999742858,1.0892236384704332,0.0,0.9969869887133369,0
274,331.45,1.305555555555543,1.1777777777778056,1.19861111111112,1.0892236384704332,0.018974017971540722,0.921425871392365,38.888888888888886,0.9999999999742858,0.9826187717265513,0.0,0.9982243419252677,0
275,332.6277777777778,1.1777777777778056,1.2805555555555657,1.19861111111112,0.9826187717265513,0.02081029882973169,1.0106002725348944,41.666666666666664,1.0714285714010205,1.0683661645422948,0.0,0.9986802789338396,0
276,333.90833333333336,1.2805555555555657,1.2694444444444457,1.19861111111112,1.0683661645422948,0.01907589032684556,0.9263730483107354,38.888888888888886,0.9999999999742858,1.059096176129773,0.0,0.9966451676453782,0
277,335.1777777777778,1.2694444444444457,1.1666666666666288,1.19861111111112,1.059096176129773,0.02016324538993019,0.9791777356478317,38.888888888888886,0.9999999999742858,0.9733487833139821,0.0,0.9997958749658051,0
278,336.34444444444443,1.1666666666666288,1.3166666666666629,1.19861111111112,0.9733487833139821,0.02258531298201502,1.0967994088725226,38.888888888888886,0.9999999999742858,1.098493626882955,0.0,0.9955467857726343,0
279,337.6611111111111,1.3166666666666629,1.2805555555555657,1.19861111111112,1.098493626882955,0.020588646589763553,0.9998362841869837,41.666666666666664,1.0714285714010205,1.0683661645422948,0.0,0.9973869647784517,0
280,338.94166666666666,1.2805555555555657,1.1722222222222172,1.19861111111112,1.0683661645422948,0.02466447673482912,1.197768812168001,41.666666666666664,1.0714285714010205,0.9779837775202667,0.0,0.9935625813557148,0
281,340.1138888888889,1.1722222222222172,1.1999999999999886,1.19861111111112,0.9779837775202667,0.019163583706781537,0.9306316586453545,38.888888888888886,0.9999999999742858,1.0011587485515474,0.0,0.9955935440603758,0
282,341.31388888888887,1.1999999999999886,1.080555555555577,1.19861111111112,1.0011587485515474,0.022726154524472967,1.1036390271959693,38.888888888888886,0.9999999999742858,0.9015063731170448,0.0,0.9961856170998307,0
283,342.39444444444445,1.080555555555577,0.9861111111110858,1.19861111111112,0.9015063731170448,0.02052294274768594,0.9966455409279124,38.888888888888886,0.9999999999742858,0.8227114716106333,0.0,0.9996038875615041,0
284,343.38055555555553,0.9861111111110858,1.0333333333333599,1.19861111111112,0.8227114716106333,0.022155572284388067,1.07593012344349,38.888888888888886,0.9999999999742858,0.8621089223638628,0.0,0.994652031292302,0
285,344.4138888888889,1.0333333333333599,1.0166666666666515,1.19861111111112,0.8621089223638628,0.019952688259009546,0.9689525536053444,38.888888888888886,0.9999999999742858,0.8482039397450564,0.0,0.994570167404188,0
286,345.43055555555554,1.0166666666666515,1.080555555555577,1.19861111111112,0.8482039397450564,0.021975890480420854,1.0672043246673861,38.888888888888886,0.9999999999742858,0.9015063731170448,0.0,0.9953582782624615,0
287,346.5111111111111,1.080555555555577,1.5,1.19861111111112,0.9015063731170448,0.02028097975867122,0.9848952116970665,41.666666666666664,1.0714285714010205,1.2514484356894462,0.0,0.9993445101715464,0
288,348.0111111111111,1.5,1.36388888888888,1.19861111111112,1.2514484356894462,0.024047857858197796,1.1678242539532255,44.44444444444444,1.1428571428277552,1.1378910776361373,0.0,0.9929667597758024,0
289,349.375,1.36388888888888,1.3472222222222285,1.19861111111112,1.1378910776361373,0.02613537821803655,1.2691994750317968,41.666666666666664,1.0714285714010205,1.1239860950173781,0.0,0.9939518249759407,0
290,350.72222222222223,1.3472222222222285,1.3666666666666742,1.19861111111112,1.1239860950173781,0.020040834403754912,0.9732331513339699,38.888888888888886,0.9999999999742858,1.1402085747392794,0.0,0.9941674315457636,0
291,352.0888888888889,1.3666666666666742,1.2222222222222285,1.19861111111112,1.1402085747392794,0.01943791277376055,0.9439537657482637,38.888888888888886,0.9999999999742858,1.019698725376591,0.0,0.9986510585061132,0
292,353.31111111111113,1.2222222222222285,1.349999999999966,1.19861111111112,1.019698725376591,0.02425110726924049,1.177694554801517,41.666666666666664,1.0714285714010205,1.1263035921204732,0.0,0.9941794097304427,0
293,354.6611111111111,1.349999999999966,1.305555555555543,1.19861111111112,1.1263035921204732,0.0203683260255012,0.9891369653492135,41.666666666666664,1.0714285714010205,1.0892236384704332,0.0,0.9975496076361166,0
294,355.96666666666664,1.305555555555543,1.1916666666667197,1.19861111111112,1.0892236384704332,0.020527213770597946,0.99685295250591,41.666666666666664,1.0714285714010205,0.9942062572422153,0.0,0.9987583122210655,0
295,357.15833333333336,1.1916666666667197,1.2472222222222058,1.19861111111112,0.9942062572422153,0.020450599614125386,0.993132377032934,38.888888888888886,0.9999999999742858,1.0405561993047294,0.0,0.9990293346410348,0
296,358.40555555555557,1.2472222222222058,1.27222222222224,1.19861111111112,1.0405561993047294,0.02073705982077317,1.007043602685064,41.666666666666664,1.0714285714010205,1.0614136732329154,0.0,0.998028856986866,0
297,359.6777777777778,1.27222222222224,1.1749999999999545,1.19861111111112,1.0614136732329154,0.02130822402394531,1.03478076802376,41.666666666666664,1.0714285714010205,0.9803012746233616,0.0,0.9983818554254811,0
298,360.85277777777776,1.1749999999999545,1.1222222222222626,1.19861111111112,0.9803012746233616,0.019421427688459888,0.9431532086859207,36.111111111111114,0.9285714285475513,0.9362688296639897,0.0,0.999428552188151,0
299,361.975,1.1222222222222626,1.2444444444444116,1.19861111111112,0.9362688296639897,0.02025059679833827,0.9834197389878987,41.666666666666664,1.0714285714010205,1.038238702201587,0.0,0.9984951996601366,0
300,363.21944444444443,1.2444444444444116,1.1916666666666629,1.19861111111112,1.038238702201587,0.021055400951644997,1.0225030459275848,41.666666666666664,1.0714285714010205,0.9942062572421679,0.0,0.9959341354122059,0
301,364.4111111111111,1.1916666666666629,1.1111111111111427,1.19861111111112,0.9942062572421679,0.02241017557506294,1.088294297406081,38.888888888888886,0.9999999999742858,0.9269988412514679,0.0,0.9932613991486208,0
302,365.52222222222224,1.1111111111111427,1.1861111111110745,1.19861111111112,0.9269988412514679,0.019640131569591962,0.9537740173386412,38.888888888888886,0.9999999999742858,0.9895712630358834,0.0,0.9983609020573143,0
303,366.7083333333333,1.1861111111110745,1.0861111111111086,1.19861111111112,0.9895712630358834,0.019272532134220265,0.9359224673628401,38.888888888888886,0.9999999999742858,0.9061413673232821,0.0,0.9978820923528826,0
304,367.7944444444444,1.0861111111111086,1.1750000000000114,1.19861111111112,0.9061413673232821,0.019887198212188314,0.9657721927798044,38.888888888888886,0.9999999999742858,0.980301274623409,0.0,0.999287902551774,0
305,368.96944444444443,1.1750000000000114,1.2583333333333258,1.19861111111112,0.980301274623409,0.0193306234409541,0.93874352682467,38.888888888888886,0.9999999999742858,1.0498261877172512,0.0,0.9975491296586987,0
306,370.22777777777776,1.2583333333333258,1.1861111111111313,1.19861111111112,1.0498261877172512,0.021242569832370654,1.0315924359175621,38.888888888888886,0.9999999999742858,0.9895712630359308,0.0,0.9991828593655785,0
307,371.4138888888889,1.1861111111111313,1.26111111111112,1.19861111111112,0.9895712630359308,0.02002735678276792,0.9725786442769585,41.666666666666664,1.0714285714010205,1.0521436848203936,0.0,0.9995606141884594,0
308,372.675,1.26111111111112,1.2555555555555316,1.19861111111112,1.0521436848203936,0.02024458077972643,0.9831275860448562,41.666666666666664,1.0714285714010205,1.047508690614109,0.0,0.9982791342589058,0
309,373.93055555555554,1.2555555555555316,1.1555555555555657,1.19861111111112,1.047508690614109,0.024335632878312117,1.1817993302428924,41.666666666666664,1.0714285714010205,0.9640787949015077,0.0,0.9935087286258634,0
310,375.0861111111111,1.1555555555555657,1.2222222222222285,1.19861111111112,0.9640787949015077,0.020047222311545126,0.9735433641476607,38.888888888888886,0.9999999999742858,1.019698725376591,0.0,0.9973484020083747,0
311,376.30833333333334,1.2222222222222285,1.1194444444444684,1.19861111111112,1.019698725376591,0.020334907493400733,0.9875140776663034,38.888888888888886,0.9999999999742858,0.9339513325608474,0.0,0.9950132171555546,0
312,377.4277777777778,1.1194444444444684,1.1861111111110745,1.19861111111112,0.9339513325608474,0.022655109369898625,1.1001888964139674,41.666666666666664,1.0714285714010205,0.9895712630358834,0.0,0.9959638799968564,0
313,378.6138888888889,1.1861111111110745,1.2555555555555884,1.19861111111112,0.9895712630358834,0.020538259853864378,0.9973893779965209,38.888888888888886,0.9999999999742858,1.0475086906141564,0.0,0.9942913097925943,0
314,379.86944444444447,1.2555555555555884,1.1611111111110972,1.19861111111112,1.0475086906141564,0.019971125126146006,0.9698478940858077,38.888888888888886,0.9999999999742858,0.9687137891077449,0.0,0.9983990848902968,0
315,381.03055555555557,1.1611111111110972,1.158333333333303,1.19861111111112,0.9687137891077449,0.01964761539382127,0.9541374506015474,38.888888888888886,0.9999999999742858,0.9663962920046025,0.0,0.9992778858475044,0
316,382.18888888888887,1.158333333333303,1.1777777777778056,1.19861111111112,0.9663962920046025,0.02392174986675423,1.1617001337969297,44.44444444444444,1.1428571428277552,0.9826187717265513,0.0,0.9928515878316386,0
317,383.3666666666667,1.1777777777778056,1.0055555555555316,1.19861111111112,0.9826187717265513,0.020809291332759022,1.0105513459565933,41.666666666666664,1.0714285714010205,0.8389339513325346,0.0,0.9979497839829501,0
318,384.3722222222222,1.0055555555555316,0.98888888888888,1.19861111111112,0.8389339513325346,0.022849515752386834,1.109629757630454,38.888888888888886,0.9999999999742858,0.8250289687137756,0.0,0.9952202149306001,0
319,385.3611111111111,0.98888888888888,1.0166666666667084,1.19861111111112,0.8250289687137756,0.01986510767816558,0.9646994210773663,41.666666666666664,1.0714285714010205,0.8482039397451039,0.0,0.9997310219291695,0
320,386.3777777777778,1.0166666666667084,1.0,1.19861111111112,0.8482039397451039,0.021061488533682785,1.0227986741699662,36.111111111111114,0.9285714285475513,0.8342989571262974,0.0,0.9974200628668803,0
321,387.3777777777778,1.0,1.0611111111110745,1.19861111111112,0.8342989571262974,0.019674782885473998,0.9554567720919774,36.111111111111114,0.9285714285475513,0.8852838933950962,0.0,0.9997355373414765,0
322,388.43888888888887,1.0611111111110745,1.3361111111111086,1.19861111111112,0.8852838933950962,0.020594680831680895,1.0001293220994183,38.888888888888886,0.9999999999742858,1.1147161066048563,0.0,0.9994198045920859,0
323,389.775,1.3361111111111086,1.3222222222222513,1.19861111111112,1.1147161066048563,0.022931275194389877,1.1136002010655346,38.888888888888886,0.9999999999742858,1.1031286210892397,0.0,0.9958081232576952,0
324,391.09722222222223,1.3222222222222513,1.2194444444444343,1.19861111111112,1.1031286210892397,0.022716668378794123,1.1031783561846213,41.666666666666664,1.0714285714010205,1.0173812282734487,0.0,0.994461709846626,0
325,392.31666666666666,1.2194444444444343,1.3944444444444457,1.19861111111112,1.0173812282734487,0.020250562214266535,0.9834180594986897,41.666666666666664,1.0714285714010205,1.1633835457705604,0.0,0.9990142710744025,0
326,393.7111111111111,1.3944444444444457,1.26111111111112,1.19861111111112,1.1633835457705604,0.024305465636807976,1.1803343333807543,41.666666666666664,1.0714285714010205,1.0521436848203936,0.0,0.9937803500660478,0
327,394.97222222222223,1.26111111111112,1.2916666666666856,1.19861111111112,1.0521436848203936,0.020294150946561014,0.9855348375947983,38.888888888888886,0.9999999999742858,1.0776361529548166,0.0,0.9989969702014605,0
328,396.2638888888889,1.2916666666666856,1.272222222222183,1.19861111111112,1.0776361529548166,0.02461641168638357,1.1954346529396347,41.666666666666664,1.0714285714010205,1.061413673232868,0.0,0.9932397649370622,0
329,397.5361111111111,1.272222222222183,1.1527777777777715,1.19861111111112,1.061413673232868,0.02350773428532799,1.1415944994258713,38.888888888888886,0.9999999999742858,0.9617612977983654,0.0,0.9944360843150098,0
330,398.68888888888887,1.1527777777777715,1.2416666666666742,1.19861111111112,0.9617612977983654,0.020528023511518282,0.9968922755546307,41.666666666666664,1.0714285714010205,1.0359212050984923,0.0,0.9994099833930283,0
331,399.93055555555554,1.2416666666666742,1.227777777777817,1.19861111111112,1.0359212050984923,0.020368847825347366,0.9891623052576434,38.888888888888886,0.9999999999742858,1.0243337195828757,0.0,0.9949986498411689,0
332,401.15833333333336,1.227777777777817,1.1333333333333258,1.19861111111112,1.0243337195828757,0.02124280987642772,1.0316040930586476,41.666666666666664,1.0714285714010205,0.9455388180764641,0.0,0.9991489322163337,0
333,402.2916666666667,1.1333333333333258,1.2527777777777374,1.19861111111112,0.9455388180764641,0.02064697965501782,1.0026690840485375,38.888888888888886,0.9999999999742858,1.0451911935109668,0.0,0.9993166269111979,0
334,403.5444444444444,1.2527777777777374,1.2361111111111427,1.19861111111112,1.0451911935109668,0.021514795966487525,1.0448124193296493,41.666666666666664,1.0714285714010205,1.0312862108922551,0.0,0.9970818778459433,0
335,404.78055555555557,1.2361111111111427,1.0638888888888687,1.19861111111112,1.0312862108922551,0.020466648599961366,0.9939117560121814,38.888888888888886,0.9999999999742858,0.8876013904982385,0.0,0.9984576998143041,0
336,405.84444444444443,1.0638888888888687,1.1916666666666629,1.19861111111112,0.8876013904982385,0.01884787281685321,0.915299946495793,36.111111111111114,0.9285714285475513,0.9942062572421679,0.0,0.9981223725269286,0
337,407.0361111111111,1.1916666666666629,1.2222222222222285,1.19861111111112,0.9942062572421679,0.021179810751187033,1.0285446976285957,38.888888888888886,0.9999999999742858,1.019698725376591,0.0,0.9951708776423654,0
338,408.2583333333333,1.2222222222222285,1.11388888888888,1.19861111111112,1.019698725376591,0.020885462900864002,1.0142504282290845,41.666666666666664,1.0714285714010205,0.9293163383545628,0.0,0.9986469739448977,0
339,409.3722222222222,1.11388888888888,1.0722222222222513,1.19861111111112,0.9293163383545628,0.025622055210417834,1.244271223129102,38.888888888888886,0.9999999999742858,0.8945538818076654,0.0,0.9945281824279419,0
340,410.44444444444446,1.0722222222222513,1.1083333333333485,1.19861111111112,0.8945538818076654,0.02000627992297554,0.971555099135938,41.666666666666664,1.0714285714010205,0.9246813441483256,0.0,0.9978770890145463,0
341,411.5527777777778,1.1083333333333485,0.9749999999999659,1.19861111111112,0.9246813441483256,0.02017599768122836,0.9797970188771029,38.888888888888886,0.9999999999742858,0.8134414831981115,0.0,0.9989023205725245,0
342,412.52777777777777,0.9749999999999659,0.9916666666666742,1.19861111111112,0.8134414831981115,0.023285561586170487,1.1308052362751855,38.888888888888886,0.9999999999742858,0.827346465816918,0.0,0.994960329064265,0
343,413.51944444444445,0.9916666666666742,1.0166666666666515,1.19861111111112,0.827346465816918,0.019554695603642137,0.9496250326854357,38.888888888888886,0.9999999999742858,0.8482039397450564,0.0,0.9997363916421202,0
344,414.5361111111111,1.0166666666666515,1.0083333333333258,1.19861111111112,0.8482039397450564,0.01945964496541631,0.9450091354471704,38.888888888888886,0.9999999999742858,0.8412514484356769,0.0,0.9950183839035713,0
345,415.5444444444444,1.0083333333333258,1.102777777777817,1.19861111111112,0.8412514484356769,0.02059498773025235,1.0001442258632947,38.888888888888886,0.9999999999742858,0.9200463499420884,0.0,0.9980594177287836,0
346,416.64722222222224,1.102777777777817,1.2916666666666288,1.19861111111112,0.9200463499420884,0.023177491177943245,1.1255570663713794,41.666666666666664,1.0714285714010205,1.0776361529547693,0.0,0.9938494070320822,0
347,417.93888888888887,1.2916666666666288,1.2555555555555884,1.19861111111112,1.0776361529547693,0.02050812809865984,0.9959261044380388,41.666666666666664,1.0714285714010205,1.0475086906141564,0.0,0.9971432656800552,0
348,419.19444444444446,1.2555555555555884,1.2694444444444457,1.19861111111112,1.0475086906141564,0.0202750823436676,0.9846088184425211,38.888888888888886,0.9999999999742858,1.059096176129773,0.0,0.9987856576458379,0
349,420.4638888888889,1.2694444444444457,1.3444444444444343,1.19861111111112,1.059096176129773,0.023642567685922444,1.1481423473209185,41.666666666666664,1.0714285714010205,1.121668597914236,0.0,0.9931053844319669,0
350,421.80833333333334,1.3444444444444343,1.2027777777777828,1.19861111111112,1.121668597914236,0.020307701228965733,0.9861928732723816,41.666666666666664,1.0714285714010205,1.0034762456546897,0.0,0.9984513061189109,0
351,423.0111111111111,1.2027777777777828,0.5194444444444457,1.19861111111112,1.0034762456546897,0.019883776248447702,0.9656060136433507,41.666666666666664,1.0714285714010205,0.43337195828505,0.0,0.9994865466157223,0
352,423.53055555555557,0.5194444444444457,0.7444444444444116,1.19861111111112,0.43337195828505,0.0386383615157626,1.8763756829067555,83.33333333333333,2.142857142802041,0.6210892236384384,1.0,0.8698104578863555,1
353,424.275,0.7444444444444116,1.113888888888937,1.19861111111112,0.6210892236384384,0.02069534638402533,1.0050178936411598,41.666666666666664,1.0714285714010205,0.9293163383546102,0.0,0.997749900067108,0
354,425.3888888888889,1.113888888888937,1.1527777777777715,1.19861111111112,0.9293163383546102,0.01913493944568078,0.9292406215289807,36.111111111111114,0.9285714285475513,0.9617612977983654,0.0,0.9948513467220763,0
355,426.5416666666667,1.1527777777777715,1.1388888888888573,1.19861111111112,0.9617612977983654,0.024082212643794582,1.1694926084526518,41.666666666666664,1.0714285714010205,0.9501738122827013,0.0,0.9934459884101493,0
356,427.68055555555554,1.1388888888888573,1.2027777777777828,1.19861111111112,0.9501738122827013,0.02284685177410492,1.1095003881677779,38.888888888888886,0.9999999999742858,1.0034762456546897,0.0,0.9942207936727898,0
357,428.8833333333333,1.2027777777777828,1.0944444444444343,1.19861111111112,1.0034762456546897,0.019440199866491967,0.9440648327039376,38.888888888888886,0.9999999999742858,0.9130938586326616,0.0,0.9954535058591636,0
358,429.97777777777776,1.0944444444444343,1.1166666666666742,1.19861111111112,0.9130938586326616,0.02240456912210723,1.0880220339978832,41.666666666666664,1.0714285714010205,0.9316338354577052,0.0,0.9960504964393714,0
359,431.09444444444443,1.1166666666666742,1.194444444444457,1.19861111111112,0.9316338354577052,0.019037932584072683,0.9245297251799655,36.111111111111114,0.9285714285475513,0.9965237543453103,0.0,0.9954095013367947,0
360,432.2888888888889,1.194444444444457,1.1444444444444457,1.19861111111112,0.9965237543453103,0.019988791883137038,0.970705836087315,41.666666666666664,1.0714285714010205,0.9548088064889859,0.0,0.998094190738471,0
361,433.43333333333334,1.1444444444444457,1.1305555555555316,1.19861111111112,0.9548088064889859,0.02018598650651486,0.9802821012701736,38.888888888888886,0.9999999999742858,0.9432213209733218,0.0,0.9990385986163615,0
362,434.56388888888887,1.1305555555555316,1.1888888888889255,1.19861111111112,0.9432213209733218,0.020331642277345477,0.9873555105903414,41.666666666666664,1.0714285714010205,0.9918887601390731,0.0,0.9972573142307336,0
363,435.7527777777778,1.1888888888889255,1.0083333333333258,1.19861111111112,0.9918887601390731,0.020251123018693213,0.9834452935673149,41.666666666666664,1.0714285714010205,0.8412514484356769,0.0,0.9974532932085465,0
364,436.7611111111111,1.0083333333333258,1.01111111111112,1.19861111111112,0.8412514484356769,0.017685012626715988,0.8588285409341552,36.111111111111114,0.9285714285475513,0.8435689455388192,0.0,0.9936873098107551,0
365,437.77222222222224,1.01111111111112,1.0166666666666515,1.19861111111112,0.8435689455388192,0.02245197422345844,1.0903241445411798,38.888888888888886,0.9999999999742858,0.8482039397450564,0.0,0.9946802768763295,0
366,438.7888888888889,1.0166666666666515,0.9833333333333485,1.19861111111112,0.8482039397450564,0.021987786682239458,1.067782034045727,38.888888888888886,0.9999999999742858,0.8203939745075385,0.0,0.9945655003435985,0
367,439.77222222222224,0.9833333333333485,1.0472222222222172,1.19861111111112,0.8203939745075385,0.019825366258221278,0.9627694781123353,36.111111111111114,0.9285714285475513,0.8736964078794794,0.0,0.9995256393693563,0
368,440.81944444444446,1.0472222222222172,1.22777777777776,1.19861111111112,0.8736964078794794,0.018511412509728962,0.8989605906384354,38.888888888888886,0.9999999999742858,1.0243337195828282,0.0,0.9940110701080158,0
369,442.0472222222222,1.22777777777776,1.2583333333333258,1.19861111111112,1.0243337195828282,0.02481915065712496,1.2052801655274679,44.44444444444444,1.1428571428277552,1.0498261877172512,0.0,0.9929697209411097,0
370,443.30555555555554,1.2583333333333258,1.1666666666666856,1.19861111111112,1.0498261877172512,0.019195327828736477,0.9321732327746605,38.888888888888886,0.9999999999742858,0.9733487833140295,0.0,0.9983393944335144,0
371,444.47222222222223,1.1666666666666856,1.2166666666666401,1.19861111111112,0.9733487833140295,0.020325232180870074,0.9870442202384815,36.111111111111114,0.9285714285475513,1.0150637311703063,0.0,0.9947802535809134,0
372,445.68888888888887,1.2166666666666401,1.161111111111154,1.19861111111112,1.0150637311703063,0.019705944416899046,0.956970054164879,38.888888888888886,0.9999999999742858,0.9687137891077923,0.0,0.999617654743903,0
373,446.85,1.161111111111154,1.1944444444444002,1.19861111111112,0.9687137891077923,0.026026727630175647,1.26392313015075,41.666666666666664,1.0714285714010205,0.9965237543452629,0.0,0.9939682736677573,0
374,448.0444444444444,1.1944444444444002,1.0333333333333599,1.19861111111112,0.9965237543452629,0.02438810995354142,1.1843477485506968,41.666666666666664,1.0714285714010205,0.8621089223638628,0.0,0.9925275439911614,0
375,449.0777777777778,1.0333333333333599,1.01111111111112,1.19861111111112,0.8621089223638628,0.019477666290873198,0.9458842961821115,36.111111111111114,0.9285714285475513,0.8435689455388192,0.0,0.993049326196024,0
376,450.0888888888889,1.01111111111112,1.0138888888888573,1.19861111111112,0.8435689455388192,0.021344776961542744,1.0365558702940427,38.888888888888886,0.9999999999742858,0.8458864426419141,0.0,0.9925217566858949,0
377,451.10277777777776,1.0138888888888573,0.955555555555577,1.19861111111112,0.8458864426419141,0.02059475845108017,1.0001330914920015,36.111111111111114,0.9285714285475513,0.7972190034762577,0.0,0.9963620484331378,0
378,452.05833333333334,0.955555555555577,0.9277777777777487,1.19861111111112,0.7972190034762577,0.018971443143562545,0.9213008312918951,36.111111111111114,0.9285714285475513,0.7740440324449295,0.0,0.9981337211450596,0
379,452.9861111111111,0.9277777777777487,0.9694444444444912,1.19861111111112,0.7740440324449295,0.0207358254220645,1.00698365718973,41.666666666666664,1.0714285714010205,0.8088064889919218,0.0,0.9952111806685601,0
380,453.9555555555556,0.9694444444444912,1.088888888888846,1.19861111111112,0.8088064889919218,0.022360494941317602,1.0858816813060654,41.666666666666664,1.0714285714010205,0.9084588644263769,0.0,0.9954679206503885,0
381,455.0444444444444,1.088888888888846,1.0527777777778056,1.19861111111112,0.9084588644263769,0.02182302284638163,1.059780689193152,38.888888888888886,0.9999999999742858,0.8783314020857641,0.0,0.9942209644252524,0
382,456.09722222222223,1.0527777777778056,1.0249999999999773,1.19861111111112,0.8783314020857641,0.018916316229692445,0.9186237301778286,36.111111111111114,0.9285714285475513,0.855156431054436,0.0,0.999417487255051,0
383,457.1222222222222,1.0249999999999773,1.1111111111111427,1.19861111111112,0.855156431054436,0.019740006234236992,0.9586241813913262,36.111111111111114,0.9285714285475513,0.9269988412514679,0.0,0.9993679148456969,0
384,458.23333333333335,1.1111111111111427,1.1888888888888687,1.19861111111112,0.9269988412514679,0.02294874293412933,1.1144484782904651,41.666666666666664,1.0714285714010205,0.9918887601390256,0.0,0.9966907286937154,0
385,459.4222222222222,1.1888888888888687,1.35277777777776,1.19861111111112,0.9918887601390256,0.02000404383300715,0.9714465090022758,38.888888888888886,0.9999999999742858,1.1286210892236155,0.0,0.999781558412641,0
386,460.775,1.35277777777776,1.2666666666667084,1.19861111111112,1.1286210892236155,0.020166641428694117,0.9793426558024362,38.888888888888886,0.9999999999742858,1.0567786790266782,0.0,0.9995552145069495,0
387,462.0416666666667,1.2666666666667084,1.3333333333333144,1.19861111111112,1.0567786790266782,0.020590216869862454,0.9999125409245198,38.888888888888886,0.9999999999742858,1.1123986095017142,0.0,0.9983751234440217,0
388,463.375,1.3333333333333144,1.2861111111110972,1.19861111111112,1.1123986095017142,0.020199983225676166,0.980961817035658,41.666666666666664,1.0714285714010205,1.073001158748532,0.0,0.9993620058286237,0
389,464.6611111111111,1.2861111111110972,1.227777777777817,1.19861111111112,1.073001158748532,0.020416561614926394,0.991479406475015,38.888888888888886,0.9999999999742858,1.0243337195828757,0.0,0.9995462285952705,0
390,465.8888888888889,1.227777777777817,1.3111111111110745,1.19861111111112,1.0243337195828757,0.020391663597552488,0.9902702963440398,41.666666666666664,1.0714285714010205,1.0938586326766706,0.0,0.9989635046493779,0
391,467.2,1.3111111111110745,1.2222222222222285,1.19861111111112,1.0938586326766706,0.02064382160901704,1.0025157214190443,38.888888888888886,0.9999999999742858,1.019698725376591,0.0,0.9978043181757772,0
392,468.4222222222222,1.2222222222222285,1.169444444444423,1.19861111111112,1.019698725376591,0.022053326022144777,1.0709647886669842,38.888888888888886,0.9999999999742858,0.9756662804171243,0.0,0.9973192325348501,0
393,469.59166666666664,1.169444444444423,1.238888888888937,1.19861111111112,0.9756662804171243,0.019808482178416232,0.961949544876773,38.888888888888886,0.9999999999742858,1.0336037079953975,0.0,0.9950080214522066,0
394,470.8305555555556,1.238888888888937,1.136111111111063,1.19861111111112,1.0336037079953975,0.019439849793860473,0.9440478322994893,38.888888888888886,0.9999999999742858,0.947856315179559,0.0,0.9993023872769533,0
395,471.96666666666664,1.136111111111063,1.0277777777778283,1.19861111111112,0.947856315179559,0.019865852818579666,0.9647356069635813,36.111111111111114,0.9285714285475513,0.8574739281576257,0.0,0.9992546390235116,0
396,472.99444444444447,1.0277777777778283,1.0138888888888573,1.19861111111112,0.8574739281576257,0.022717577627014648,1.103222511557256,38.888888888888886,0.9999999999742858,0.8458864426419141,0.0,0.9951943102691083,0
397,474.0083333333333,1.0138888888888573,0.955555555555577,1.19861111111112,0.8458864426419141,0.02060722880018969,1.0007386829018992,38.888888888888886,0.9999999999742858,0.7972190034762577,0.0,0.9992596990389604,0
398,474.9638888888889,0.955555555555577,0.9749999999999659,1.19861111111112,0.7972190034762577,0.01889149624880183,0.917418409694082,36.111111111111114,0.9285714285475513,0.8134414831981115,0.0,0.9986835750353842,0
399,475.93888888888887,0.9749999999999659,1.02222222222224,1.19861111111112,0.8134414831981115,0.021959405328861186,1.0664037643873396,38.888888888888886,0.9999999999742858,0.852838933951341,0.0,0.9975745885332751,0
400,476.9611111111111,1.02222222222224,1.1527777777777715,1.19861111111112,0.852838933951341,0.018618376535962926,0.9041550318594828,36.111111111111114,0.9285714285475513,0.9617612977983654,0.0,0.9986163600999829,0
401,478.1138888888889,1.1527777777777715,1.1527777777777715,1.19861111111112,0.9617612977983654,0.0200455060304226,0.9734600172344634,38.888888888888886,0.9999999999742858,0.9617612977983654,0.0,0.9994587228232951,0
402,479.26666666666665,1.1527777777777715,1.25,1.19861111111112,0.9617612977983654,0.023057883783446365,1.11974863149667,41.666666666666664,1.0714285714010205,1.0428736964078718,0.0,0.9963597537151268,0
403,480.51666666666665,1.25,1.25,1.19861111111112,1.0428736964078718,0.01935307165868964,0.9398336685447422,38.888888888888886,0.9999999999742858,1.0428736964078718,0.0,0.9997170672946221,0
404,481.76666666666665,1.25,1.161111111111154,1.19861111111112,1.0428736964078718,0.01968082629754245,0.9557502553299352,38.888888888888886,0.9999999999742858,0.9687137891077923,0.0,0.9987034257585576,0
405,482.9277777777778,1.161111111111154,1.1972222222221944,1.19861111111112,0.9687137891077923,0.01891513570017036,0.9185664007052191,38.888888888888886,0.9999999999742858,0.9988412514484052,0.0,0.9927071005764423,0
406,484.125,1.1972222222221944,1.14722222222224,1.19861111111112,0.9988412514484052,0.01969364502302888,0.9563727647699066,38.888888888888886,0.9999999999742858,0.9571263035921282,0.0,0.9931824214924222,0
407,485.27222222222224,1.14722222222224,1.044444444444423,1.19861111111112,0.9571263035921282,0.020954170694703497,1.0175870509151683,38.888888888888886,0.9999999999742858,0.8713789107763372,0.0,0.9978678320161418,0
408,486.31666666666666,1.044444444444423,1.0361111111110972,1.19861111111112,0.8713789107763372,0.02006761707904246,0.9745337851771582,38.888888888888886,0.9999999999742858,0.8644264194669578,0.0,0.9993305881342278,0
409,487.35277777777776,1.0361111111110972,0.9833333333333485,1.19861111111112,0.8644264194669578,0.02036436340927578,0.988944530772943,38.888888888888886,0.9999999999742858,0.8203939745075385,0.0,0.9978077863818752,0
410,488.3361111111111,0.9833333333333485,0.966666666666697,1.19861111111112,0.8203939745075385,0.023388962552468008,1.1358266463748496,38.888888888888886,0.9999999999742858,0.8064889918887794,0.0,0.99216883941604,0
411,489.3027777777778,0.966666666666697,0.9722222222221717,1.19861111111112,0.8064889918887794,0.021944987719717785,1.0657036091493568,36.111111111111114,0.9285714285475513,0.8111239860949693,0.0,0.996451630755677,0
412,490.275,0.9722222222221717,0.9500000000000455,1.19861111111112,0.8111239860949693,0.020070369914132875,0.9746674697491761,38.888888888888886,0.9999999999742858,0.7925840092700205,0.0,0.9993495874686856,0
413,491.225,0.9500000000000455,0.9638888888888459,1.19861111111112,0.7925840092700205,0.02127047214006179,1.032947441916646,38.888888888888886,0.9999999999742858,0.8041714947855898,0.0,0.9949571380163662,0
414,492.18888888888887,0.9638888888888459,1.0388888888888914,1.19861111111112,0.8041714947855898,0.019600846519881622,0.951866236856071,38.888888888888886,0.9999999999742858,0.8667439165701,0.0,0.9994108024142045,0
415,493.22777777777776,1.0388888888888914,1.3166666666666629,1.19861111111112,0.8667439165701,0.022168020605325123,1.0765346451101185,41.666666666666664,1.0714285714010205,1.098493626882955,0.0,0.9969371648158301,0
416,494.5444444444444,1.3166666666666629,1.3277777777777828,1.19861111111112,1.098493626882955,0.020391434126630092,0.9902591526608756,38.888888888888886,0.9999999999742858,1.1077636152954768,0.0,0.9994055247016873,0
417,495.8722222222222,1.3277777777777828,1.3944444444444457,1.19861111111112,1.1077636152954768,0.01951079008372648,0.9474928705884093,41.666666666666664,1.0714285714010205,1.1633835457705604,0.0,0.9995948383512672,0
418,497.26666666666665,1.3944444444444457,1.3111111111111313,1.19861111111112,1.1633835457705604,0.022858184745241365,1.110050745652446,41.666666666666664,1.0714285714010205,1.093858632676718,0.0,0.9966412538278508,0
419,498.5777777777778,1.3111111111111313,1.2222222222222285,1.19861111111112,1.093858632676718,0.020355839891513978,0.9885306073860897,36.111111111111114,0.9285714285475513,1.019698725376591,0.0,0.9977509157193989,0
420,499.8,1.2222222222222285,1.319444444444457,1.19861111111112,1.019698725376591,0.022708702622873736,1.1027915191108264,41.666666666666664,1.0714285714010205,1.1008111239860974,0.0,0.9948790267524853,0
421,501.11944444444447,1.319444444444457,1.397222222222183,1.19861111111112,1.1008111239860974,0.021623318368572248,1.0500825391881048,38.888888888888886,0.9999999999742858,1.1657010428736552,0.0,0.9981168941884371,0
422,502.51666666666665,1.397222222222183,1.1972222222222513,1.19861111111112,1.1657010428736552,0.024507652558215853,1.1901530370692313,41.666666666666664,1.0714285714010205,0.9988412514484526,0.0,0.9931106109735276,0
423,503.7138888888889,1.1972222222222513,1.3222222222221944,1.19861111111112,0.9988412514484526,0.024003250211938214,1.1656579948410464,41.666666666666664,1.0714285714010205,1.1031286210891924,0.0,0.9937972335136877,0
424,505.0361111111111,1.3222222222221944,1.3555555555555543,1.19861111111112,1.1031286210891924,0.020950001380159258,1.0173845785504432,41.666666666666664,1.0714285714010205,1.1309385863267576,0.0,0.9987595384696613,0
425,506.39166666666665,1.3555555555555543,1.1666666666666856,1.19861111111112,1.1309385863267576,0.021003251329409986,1.0199705295579495,38.888888888888886,0.9999999999742858,0.9733487833140295,0.0,0.9989449256979535,0
426,507.55833333333334,1.1666666666666856,1.25,1.19861111111112,0.9733487833140295,0.020731066948919095,1.0067525738065963,38.888888888888886,0.9999999999742858,1.0428736964078718,0.0,0.9984778622367592,0
427,508.80833333333334,1.25,1.27222222222224,1.19861111111112,1.0428736964078718,0.020012424240873367,0.9718534826138923,41.666666666666664,1.0714285714010205,1.0614136732329154,0.0,0.9928192256573174,0
428,510.0805555555556,1.27222222222224,1.1416666666666515,1.19861111111112,1.0614136732329154,0.020909006109331028,1.0153937454436903,38.888888888888886,0.9999999999742858,0.9524913093858436,0.0,0.9971937801608389,0
429,511.22222222222223,1.1416666666666515,1.1333333333333826,1.19861111111112,0.9524913093858436,0.01964967459169392,0.9542374504116572,38.888888888888886,0.9999999999742858,0.9455388180765115,0.0,0.999421826533982,0
430,512.3555555555556,1.1333333333333826,1.0388888888887777,1.19861111111112,0.9455388180765115,0.02253594304115287,1.0944018807976714,38.888888888888886,0.9999999999742858,0.8667439165700052,0.0,0.9969147715034073,0
431,513.3944444444444,1.0388888888887777,1.0388888888888914,1.19861111111112,0.8667439165700052,0.020562930816569354,0.9985874617836564,38.888888888888886,0.9999999999742858,0.8667439165701,0.0,0.9987486156274183,0
432,514.4333333333333,1.0388888888888914,1.02222222222224,1.19861111111112,0.8667439165701,0.0179992954381905,0.8740909020144967,36.111111111111114,0.9285714285475513,0.852838933951341,0.0,0.9927718036565443,0
433,515.4555555555555,1.02222222222224,1.0388888888888914,1.19861111111112,0.852838933951341,0.02333057036709306,1.13299097549205,41.666666666666664,1.0714285714010205,0.8667439165701,0.0,0.9962032672157328,0
434,516.4944444444444,1.0388888888888914,1.1444444444445026,1.19861111111112,0.8667439165701,0.019320310006942495,0.9382426806182711,38.888888888888886,0.9999999999742858,0.9548088064890333,0.0,0.9989700265510246,0
435,517.6388888888889,1.1444444444445026,1.3694444444444116,1.19861111111112,0.9548088064890333,0.02122202779879386,1.0305948632781212,38.888888888888886,0.9999999999742858,1.1425260718423744,0.0,0.9984761393692113,0
436,519.0083333333333,1.3694444444444116,1.338888888888846,1.19861111111112,1.1425260718423744,0.019556684841678555,0.9497216350705427,38.888888888888886,0.9999999999742858,1.1170336037079514,0.0,0.9990937312117341,0
437,520.3472222222222,1.338888888888846,1.344444444444548,1.19861111111112,1.1170336037079514,0.020158900338072504,0.9789667290386772,38.888888888888886,0.9999999999742858,1.1216685979143308,0.0,0.9994190301892938,0
438,521.6916666666667,1.344444444444548,1.2666666666666515,1.19861111111112,1.1216685979143308,0.023146612607647558,1.1240575256001664,41.666666666666664,1.0714285714010205,1.0567786790266307,0.0,0.9958166269900333,0
439,522.9583333333334,1.2666666666666515,1.247222222222149,1.19861111111112,1.0567786790266307,0.022425583618730517,1.0890425506270984,38.888888888888886,0.9999999999742858,1.0405561993046821,0.0,0.9937390768650872,0
440,524.2055555555555,1.247222222222149,1.308333333333394,1.19861111111112,1.0405561993046821,0.019364974913563395,0.9404117204371197,38.888888888888886,0.9999999999742858,1.091541135573623,0.0,0.9943349908887995,0
441,525.5138888888889,1.308333333333394,1.27222222222224,1.19861111111112,1.091541135573623,0.020983994889150974,1.0190353885523815,41.666666666666664,1.0714285714010205,1.0614136732329154,0.0,0.9970326738354383,0
442,526.7861111111112,1.27222222222224,1.1999999999999318,1.19861111111112,1.0614136732329154,0.0195289906206477,0.9483767342812548,38.888888888888886,0.9999999999742858,1.0011587485515,0.0,0.9929964735595702,0
443,527.9861111111111,1.1999999999999318,1.2888888888888914,1.19861111111112,1.0011587485515,0.02001689099337734,0.9720703993114753,38.888888888888886,0.9999999999742858,1.0753186558516743,0.0,0.9997246154797164,0
444,529.275,1.2888888888888914,1.1638888888888914,1.19861111111112,1.0753186558516743,0.0197098012679681,0.9571573525200543,38.888888888888886,0.9999999999742858,0.9710312862108872,0.0,0.9996359410594025,0
445,530.4388888888889,1.1638888888888914,1.1694444444444798,1.19861111111112,0.9710312862108872,0.019994319455035554,0.9709742688336587,38.888888888888886,0.9999999999742858,0.9756662804171717,0.0,0.9990206128283516,0
446,531.6083333333333,1.1694444444444798,1.2250000000000227,1.19861111111112,0.9756662804171717,0.02147774330370861,1.0430130491519845,38.888888888888886,0.9999999999742858,1.0220162224797333,0.0,0.9981521103288462,0
447,532.8333333333334,1.2250000000000227,1.1333333333333258,1.19861111111112,1.0220162224797333,0.02268937080456913,1.101852717558428,38.888888888888886,0.9999999999742858,0.9455388180764641,0.0,0.996514348878575,0
448,533.9666666666667,1.1333333333333258,1.1749999999999545,1.19861111111112,0.9455388180764641,0.018100247108062316,0.8789933681405261,36.111111111111114,0.9285714285475513,0.9803012746233616,0.0,0.9929912553751492,0
449,535.1416666666667,1.1749999999999545,1.22777777777776,1.19861111111112,0.9803012746233616,0.02157406646824513,1.0476907434575056,38.888888888888886,0.9999999999742858,1.0243337195828282,0.0,0.9958654319394182,0
450,536.3694444444444,1.22777777777776,1.127777777777851,1.19861111111112,1.0243337195828282,0.018109978896276836,0.8794659681691137,36.111111111111114,0.9285714285475513,0.9409038238702744,0.0,0.9923723626771288,0
451,537.4972222222223,1.127777777777851,1.0972222222221717,1.19861111111112,0.9409038238702744,0.022389677120003084,1.0872988410486528,41.666666666666664,1.0714285714010205,0.9154113557357564,0.0,0.9959943313584305,0
452,538.5944444444444,1.0972222222221717,1.0,1.19861111111112,0.9154113557357564,0.01960417025364302,0.9520276456985188,41.666666666666664,1.0714285714010205,0.8342989571262974,0.0,0.9995826059227344,0
453,539.5944444444444,1.0,0.9944444444444116,1.19861111111112,0.8342989571262974,0.022015137716559666,1.0691102688281426,38.888888888888886,0.9999999999742858,0.8296639629200129,0.0,0.9940375354198077,0
454,540.5888888888888,0.9944444444444116,1.0055555555555884,1.19861111111112,0.8296639629200129,0.019263099964015627,0.93546441753581,36.111111111111114,0.9285714285475513,0.8389339513325821,0.0,0.9990763773284932,0
455,541.5944444444444,1.0055555555555884,0.9611111111111086,1.19861111111112,0.8389339513325821,0.01946322958816785,0.9451832137129021,36.111111111111114,0.9285714285475513,0.8018539976824949,0.0,0.9989044221449062,0
456,542.5555555555555,0.9611111111111086,1.0111111111111768,1.19861111111112,0.8018539976824949,0.02015090781173125,0.9785785919261446,41.666666666666664,1.0714285714010205,0.8435689455388666,0.0,0.9985826259470537,0
457,543.5666666666667,1.0111111111111768,1.1166666666665606,1.19861111111112,0.8435689455388666,0.01998162796813419,0.9703579384183035,41.666666666666664,1.0714285714010205,0.9316338354576102,0.0,0.9991017003128444,0
458,544.6833333333333,1.1166666666665606,1.1694444444444798,1.19861111111112,0.9316338354576102,0.020242079717918193,0.9830061282144948,38.888888888888886,0.9999999999742858,0.9756662804171717,0.0,0.9994552094056917,0
459,545.8527777777778,1.1694444444444798,1.4638888888889596,1.19861111111112,0.9756662804171717,0.01881934968964498,0.9139147919448645,36.111111111111114,0.9285714285475513,1.2213209733488333,0.0,0.9988110152223773,0
460,547.3166666666667,1.4638888888889596,1.3277777777776691,1.19861111111112,1.2213209733488333,0.019050323377204886,0.9251314531521961,38.888888888888886,0.9999999999742858,1.107763615295382,0.0,0.9932673994313533,0
461,548.6444444444444,1.3277777777776691,1.2138888888889596,1.19861111111112,1.107763615295382,0.020736819519383717,1.0070319330472726,41.666666666666664,1.0714285714010205,1.012746234067259,0.0,0.9965181311548901,0
462,549.8583333333333,1.2138888888889596,1.0861111111111086,1.19861111111112,1.012746234067259,0.020133879429691286,0.9777516510123586,38.888888888888886,0.9999999999742858,0.9061413673232821,0.0,0.9990736424086448,0
463,550.9444444444445,1.0861111111111086,1.0416666666666288,1.19861111111112,0.9061413673232821,0.019492017721347746,0.9465812376180567,38.888888888888886,0.9999999999742858,0.8690614136731949,0.0,0.9982744197610705,0
464,551.9861111111111,1.0416666666666288,1.0194444444445026,1.19861111111112,0.8690614136731949,0.02241651676365048,1.0886022414181875,38.888888888888886,0.9999999999742858,0.8505214368482461,0.0,0.9957304191423973,0
465,553.0055555555556,1.0194444444445026,0.9750000000000227,1.19861111111112,0.8505214368482461,0.01966974719112859,0.955212226152512,38.888888888888886,0.9999999999742858,0.813441483198159,0.0,0.9992426868438615,0
466,553.9805555555556,0.9750000000000227,0.9527777777776691,1.19861111111112,0.813441483198159,0.020193488393484536,0.9806464117050265,38.888888888888886,0.9999999999742858,0.7949015063730205,0.0,0.997911138658336,0
467,554.9333333333333,0.9527777777776691,0.9194444444444798,1.19861111111112,0.7949015063730205,0.022542704528778438,1.0947302355845512,38.888888888888886,0.9999999999742858,0.7670915411355974,0.0,0.991468164804952,0
468,555.8527777777778,0.9194444444444798,0.9750000000000227,1.19861111111112,0.7670915411355974,0.024367770192634673,1.1833599987791132,36.111111111111114,0.9285714285475513,0.813441483198159,0.0,0.9958581301476945,0
469,556.8277777777778,0.9750000000000227,0.9527777777777828,1.19861111111112,0.813441483198159,0.020854315241075613,1.0127378197976287,41.666666666666664,1.0714285714010205,0.7949015063731154,0.0,0.9978670316330835,0
470,557.7805555555556,0.9527777777777828,0.941666666666606,1.19861111111112,0.7949015063731154,0.026032052388583134,1.264181713765614,38.888888888888886,0.9999999999742858,0.7856315179605462,0.0,0.9935665052883479,0
471,558.7222222222222,0.941666666666606,0.9861111111111995,1.19861111111112,0.7856315179605462,0.020822222038220824,1.0111792934248487,36.111111111111114,0.9285714285475513,0.8227114716107282,0.0,0.9978642608758699,0
472,559.7083333333334,0.9861111111111995,1.033333333333303,1.19861111111112,0.8227114716107282,0.020132796436481623,0.9776990581475568,38.888888888888886,0.9999999999742858,0.8621089223638154,0.0,0.9995006092332347,0
473,560.7416666666667,1.033333333333303,1.0583333333332803,1.19861111111112,0.8621089223638154,0.020580186903841637,0.9994254606342707,38.888888888888886,0.9999999999742858,0.8829663962919538,0.0,0.9988772221615996,0
474,561.8,1.0583333333332803,1.1000000000000227,1.19861111111112,0.8829663962919538,0.019930100857241145,0.9678556527597695,41.666666666666664,1.0714285714010205,0.9177288528389461,0.0,0.9991316637589448,0
475,562.9,1.1000000000000227,1.0500000000000682,1.19861111111112,0.9177288528389461,0.022688715185238552,1.1018208790404143,38.888888888888886,0.9999999999742858,0.8760139049826692,0.0,0.9956021045601305,0
476,563.95,1.0500000000000682,1.0805555555555202,1.19861111111112,0.8760139049826692,0.02023479659873066,0.9826524416914879,38.888888888888886,0.9999999999742858,0.9015063731169974,0.0,0.997656931234162,0
477,565.0305555555556,1.0805555555555202,1.1638888888888914,1.19861111111112,0.9015063731169974,0.01920337966528408,0.9325642501394755,38.888888888888886,0.9999999999742858,0.9710312862108872,0.0,0.995293973502422,0
478,566.1944444444445,1.1638888888888914,1.27222222222224,1.19861111111112,0.9710312862108872,0.019770732442144993,0.9601163230630944,38.888888888888886,0.9999999999742858,1.0614136732329154,0.0,0.9990221916223205,0
479,567.4666666666667,1.27222222222224,1.2972222222222172,1.19861111111112,1.0614136732329154,0.022661309939530767,1.100490011617136,38.888888888888886,0.9999999999742858,1.0822711471610538,0.0,0.9939893351021802,0
480,568.7638888888889,1.2972222222222172,1.3916666666666515,1.19861111111112,1.0822711471610538,0.02001250050154546,0.9718571860232778,38.888888888888886,0.9999999999742858,1.161066048667418,0.0,0.9953266705963392,0
481,570.1555555555556,1.3916666666666515,1.261111111111063,1.19861111111112,1.161066048667418,0.019557696146122017,0.9497707465491688,38.888888888888886,0.9999999999742858,1.0521436848203463,0.0,0.9988130593372304,0
482,571.4166666666666,1.261111111111063,1.2916666666667425,1.19861111111112,1.0521436848203463,0.023682687599261912,1.150090670873919,38.888888888888886,0.9999999999742858,1.0776361529548641,0.0,0.9949355901541879,0
483,572.7083333333334,1.2916666666667425,1.375,1.19861111111112,1.0776361529548641,0.02047796834740258,0.9944614713210637,41.666666666666664,1.0714285714010205,1.147161066048659,0.0,0.99896755891098,0
484,574.0833333333334,1.375,1.224999999999909,1.19861111111112,1.147161066048659,0.019798186454323387,0.9614495587084192,38.888888888888886,0.9999999999742858,1.0220162224796385,0.0,0.9988361230475583,0
485,575.3083333333333,1.224999999999909,1.1694444444444798,1.19861111111112,1.0220162224796385,0.024131021758229673,1.171862901390484,41.666666666666664,1.0714285714010205,0.9756662804171717,0.0,0.994639924462964,0
486,576.4777777777778,1.1694444444444798,1.2111111111111086,1.19861111111112,0.9756662804171717,0.019894004258417492,0.9661027114441624,38.888888888888886,0.9999999999742858,1.0104287369640692,0.0,0.9992518458574062,0
487,577.6888888888889,1.2111111111111086,1.058333333333394,1.19861111111112,1.0104287369640692,0.02073769443660991,1.0070744212207712,38.888888888888886,0.9999999999742858,0.8829663962920488,0.0,0.9992264040666563,0
488,578.7472222222223,1.058333333333394,1.0222222222221262,1.19861111111112,0.8829663962920488,0.019803725116162983,0.9617185300100989,36.111111111111114,0.9285714285475513,0.8528389339512462,0.0,0.9991021704519729,0
489,579.7694444444444,1.0222222222221262,1.0472222222223309,1.19861111111112,0.8528389339512462,0.019831233154651184,0.9630543893084458,38.888888888888886,0.9999999999742858,0.8736964078795744,0.0,0.9997314040165668,0
490,580.8166666666667,1.0472222222223309,1.0388888888888914,1.19861111111112,0.8736964078795744,0.021820195009412218,1.0596433623418968,38.888888888888886,0.9999999999742858,0.8667439165701,0.0,0.9978784589484647,0
491,581.8555555555556,1.0388888888888914,1.280555555555452,1.19861111111112,0.8667439165701,0.020573889044132758,0.9991196207811166,38.888888888888886,0.9999999999742858,1.0683661645422,0.0,0.9974453088234136,0
492,583.1361111111111,1.280555555555452,1.5111111111111768,1.19861111111112,1.0683661645422,0.019500392416124095,0.9469879337877092,38.888888888888886,0.9999999999742858,1.2607184241020153,0.0,0.9941636000424167,0
493,584.6472222222222,1.5111111111111768,1.4361111111111313,1.19861111111112,1.2607184241020153,0.019047008467410947,0.9249704728237255,38.888888888888886,0.9999999999742858,1.1981460023175052,0.0,0.9982196374224641,0
494,586.0833333333334,1.4361111111111313,1.441666666666606,1.19861111111112,1.1981460023175052,0.023448010752585704,1.1386941749778692,41.666666666666664,1.0714285714010205,1.2027809965236949,0.0,0.995766363833742,0
495,587.525,1.441666666666606,1.3138888888888687,1.19861111111112,1.2027809965236949,0.02126275235738806,1.0325725499202447,38.888888888888886,0.9999999999742858,1.096176129779813,0.0,0.99855321973811,0
496,588.8388888888888,1.3138888888888687,1.319444444444457,1.19861111111112,1.096176129779813,0.018725759595402576,0.9093698223833121,36.111111111111114,0.9285714285475513,1.1008111239860974,0.0,0.9932486627771971,0
497,590.1583333333333,1.319444444444457,1.3805555555555884,1.19861111111112,1.1008111239860974,0.02173830406129979,1.0556665326405221,38.888888888888886,0.9999999999742858,1.1517960602549435,0.0,0.997502810754631,0
498,591.5388888888889,1.3805555555555884,1.2333333333333485,1.19861111111112,1.1517960602549435,0.019610782638707153,0.9523487596912873,38.888888888888886,0.9999999999742858,1.0289687137891128,0.0,0.9995934088298908,0
499,592.7722222222222,1.2333333333333485,1.2666666666666515,1.19861111111112,1.0289687137891128,0.019456249136063357,0.9448442254620877,38.888888888888886,0.9999999999742858,1.0567786790266307,0.0,0.9993464874848148,0
500,594.0388888888889,1.2666666666666515,1.1916666666667197,1.19861111111112,1.0567786790266307,0.022679903143038825,1.1013929441836638,41.666666666666664,1.0714285714010205,0.9942062572422153,0.0,0.9961859703042611,0
501,595.2305555555556,1.1916666666667197,1.1638888888887777,1.19861111111112,0.9942062572422153,0.020442637231398338,0.9927457037698627,38.888888888888886,0.9999999999742858,0.9710312862107924,0.0,0.9993070181789212,0
502,596.3944444444444,1.1638888888887777,1.2555555555555884,1.19861111111112,0.9710312862107924,0.019684122481954724,0.9559103263069367,38.888888888888886,0.9999999999742858,1.0475086906141564,0.0,0.9989613621801318,0
503,597.65,1.2555555555555884,1.14722222222224,1.19861111111112,1.0475086906141564,0.021519306280027593,1.0450314514603316,38.888888888888886,0.9999999999742858,0.9571263035921282,0.0,0.9974901063250304,0
504,598.7972222222222,1.14722222222224,1.02222222222224,1.19861111111112,0.9571263035921282,0.020310224366616777,0.9863154031610032,38.888888888888886,0.9999999999742858,0.852838933951341,0.0,0.9988704852604235,0
505,599.8194444444445,1.02222222222224,1.0388888888888914,1.19861111111112,0.852838933951341,0.019276863806292652,0.9361328242160839,38.888888888888886,0.9999999999742858,0.8667439165701,0.0,0.9989440724077397,0
506,600.8583333333333,1.0388888888888914,1.0777777777777828,1.19861111111112,0.8667439165701,0.020994984728059413,1.019569082675991,38.888888888888886,0.9999999999742858,0.8991888760139025,0.0,0.9986518456601081,0
507,601.9361111111111,1.0777777777777828,1.2305555555554974,1.19861111111112,0.8991888760139025,0.023030551869999645,1.1184213252717978,41.666666666666664,1.0714285714010205,1.0266512166859232,0.0,0.9961431111948944,0
508,603.1666666666666,1.2305555555554974,1.4416666666667197,1.19861111111112,1.0266512166859232,0.0195175290249902,0.9478201304674448,38.888888888888886,0.9999999999742858,1.2027809965237897,0.0,0.9949051565878202,0
509,604.6083333333333,1.4416666666667197,1.305555555555543,1.19861111111112,1.2027809965237897,0.020312873879595537,0.9864440701523005,38.888888888888886,0.9999999999742858,1.0892236384704332,0.0,0.9996138987919523,0
510,605.9138888888889,1.305555555555543,1.3833333333333258,1.19861111111112,1.0892236384704332,0.019731867087920008,0.9582289240452667,38.888888888888886,0.9999999999742858,1.1541135573580386,0.0,0.9995831896218426,0
511,607.2972222222222,1.3833333333333258,1.2583333333333258,1.19861111111112,1.1541135573580386,0.019888525668468302,0.9658366573840521,41.666666666666664,1.0714285714010205,1.0498261877172512,0.0,0.9989600894409338,0
512,608.5555555555555,1.2583333333333258,1.22777777777776,1.19861111111112,1.0498261877172512,0.019369205281689,0.9406171577167877,36.111111111111114,0.9285714285475513,1.0243337195828282,0.0,0.9994210541393296,0
513,609.7833333333333,1.22777777777776,1.3250000000000455,1.19861111111112,1.0243337195828282,0.0229254611090081,1.113317854506293,41.666666666666664,1.0714285714010205,1.105446118192382,0.0,0.9957525937522207,0
514,611.1083333333333,1.3250000000000455,1.2555555555555884,1.19861111111112,1.105446118192382,0.021166927288338022,1.027919044380032,41.666666666666664,1.0714285714010205,1.0475086906141564,0.0,0.9990392969869066,0
515,612.3638888888889,1.2555555555555884,1.1166666666666742,1.19861111111112,1.0475086906141564,0.01879718770825691,0.9128385505792818,38.888888888888886,0.9999999999742858,0.9316338354577052,0.0,0.9944812465104987,0
516,613.4805555555556,1.1166666666666742,1.0833333333332575,1.19861111111112,0.9316338354577052,0.020570838369422542,0.9989714723706211,41.666666666666664,1.0714285714010205,0.9038238702200924,0.0,0.9995187193598956,0
517,614.5638888888889,1.0833333333332575,1.0083333333333258,1.19861111111112,0.9038238702200924,0.018702101674347642,0.9082209344379085,38.888888888888886,0.9999999999742858,0.8412514484356769,0.0,0.9901810665430969,0
518,615.5722222222222,1.0083333333333258,1.02222222222224,1.19861111111112,0.8412514484356769,0.026146778511694214,1.2697531018668402,41.666666666666664,1.0714285714010205,0.852838933951341,0.0,0.993846234555197,0
519,616.5944444444444,1.02222222222224,1.069444444444457,1.19861111111112,0.852838933951341,0.019911866346661474,0.9669701392209139,38.888888888888886,0.9999999999742858,0.892236384704523,0.0,0.9987694787246231,0
520,617.6638888888889,1.069444444444457,1.3916666666666515,1.19861111111112,0.892236384704523,0.01835637204497235,0.8914314370583285,36.111111111111114,0.9285714285475513,1.161066048667418,0.0,0.9986541695696867,0
521,619.0555555555555,1.3916666666666515,1.2749999999999773,1.19861111111112,1.161066048667418,0.020457967075539943,0.9934901594258905,41.666666666666664,1.0714285714010205,1.0637311703360102,0.0,0.9987749967905417,0
522,620.3305555555555,1.2749999999999773,1.341666666666697,1.19861111111112,1.0637311703360102,0.022237408781015294,1.0799043088442597,41.666666666666664,1.0714285714010205,1.119351100811141,0.0,0.9964121758560376,0
523,621.6722222222222,1.341666666666697,1.341666666666697,1.19861111111112,1.119351100811141,0.020876386938830805,1.0138096767637015,38.888888888888886,0.9999999999742858,1.119351100811141,0.0,0.9993215725511744,0
524,623.0138888888889,1.341666666666697,1.25,1.19861111111112,1.119351100811141,0.020148647717726557,0.9784688360963131,38.888888888888886,0.9999999999742858,1.0428736964078718,0.0,0.9995851555354693,0
525,624.2638888888889,1.25,1.2361111111110858,1.19861111111112,1.0428736964078718,0.02006008335268735,0.9741679285419426,38.888888888888886,0.9999999999742858,1.0312862108922076,0.0,0.9987180071917794,0
526,625.5,1.2361111111110858,1.161111111111154,1.19861111111112,1.0312862108922076,0.023679803171648243,1.149950595839133,41.666666666666664,1.0714285714010205,0.9687137891077923,0.0,0.9950727543934742,0
527,626.6611111111112,1.161111111111154,1.2583333333333258,1.19861111111112,0.9687137891077923,0.020231082139474447,0.9824720582396517,38.888888888888886,0.9999999999742858,1.0498261877172512,0.0,0.9976833953750901,0
528,627.9194444444445,1.2583333333333258,1.2805555555555657,1.19861111111112,1.0498261877172512,0.020166283997694507,0.9793252980571884,41.666666666666664,1.0714285714010205,1.0683661645422948,0.0,0.9996692879481404,0
529,629.2,1.2805555555555657,1.1888888888888687,1.19861111111112,1.0683661645422948,0.01980068816366538,0.9615710479846429,38.888888888888886,0.9999999999742858,0.9918887601390256,0.0,0.9994900091400047,0
530,630.3888888888889,1.1888888888888687,1.2694444444443889,1.19861111111112,0.9918887601390256,0.019691675119656953,0.9562771013245701,38.888888888888886,0.9999999999742858,1.0590961761297257,0.0,0.999454900427754,0
531,631.6583333333333,1.2694444444443889,1.252777777777851,1.19861111111112,1.0590961761297257,0.020327894762149124,0.9871735218591968,38.888888888888886,0.9999999999742858,1.0451911935110616,0.0,0.9997177335802657,0
532,632.9111111111112,1.252777777777851,1.1833333333332803,1.19861111111112,1.0451911935110616,0.01963167625161531,0.9533634059042986,36.111111111111114,0.9285714285475513,0.9872537659327411,0.0,0.9983060348637562,0
533,634.0944444444444,1.1833333333332803,1.2111111111111086,1.19861111111112,0.9872537659327411,0.019831547553784114,0.9630696573183876,41.666666666666664,1.0714285714010205,1.0104287369640692,0.0,0.9994822632596116,0
534,635.3055555555555,1.2111111111111086,1.1888888888888687,1.19861111111112,1.0104287369640692,0.01836977485024625,0.8920823108767852,38.888888888888886,0.9999999999742858,0.9918887601390256,0.0,0.99455387985248,0
535,636.4944444444444,1.1888888888888687,1.1638888888888914,1.19861111111112,0.9918887601390256,0.019433228390488142,0.9437262803550703,36.111111111111114,0.9285714285475513,0.9710312862108872,0.0,0.9990818524716092,0
536,637.6583333333333,1.1638888888888914,1.2555555555555884,1.19861111111112,0.9710312862108872,0.019462636438224983,0.9451544088649363,38.888888888888886,0.9999999999742858,1.0475086906141564,0.0,0.9984056954424957,0
537,638.9138888888889,1.2555555555555884,1.158333333333303,1.19861111111112,1.0475086906141564,0.01946003205487762,0.9450279334816577,38.888888888888886,0.9999999999742858,0.9663962920046025,0.0,0.9991583240072652,0
538,640.0722222222222,1.158333333333303,1.14722222222224,1.19861111111112,0.9663962920046025,0.01981497846719216,0.9622650209427888,38.888888888888886,0.9999999999742858,0.9571263035921282,0.0,0.9983561615352143,0
539,641.2194444444444,1.14722222222224,1.3166666666667197,1.19861111111112,0.9571263035921282,0.02119819554256234,1.0294375091795684,38.888888888888886,0.9999999999742858,1.0984936268830026,0.0,0.9979328335102807,0
540,642.5361111111112,1.3166666666667197,1.1333333333333258,1.19861111111112,1.0984936268830026,0.021440570581367818,1.0412078485810632,41.666666666666664,1.0714285714010205,0.9455388180764641,0.0,0.9959673728187197,0
541,643.6694444444445,1.1333333333333258,1.1888888888888687,1.19861111111112,0.9455388180764641,0.018642409486086264,0.9053221321564647,36.111111111111114,0.9285714285475513,0.9918887601390256,0.0,0.9985219816506359,0
542,644.8583333333333,1.1888888888888687,1.2916666666666288,1.19861111111112,0.9918887601390256,0.02068981659042644,1.0047493530034772,41.666666666666664,1.0714285714010205,1.0776361529547693,0.0,0.9995771037344723,0
543,646.15,1.2916666666666288,1.1527777777778283,1.19861111111112,1.0776361529547693,0.02249751314205023,1.0925356285720604,38.888888888888886,0.9999999999742858,0.9617612977984128,0.0,0.9957719601207065,0
544,647.3027777777778,1.1527777777778283,1.1888888888888687,1.19861111111112,0.9617612977984128,0.022997267134255872,1.1168049350753317,41.666666666666664,1.0714285714010205,0.9918887601390256,0.0,0.9958303230961025,0
545,648.4916666666667,1.1888888888888687,1.2472222222222626,1.19861111111112,0.9918887601390256,0.02068019292241239,1.0042820035628297,41.666666666666664,1.0714285714010205,1.040556199304777,0.0,0.9993031738852769,0
546,649.7388888888889,1.2472222222222626,1.1999999999999318,1.19861111111112,1.040556199304777,0.021158875776727752,1.0275280427949882,38.888888888888886,0.9999999999742858,1.0011587485515,0.0,0.9981453385415847,0
547,650.9388888888889,1.1999999999999318,1.1555555555555657,1.19861111111112,1.0011587485515,0.020305223961077343,0.9860725709344079,38.888888888888886,0.9999999999742858,0.9640787949015077,0.0,0.9990328331590508,0
548,652.0944444444444,1.1555555555555657,1.283333333333303,1.19861111111112,0.9640787949015077,0.020239873712479876,0.9828989990610205,38.888888888888886,0.9999999999742858,1.0706836616453899,0.0,0.9991038801521755,0
549,653.3777777777777,1.283333333333303,1.2138888888889596,1.19861111111112,1.0706836616453899,0.019731571583737225,0.9582145736214646,38.888888888888886,0.9999999999742858,1.012746234067259,0.0,0.9947735578187424,0
550,654.5916666666667,1.2138888888889596,1.1277777777777374,1.19861111111112,1.012746234067259,0.022450006857944932,1.090228604340609,38.888888888888886,0.9999999999742858,0.9409038238701795,0.0,0.9938843595346921,0
551,655.7194444444444,1.1277777777777374,1.2361111111110858,1.19861111111112,0.9409038238701795,0.02242923451047328,1.0892198470811485,41.666666666666664,1.0714285714010205,1.0312862108922076,0.0,0.996162663658871,0
552,656.9555555555555,1.2361111111110858,1.25,1.19861111111112,1.0312862108922076,0.022658583008830214,1.1003575850272196,38.888888888888886,0.9999999999742858,1.0428736964078718,0.0,0.9949767730787913,0
553,658.2055555555555,1.25,1.1194444444445253,1.19861111111112,1.0428736964078718,0.020515174106900888,0.9962682762591618,38.888888888888886,0.9999999999742858,0.9339513325608949,0.0,0.9990159848729274,0
554,659.325,1.1194444444445253,1.2666666666666515,1.19861111111112,0.9339513325608949,0.02262237663478325,1.0985993127516152,41.666666666666664,1.0714285714010205,1.0567786790266307,0.0,0.9963217694341961,0
555,660.5916666666667,1.2666666666666515,1.247222222222149,1.19861111111112,1.0567786790266307,0.019534358703052274,0.9486374218180096,38.888888888888886,0.9999999999742858,1.0405561993046821,0.0,0.9992283102697739,0
556,661.8388888888888,1.247222222222149,1.127777777777851,1.19861111111112,1.0405561993046821,0.020879916626338355,1.0139810872362889,38.888888888888886,0.9999999999742858,0.9409038238702744,0.0,0.9994622279361711,0
