beat_index,peak_time_s,rr_prev_s,rr_next_s,rr_baseline_s,prematurity_index,aa_ratio,morph_index,qrs_width_ms,width_index,pause_index,pvc_score,morphology_score,is_pvc_candidate
0,0.675,,1.2472222222222222,1.122222222222149,,0.03835605446826218,1.057541472908902,63.888888888888886,1.045454545437438,1.1113861386139339,0.0038105205167084932,0.9971990505201029,0
1,1.9222222222222223,1.2472222222222222,1.1833333333333333,1.122222222222149,1.1113861386139339,0.03595637452023169,0.9913782269251423,61.111111111111114,0.9999999999836364,1.0544554455446233,3.935496337994192e-15,0.998345267050876,0
2,3.1055555555555556,1.1833333333333333,1.2055555555555553,1.122222222222149,1.0544554455446233,0.037412811472293674,1.0315346637859009,61.111111111111114,0.9999999999836364,1.074257425742644,1.1221252876544852e-12,0.9984271762850616,0
3,4.311111111111111,1.2055555555555553,1.2111111111111112,1.122222222222149,1.074257425742644,0.03917724243363575,1.0801830178351361,66.66666666666667,1.0909090908912398,1.0792079207921499,1.1548155487428602e-10,0.997593445998552,0
4,5.522222222222222,1.2111111111111112,1.2638888888888893,1.122222222222149,1.0792079207921499,0.036549090353067665,1.0077204076724464,58.333333333333336,0.9545454545298347,1.12623762376245,4.507555285515434e-14,0.9986495508397519,0
5,6.786111111111111,1.2638888888888893,1.2277777777777779,1.2111111111111112,1.0435779816513764,0.03557643447531033,0.9809026355147776,58.333333333333336,0.9545454545298347,1.0137614678899083,9.024912648054732e-16,0.9975577627435395,0
6,8.01388888888889,1.2277777777777779,1.1722222222222225,1.2194444444444446,1.0068337129840546,0.03815948793298679,1.0521218001578443,61.111111111111114,0.9999999999836364,0.9612756264236904,4.5213778467750876e-13,0.9965962647924396,0
7,9.186111111111112,1.1722222222222225,1.2111111111111104,1.2111111111111112,0.9678899082568808,0.03655154681588523,1.0077881365184462,61.111111111111114,0.9999999999836364,0.9999999999999992,1.0122390122282998e-12,0.9995224802896663,0
8,10.397222222222222,1.2111111111111104,1.144444444444444,1.2111111111111108,0.9999999999999997,0.03660751987635504,1.0093314087249616,58.333333333333336,0.9545454545298347,0.9449541284403667,1.1944356331642422e-14,0.9984311941966564,0
9,11.541666666666666,1.144444444444444,1.2166666666666668,1.2111111111111104,0.9449541284403671,0.035045564729469715,0.9662656562758518,58.333333333333336,0.9545454545298347,1.0045871559633035,3.784639973376108e-13,0.9975007058912568,0
10,12.758333333333333,1.2166666666666668,1.1750000000000007,1.2111111111111108,1.004587155963303,0.03580471725998728,0.9871967790520586,58.333333333333336,0.9545454545298347,0.9701834862385329,9.450638818883032e-15,0.9971182221014842,0
11,13.933333333333334,1.1750000000000007,1.2249999999999996,1.2083333333333328,0.9724137931034493,0.03717701064881448,1.0250332351683755,63.888888888888886,1.045454545437438,1.0137931034482761,1.8637758003592353e-11,0.9983087153546069,0
12,15.158333333333333,1.2249999999999996,1.169444444444446,1.2111111111111108,1.0114678899082568,0.03691463834017775,1.017799185640268,58.333333333333336,0.9545454545298347,0.965596330275231,1.4319019128500483e-14,0.997753294768124,0
13,16.32777777777778,1.169444444444446,1.2444444444444436,1.2111111111111108,0.965596330275231,0.03725822715871638,1.0272725120881965,63.888888888888886,1.045454545437438,1.0275229357798161,3.415855445720872e-11,0.9988032796397033,0
14,17.572222222222223,1.2444444444444436,1.1944444444444429,1.2138888888888886,1.0251716247139584,0.038207339421228864,1.053441146843992,61.111111111111114,0.9999999999836364,0.9839816933638433,3.470636863837917e-13,0.9956552778701673,0
15,18.766666666666666,1.1944444444444429,1.2305555555555578,1.2027777777777766,0.993071593533487,0.034203245511671795,0.9430414868820324,55.55555555555556,0.9090909090760331,1.023094688221712,2.7121395695272514e-15,0.9965790872609306,0
16,19.997222222222224,1.2305555555555578,1.2055555555555557,1.2027777777777766,1.023094688221712,0.03678885531158408,1.014331134216054,61.111111111111114,0.9999999999836364,1.002309468822172,9.995719936440814e-14,0.9971126660497647,0
17,21.20277777777778,1.2055555555555557,1.2194444444444414,1.208333333333333,0.9977011494252878,0.03715569559826525,1.0244455430747685,61.111111111111114,0.9999999999836364,1.0091954022988483,8.555538547581898e-13,0.99694791111233,0
18,22.42222222222222,1.2194444444444414,1.1861111111111136,1.2111111111111112,1.0068807339449515,0.03649972268875245,1.0063592574405533,58.333333333333336,0.9545454545298347,0.9793577981651396,9.923471244765222e-15,0.9989491079000252,0
19,23.608333333333334,1.1861111111111136,1.2138888888888886,1.2111111111111112,0.9793577981651396,0.036028090321698764,0.9933555532003745,58.333333333333336,0.9545454545298347,1.002293577981651,9.117869220059971e-14,0.9977831109187503,0
20,24.822222222222223,1.2138888888888886,1.1638888888888879,1.2097222222222221,1.0034443168771525,0.03756293136342171,1.0356737237850941,63.888888888888886,1.045454545437438,0.9621125143513195,1.5989520905229648e-12,0.9976248022379238,0
21,25.98611111111111,1.1638888888888879,1.2166666666666686,1.2097222222222221,0.9621125143513195,0.03544081668414679,0.9771634230069213,55.55555555555556,0.9090909090760331,1.0057405281285894,3.0666475489635886e-14,0.9977713619986819,0
22,27.20277777777778,1.2166666666666686,1.18611111111111,1.2097222222222221,1.0057405281285894,0.033788022958287034,0.9315930968747947,58.333333333333336,0.9545454545298347,0.9804822043628005,1.2045289201153718e-15,0.9970519597162483,0
23,28.38888888888889,1.18611111111111,1.2222222222222214,1.2097222222222221,0.9804822043628005,0.03674895538342758,1.0132310255271766,55.55555555555556,0.9090909090760331,1.0103329506314576,6.021660221237207e-14,0.9969132530696108,0
24,29.61111111111111,1.2222222222222214,1.1833333333333336,1.2097222222222221,1.0103329506314576,0.035692218070763324,0.984094985608434,58.333333333333336,0.9545454545298347,0.9781859931113666,4.616216060121005e-15,0.9980979545106512,0
25,30.794444444444444,1.1833333333333336,1.1972222222222229,1.2097222222222221,0.9781859931113666,0.03614885729492779,0.9966853034710405,58.333333333333336,0.9545454545298347,0.9896670493685424,1.1344125237702091e-13,0.9973918510243377,0
26,31.991666666666667,1.1972222222222229,1.2055555555555557,1.2013888888888893,0.9965317919075146,0.037786708156395205,1.0418436294890252,63.888888888888886,1.045454545437438,1.0034682080924853,1.0063986970176853e-11,0.9973893478425195,0
27,33.19722222222222,1.2055555555555557,1.2083333333333357,1.2013888888888893,1.0034682080924853,0.036824404874591384,1.0153112959596222,58.333333333333336,0.9545454545298347,1.0057803468208109,8.627209461143509e-14,0.996908680377026,0
28,34.40555555555556,1.2083333333333357,1.18055555555555,1.2013888888888893,1.0057803468208109,0.0347405031983989,0.9578545924850382,55.55555555555556,0.9090909090760331,0.9826589595375673,3.761196068630129e-16,0.99912304637266,0
29,35.58611111111111,1.18055555555555,1.1805555555555571,1.2013888888888893,0.9826589595375673,0.03654184874670967,1.0075207443035148,58.333333333333336,0.9545454545298347,0.9826589595375732,1.220992707981483e-13,0.99789881837839,0
30,36.766666666666666,1.1805555555555571,1.2083333333333357,1.1916666666666664,0.9906759906759922,0.03439428086360037,0.9483086555274254,55.55555555555556,0.9090909090760331,1.0139860139860162,3.3861196622509988e-15,0.9974186289239937,0
31,37.975,1.2083333333333357,1.1916666666666629,1.2013888888888893,1.0057803468208109,0.034037731285888335,0.938477978967858,55.55555555555556,0.9090909090760331,0.9919075144508636,3.397827933983099e-16,0.9977211117396422,0
32,39.166666666666664,1.1916666666666629,1.18611111111111,1.1944444444444429,0.9976744186046493,0.0336456391006724,0.9276673324397476,52.77777777777778,0.8636363636222314,0.9930232558139539,2.1303982413255044e-16,0.9949956653379335,0
33,40.352777777777774,1.18611111111111,1.2611111111111128,1.1944444444444429,0.9930232558139539,0.03771314557304369,1.0398153843051283,61.111111111111114,0.9999999999836364,1.055813953488375,8.765333944782405e-12,0.9972224830722072,0
34,41.61388888888889,1.2611111111111128,1.2166666666666686,1.1944444444444429,1.055813953488375,0.03453124323699594,0.9520849404478073,58.333333333333336,0.9545454545298347,1.0186046511627935,1.801752634164388e-16,0.9985064906607221,0
35,42.830555555555556,1.2166666666666686,1.2388888888888872,1.2013888888888893,1.0127167630057816,0.034091866521090225,0.9399705792148164,55.55555555555556,0.9090909090760331,1.031213872832368,7.428732527908798e-16,0.9966921879036229,0
36,44.06944444444444,1.2388888888888872,1.25277777777778,1.2069444444444457,1.026467203682391,0.03443994549325864,0.9495677068135426,52.77777777777778,0.8636363636222314,1.0379746835443044,7.44089592103137e-17,0.996497724412079,0
37,45.32222222222222,1.25277777777778,1.25277777777778,1.2083333333333357,1.036781609195402,0.037763860084908105,1.0412136694081835,61.111111111111114,0.9999999999836364,1.036781609195402,1.1210999441074385e-13,0.998536930287978,0
38,46.575,1.25277777777778,1.2027777777777757,1.2125000000000021,1.0332187857961055,0.034931315225678716,0.9631156036911102,55.55555555555556,0.9090909090760331,0.9919816723940401,1.405611868345803e-16,0.9966163846852885,0
39,47.77777777777778,1.2027777777777757,1.25,1.2125000000000021,0.9919816723940401,0.03499595945875588,0.9648979548325722,58.333333333333336,0.9545454545298347,1.0309278350515445,2.1929389931014086e-14,0.9977223378955642,0
40,49.02777777777778,1.25,1.2194444444444414,1.2277777777777779,1.0180995475113122,0.039280614575677664,1.083033163108634,66.66666666666667,1.0909090908912398,0.9932126696832554,2.661971337802882e-11,0.9971752362227273,0
41,50.24722222222222,1.2194444444444414,1.2472222222222271,1.2291666666666643,0.9920903954802255,0.03621359635320099,0.9984702691039792,58.333333333333336,0.9545454545298347,1.014689265536729,2.3482282538269707e-14,0.9986468046059649,0
42,51.49444444444445,1.2472222222222271,1.2361111111111072,1.2430555555555571,1.0033519553072652,0.03639260991058218,1.0034059764849408,58.333333333333336,0.9545454545298347,0.9944134078212246,5.9511509964220964e-15,0.9984451271319577,0
43,52.730555555555554,1.2361111111111072,1.2000000000000028,1.2430555555555571,0.9944134078212246,0.03837206529946062,1.0579829186791418,61.111111111111114,0.9999999999836364,0.9653631284916212,5.492730294036352e-13,0.9970776582947873,0
44,53.93055555555556,1.2000000000000028,1.2583333333333329,1.2374999999999972,0.9696969696969743,0.037301298489873916,1.028460061736458,61.111111111111114,0.9999999999836364,1.0168350168350189,2.47171575741556e-12,0.9976680401199931,0
45,55.18888888888889,1.2583333333333329,1.24722222222222,1.2430555555555571,1.0122905027932945,0.037867033826296616,1.044058344439183,63.888888888888886,1.045454545437438,1.0033519553072596,1.1732819577003895e-12,0.9966518451797128,0
46,56.43611111111111,1.24722222222222,1.2638888888888928,1.2472222222222236,0.9999999999999971,0.03783615405035465,1.043206936644886,61.111111111111114,0.9999999999836364,1.0133630289532314,6.00954670141457e-13,0.9962436570363329,0
47,57.7,1.2638888888888928,1.24722222222222,1.2472222222222236,1.0133630289532314,0.03441000210669521,0.9487421168625122,55.55555555555556,0.9090909090760331,0.9999999999999971,7.707584244474386e-17,0.9976974358536389,0
48,58.94722222222222,1.24722222222222,1.1916666666666629,1.24722222222222,1.0,0.036470210165915215,1.0055455471331918,61.111111111111114,0.9999999999836364,0.9554565701559007,2.6671154908643017e-14,0.9977589352940051,0
49,60.138888888888886,1.1916666666666629,1.2305555555555614,1.24722222222222,0.9554565701559007,0.03644396152560748,1.004821827602658,61.111111111111114,0.9999999999836364,0.9866369710467771,9.114291352890769e-13,0.9980945023435561,0
50,61.36944444444445,1.2305555555555614,1.2194444444444414,1.2416666666666636,0.9910514541387097,0.03584756146991876,0.9883780665829239,58.333333333333336,0.9545454545298347,0.982102908277405,9.317368349027935e-15,0.9976011501922752,0
51,62.58888888888889,1.2194444444444414,1.2638888888888857,1.2416666666666636,0.982102908277405,0.03493079455048087,0.9631012477928492,58.333333333333336,0.9545454545298347,1.0178970917225951,1.2954576105415894e-14,0.9975324806528125,0
52,63.852777777777774,1.2638888888888857,1.2083333333333428,1.2416666666666636,1.0178970917225951,0.03740424928279912,1.0312985897002074,58.333333333333336,0.9545454545298347,0.9731543624161174,1.2401986210187291e-14,0.9959944850047143,0
53,65.06111111111112,1.2083333333333428,1.3222222222222229,1.2388888888888907,0.9753363228699614,0.03816868563276751,1.0523753963399418,61.111111111111114,0.9999999999836364,1.0672645739910303,1.238569403289036e-11,0.9977587312494993,0
54,66.38333333333334,1.3222222222222229,1.2888888888888772,1.24722222222222,1.0601336302895348,0.03595457347599281,0.9913285690809359,61.111111111111114,0.9999999999836364,1.033407572383066,5.828966811418019e-16,0.9992168634547638,0
55,67.67222222222222,1.2888888888888772,1.25833333333334,1.24722222222222,1.033407572383066,0.03887503738865351,1.0718507122103365,63.888888888888886,1.045454545437438,1.0089086859688268,4.83222457273863e-13,0.9978190431651748,0
56,68.93055555555556,1.25833333333334,1.2138888888888886,1.25277777777778,1.004434589800447,0.03509446558302281,0.9676139357433302,58.333333333333336,0.9545454545298347,0.9689578713968938,8.996863152006406e-16,0.9975486688519062,0
57,70.14444444444445,1.2138888888888886,1.2111111111111086,1.2388888888888907,0.9798206278026889,0.036515178955901346,1.0067854129394156,61.111111111111114,0.9999999999836364,0.9775784753363194,1.2467808632298655e-13,0.9993347471887893,0
58,71.35555555555555,1.2111111111111086,1.1666666666666714,1.2250000000000014,0.9886621315192712,0.037485007737872014,1.0335252372715396,61.111111111111114,0.9999999999836364,0.9523809523809551,4.869260376849649e-13,0.9969127358870051,0
59,72.52222222222223,1.1666666666666714,1.1972222222222229,1.2250000000000014,0.9523809523809551,0.0337931879309228,0.9317355039300689,58.333333333333336,0.9545454545298347,0.9773242630385481,1.8255643714380418e-14,0.9982429974418046,0
60,73.71944444444445,1.1972222222222229,1.1472222222222115,1.216666666666665,0.9840182648401845,0.03516930789830535,0.9696774653069694,55.55555555555556,0.9090909090760331,0.9429223744292162,1.6736886111382672e-15,0.9973877410021332,0
61,74.86666666666666,1.1472222222222115,1.2305555555555685,1.2124999999999986,0.946162657502856,0.037078703491643245,1.0223227401178905,61.111111111111114,0.9999999999836364,1.0148911798396454,1.458367281104156e-11,0.9986204330970487,0
62,76.09722222222223,1.2305555555555685,1.2694444444444315,1.2124999999999986,1.0148911798396454,0.03703808577224987,1.0212028407072509,61.111111111111114,0.9999999999836364,1.0469644902634498,2.7124889790883233e-13,0.9983020354169639,0
63,77.36666666666666,1.2694444444444315,1.1805555555555571,1.2222222222222285,1.0386363636363476,0.036887032775604414,1.017038053406411,58.333333333333336,0.9545454545298347,0.9659090909090872,1.3575675507726081e-15,0.9979352593080045,0
64,78.54722222222222,1.1805555555555571,1.2444444444444542,1.2124999999999986,0.973654066437574,0.037381254463866906,1.030664583543423,61.111111111111114,0.9999999999836364,1.0263459335624376,6.201141596745563e-12,0.9974307377713247,0
65,79.79166666666667,1.2444444444444542,1.1472222222222115,1.2124999999999986,1.0263459335624376,0.03633479366721396,1.0018118845999093,61.111111111111114,0.9999999999836364,0.946162657502856,9.426731313946779e-15,0.9979357564106133,0
66,80.93888888888888,1.1472222222222115,1.2111111111111228,1.2041666666666657,0.952710495963083,0.03750577221558822,1.034097749138378,61.111111111111114,0.9999999999836364,1.0057670126874385,2.433271292789918e-11,0.9975443758748168,0
67,82.15,1.2111111111111228,1.24166666666666,1.2041666666666657,1.0057670126874385,0.03739840881691846,1.0311375581505464,61.111111111111114,0.9999999999836364,1.031141868512106,7.202535009381839e-13,0.9982901612901844,0
68,83.39166666666667,1.24166666666666,1.1916666666666629,1.2041666666666728,1.0311418685120999,0.03683778263603378,1.0156801435310459,61.111111111111114,0.9999999999836364,0.9896193771626216,3.0133505418564535e-14,0.9982130191149029,0
69,84.58333333333333,1.1916666666666629,1.2138888888888886,1.2041666666666728,0.9896193771626216,0.03803308152617476,1.048636561138911,63.888888888888886,1.045454545437438,1.0080738177623936,2.7681442207883045e-11,0.9966868796632061,0
70,85.79722222222222,1.2138888888888886,1.1972222222222229,1.2125000000000057,1.0011454753722746,0.03384877617785747,0.9332681661747834,55.55555555555556,0.9090909090760331,0.9873997709049215,4.55982346522901e-16,0.9960507049522747,0
71,86.99444444444444,1.1972222222222229,1.2111111111111086,1.2125000000000057,0.9873997709049215,0.03714037282042907,1.0240230681026532,58.333333333333336,0.9545454545298347,0.9988545246277137,1.4591699701825556e-13,0.9980519222184745,0
72,88.20555555555555,1.2111111111111086,1.2277777777777885,1.2111111111111157,0.9999999999999941,0.037286246036842156,1.028045040077667,63.888888888888886,1.045454545437438,1.0137614678899134,3.3507949019628835e-12,0.9978644867052966,0
73,89.43333333333334,1.2277777777777885,1.2361111111111143,1.2111111111111157,1.0137614678899134,0.034326420677644076,0.946437635110884,58.333333333333336,0.9545454545298347,1.020642201834861,2.484833831208587e-15,0.9971241316492296,0
74,90.66944444444445,1.2361111111111143,1.23333333333332,1.2125000000000057,1.0194730813287494,0.03764730799623725,1.0380001306531592,61.111111111111114,0.9999999999836364,1.0171821305841768,1.9829027742696015e-13,0.9983113262722039,0
75,91.90277777777777,1.23333333333332,1.1972222222222229,1.2125000000000057,1.0171821305841768,0.03716106707112045,1.0245936436913132,63.888888888888886,1.045454545437438,0.9873997709049215,4.472803692093935e-13,0.9982391711376881,0
76,93.1,1.1972222222222229,1.2222222222222285,1.2125000000000057,0.9873997709049215,0.036584040739486755,1.0086840491012843,61.111111111111114,0.9999999999836364,1.0080183276059569,4.0382679296867285e-13,0.9987450731739178,0
77,94.32222222222222,1.2222222222222285,1.2222222222222285,1.2180555555555586,1.0034207525655672,0.03603819329553974,0.9936341093236428,61.111111111111114,0.9999999999836364,1.0034207525655672,8.303275601806437e-14,0.9976941570503015,0
78,95.54444444444445,1.2222222222222285,1.23888888888888,1.2180555555555586,1.0034207525655672,0.03801851852352687,1.0482350344573028,63.888888888888886,1.045454545437438,1.0171037628278123,5.0208314068822535e-12,0.997853883162459,0
79,96.78333333333333,1.23888888888888,1.1749999999999972,1.2222222222222285,1.0136363636363512,0.037144437575254624,1.024135140286949,58.333333333333336,0.9545454545298347,0.9613636363636291,9.482308533747923e-15,0.9979207878779256,0
80,97.95833333333333,1.1749999999999972,1.1777777777777771,1.2222222222222285,0.9613636363636291,0.035436918880762856,0.9770559539570177,58.333333333333336,0.9545454545298347,0.9636363636363582,5.66650201695891e-14,0.9980346408296947,0
81,99.1361111111111,1.1777777777777771,1.2166666666666686,1.2222222222222285,0.9636363636363582,0.03399298693279158,0.9372443012673154,55.55555555555556,0.9090909090760331,0.9954545454545418,3.570947333539571e-15,0.9974762615226054,0
82,100.35277777777777,1.2166666666666686,1.2722222222222257,1.2222222222222285,0.9954545454545418,0.03400810740877693,0.9376611984343026,55.55555555555556,0.9090909090760331,1.0409090909090883,1.5810117717638588e-15,0.9963423910802185,0
83,101.625,1.2722222222222257,1.24166666666666,1.2222222222222285,1.0409090909090883,0.03555957934175942,0.9804379108967579,58.333333333333336,0.9545454545298347,1.0159090909090802,6.102672273433445e-16,0.9981296979846024,0
84,102.86666666666666,1.24166666666666,1.2444444444444542,1.2222222222222285,1.0159090909090802,0.0377908448728779,1.0419576857782542,63.888888888888886,1.045454545437438,1.018181818181821,2.3337234922315986e-12,0.9966508426714378,0
85,104.11111111111111,1.2444444444444542,1.2611111111111057,1.2222222222222285,1.018181818181821,0.03697274826045385,1.0194013746957211,61.111111111111114,0.9999999999836364,1.0318181818181722,7.79711242944979e-14,0.9990521602779495,0
86,105.37222222222222,1.2611111111111057,1.2111111111111086,1.2305555555555543,1.024830699774263,0.03700600660850531,1.0203183637570947,58.333333333333336,0.9545454545298347,0.984198645598193,3.2025157418129726e-15,0.9985875576208256,0
87,106.58333333333333,1.2111111111111086,1.2666666666666657,1.2305555555555543,0.984198645598193,0.0392025048451699,1.0808795453657547,63.888888888888886,1.045454545437438,1.0293453724604968,1.5330074709662966e-10,0.9954932106907184,0
88,107.85,1.2666666666666657,1.2472222222222342,1.24027777777777,1.0212765957446865,0.03654788456065479,1.00768716193062,61.111111111111114,0.9999999999836364,1.005599104143353,1.2098252900796108e-14,0.9990797540639395,0
89,109.09722222222223,1.2472222222222342,1.2249999999999943,1.2430555555555571,1.003351955307271,0.0341383650217648,0.9412526217390843,58.333333333333336,0.9545454545298347,0.9854748603351897,6.334842945484665e-16,0.997452719458974,0
90,110.32222222222222,1.2249999999999943,1.2666666666666657,1.2430555555555571,0.9854748603351897,0.03598348671323006,0.9921257560679276,61.111111111111114,0.9999999999836364,1.0189944134078193,2.752068863597079e-13,0.9964323677295301,0
91,111.58888888888889,1.2666666666666657,1.2888888888888914,1.2458333333333442,1.0167224080267463,0.036883714375636374,1.016946559491342,61.111111111111114,0.9999999999836364,1.0345596432552884,5.4040444536808396e-14,0.9980973679990499,0
92,112.87777777777778,1.2888888888888914,1.25555555555556,1.25416666666667,1.0276854928017711,0.037435953282134796,1.0321727227313382,61.111111111111114,0.9999999999836364,1.0011074197120717,1.401001388604559e-14,0.9984946627299465,0
93,114.13333333333334,1.25555555555556,1.1888888888888829,1.251388888888897,1.0033296337402855,0.03745037510991934,1.0325703569825337,61.111111111111114,0.9999999999836364,0.9500554938956605,1.7755649652385214e-13,0.9943415372962645,0
94,115.32222222222222,1.1888888888888829,1.2305555555555543,1.251388888888897,0.9500554938956605,0.03761439494653645,1.037092662052933,63.888888888888886,1.045454545437438,0.9833518312985498,2.6653956819444602e-11,0.997697293369883,0
95,116.55277777777778,1.2305555555555543,1.1666666666666714,1.251388888888897,0.9833518312985498,0.03747144650093316,1.0331513309695073,61.111111111111114,0.9999999999836364,0.9322974472807968,1.2647974573058718e-13,0.9981518490474813,0
96,117.71944444444445,1.1666666666666714,1.2305555555555543,1.2388888888888943,0.9417040358744392,0.03876617309596085,1.0688491390288029,61.111111111111114,0.9999999999836364,0.9932735426008915,7.545953445431408e-11,0.9967276068885997,0
97,118.95,1.2305555555555543,1.1805555555555571,1.2388888888888943,0.9932735426008915,0.03732517635698357,1.0291184150291295,61.111111111111114,0.9999999999836364,0.9529147982062752,8.795687702484178e-14,0.9988880415163488,0
98,120.13055555555556,1.1805555555555571,1.1999999999999886,1.2305555555555543,0.95936794582393,0.035605241080323806,0.9816968824705135,55.55555555555556,0.9090909090760331,0.9751693002257253,1.403071367721059e-14,0.9977548797778006,0
99,121.33055555555555,1.1999999999999886,1.1972222222222229,1.2277777777777743,0.9773755656108533,0.036754946509862114,1.0133962110438257,61.111111111111114,0.9999999999836364,0.975113122171949,3.2794337449619515e-13,0.9987467382364292,0
100,122.52777777777777,1.1972222222222229,1.2388888888888943,1.2152777777777715,0.9851428571428628,0.03316636825835126,0.9144530224817204,55.55555555555556,0.9090909090760331,1.0194285714285811,7.803114208452503e-16,0.9971344627150974,0
101,123.76666666666667,1.2388888888888943,1.1666666666666714,1.2152777777777715,1.0194285714285811,0.035610651444675887,0.9818460553915866,58.333333333333336,0.9545454545298347,0.9600000000000088,2.200920245750207e-15,0.9968496590051302,0
102,124.93333333333334,1.1666666666666714,1.24166666666666,1.1986111111111057,0.9733487833140292,0.03590067294165739,0.9898424399349148,61.111111111111114,0.9999999999836364,1.0359212050984927,1.830475441361168e-12,0.9981253097702182,0
103,126.175,1.24166666666666,1.2194444444444485,1.1986111111111057,1.0359212050984927,0.0344709191009155,0.9504217017073563,55.55555555555556,0.9090909090760331,1.0173812282734727,9.995837795781468e-17,0.9983695905211236,0
104,127.39444444444445,1.2194444444444485,1.2111111111111086,1.2097222222222186,1.0080367393800294,0.03549059482810496,0.9785358908587374,55.55555555555556,0.9090909090760331,1.0011481056257185,1.01482202141326e-15,0.998320710044507,0
105,128.60555555555555,1.2111111111111086,1.2416666666666742,1.2055555555555486,1.0046082949308792,0.03460831467634582,0.9542099307425397,55.55555555555556,0.9090909090760331,1.0299539170507035,9.12871759453193e-16,0.9986699461945088,0
106,129.84722222222223,1.2416666666666742,1.1777777777777771,1.2152777777777786,1.0217142857142913,0.036464299080591504,1.0053825684857163,58.333333333333336,0.9545454545298347,0.969142857142856,4.427110872448799e-15,0.9974298481770555,0
107,131.025,1.1777777777777771,1.2194444444444343,1.2055555555555486,0.9769585253456272,0.03619867659133739,0.9980589059657362,58.333333333333336,0.9545454545298347,1.0115207373271864,2.2991810820667535e-13,0.9972555688461637,0
108,132.24444444444444,1.2194444444444343,1.2472222222222342,1.2152777777777715,1.0034285714285682,0.03571411313439508,0.9846986696464186,58.333333333333336,0.9545454545298347,1.0262857142857296,1.2639358723325837e-14,0.9986211694769939,0
109,133.49166666666667,1.2472222222222342,1.2083333333333144,1.2194444444444414,1.0227790432801946,0.034942873396060864,0.9634342820510072,55.55555555555556,0.9090909090760331,0.990888382687914,2.874232400055485e-16,0.9959581862048703,0
110,134.7,1.2083333333333144,1.2111111111111086,1.2194444444444414,0.990888382687914,0.036682191713958215,1.0113902379298532,61.111111111111114,0.9999999999836364,0.9931662870159457,2.294773529185057e-13,0.9985631821645775,0
111,135.9111111111111,1.2111111111111086,1.1638888888888914,1.2152777777777715,0.9965714285714317,0.034122551709515093,0.94081662190125,55.55555555555556,0.9090909090760331,0.9577142857142927,3.5980331707917174e-16,0.9968643206523711,0
112,137.075,1.1638888888888914,1.2222222222222285,1.2152777777777715,0.9577142857142927,0.035589315760820445,0.9812577944027335,61.111111111111114,0.9999999999836364,1.0057142857142962,1.1836394494743607e-12,0.9981457078275692,0
113,138.29722222222222,1.2222222222222285,1.1750000000000114,1.2152777777777715,1.0057142857142962,0.03805470638037672,1.0492327950446454,61.111111111111114,0.9999999999836364,0.9668571428571572,3.6776706896848865e-13,0.997665606680245,0
114,139.47222222222223,1.1750000000000114,1.2083333333333144,1.2111111111111086,0.9701834862385436,0.03621644817746684,0.9985488987356343,58.333333333333336,0.9545454545298347,0.997706422018335,2.9971018071853206e-13,0.9967290922737309,0
115,140.68055555555554,1.2083333333333144,1.1916666666666913,1.2097222222222115,0.9988518943742757,0.0352226812616083,0.9711490594535522,58.333333333333336,0.9545454545298347,0.9850746268657008,5.474223166239932e-15,0.9986679808489345,0
116,141.87222222222223,1.1916666666666913,1.2027777777777544,1.2083333333333144,0.98620689655176,0.037239827056543585,1.0267651900650308,61.111111111111114,0.9999999999836364,0.995402298850571,1.1860078891201553e-12,0.9977703542674226,0
117,143.075,1.2027777777777544,1.2333333333333485,1.2083333333333144,0.995402298850571,0.03477706775522179,0.9588627393295145,58.333333333333336,0.9545454545298347,1.0206896551724423,1.092319119812453e-14,0.9980951787677458,0
118,144.30833333333334,1.2333333333333485,1.1944444444444287,1.2083333333333144,1.0206896551724423,0.0361704768565744,0.9972813914520481,58.333333333333336,0.9545454545298347,0.9885057471264392,4.301949472514241e-15,0.9983329023162397,0
119,145.50277777777777,1.1944444444444287,1.2361111111111143,1.2055555555555344,0.9907834101382531,0.035432689239365635,0.9769393355702961,55.55555555555556,0.9090909090760331,1.0253456221198363,8.329158726388865e-15,0.9974191707588098,0
120,146.73888888888888,1.2361111111111143,1.1666666666666856,1.2055555555555344,1.0253456221198363,0.036483735404910865,1.005918460910878,61.111111111111114,0.9999999999836364,0.9677419354839036,2.0642762130727854e-14,0.998112850574032,0
121,147.90555555555557,1.1666666666666856,1.1666666666666572,1.1986111111110915,0.9733487833140526,0.03532714325741915,0.9740292538438332,55.55555555555556,0.9090909090760331,0.9733487833140289,1.815328147677063e-14,0.99635814477627,0
122,149.07222222222222,1.1666666666666572,1.2194444444444343,1.1986111111110915,0.9733487833140289,0.03714837347170458,1.024243659627288,61.111111111111114,0.9999999999836364,1.0173812282734729,3.906112846369103e-12,0.9986393912770031,0
123,150.29166666666666,1.2194444444444343,1.188888888888897,1.1986111111110915,1.0173812282734729,0.035460690091081694,0.9777113665410783,58.333333333333336,0.9545454545298347,0.9918887601390729,3.7392955553228364e-15,0.9982466308534406,0
124,151.48055555555555,1.188888888888897,1.23888888888888,1.1986111111110915,0.9918887601390729,0.038368173635096016,1.0578756188924128,63.888888888888886,1.045454545437438,1.0336037079953746,1.160538887212681e-10,0.9954300116426,0
125,152.71944444444443,1.23888888888888,1.1500000000000057,1.1986111111110915,1.0336037079953746,0.03556281165392713,0.9805270312251683,58.333333333333336,0.9545454545298347,0.9594438006952696,1.1704347851972021e-15,0.9972900512491505,0
126,153.86944444444444,1.1500000000000057,1.2138888888889028,1.1986111111110915,0.9594438006952696,0.03719829261920272,1.0256200151858406,58.333333333333336,0.9545454545298347,1.0127462340672355,1.9835164326992283e-12,0.9982760569734794,0
127,155.08333333333334,1.2138888888889028,1.2361111111111143,1.2041666666666657,1.0080738177624113,0.03795005973852901,1.0463475096499715,63.888888888888886,1.045454545437438,1.0265282583621718,6.8171978478970274e-12,0.9978034947467211,0
128,156.31944444444446,1.2361111111111143,1.2083333333333144,1.2041666666666657,1.0265282583621718,0.03652162289755545,1.0069630833396352,58.333333333333336,0.9545454545298347,1.0034602076124417,6.782648088874332e-15,0.9981157906786596,0
129,157.52777777777777,1.2083333333333144,1.2027777777777828,1.2111111111111086,0.997706422018335,0.03459192333637423,0.953757993700088,58.333333333333336,0.9545454545298347,0.9931192660550521,5.0394945174899765e-15,0.9974633783400835,0
130,158.73055555555555,1.2027777777777828,1.188888888888897,1.2055555555555486,0.9976958525345722,0.038732564024277015,1.067922479922063,61.111111111111114,0.9999999999836364,0.9861751152073858,2.330689894552984e-12,0.998033353041109,0
131,159.91944444444445,1.188888888888897,1.23888888888888,1.2055555555555486,0.9861751152073858,0.033032338492801974,0.9107575945333138,55.55555555555556,0.9090909090760331,1.027649769585252,1.3830816654515654e-15,0.9963295645588774,0
132,161.15833333333333,1.23888888888888,1.1638888888888914,1.2111111111111086,1.0229357798165086,0.03384013193540719,0.9330298297499403,55.55555555555556,0.9090909090760331,0.9610091743119307,3.665960250077837e-17,0.9975525793800973,0
133,162.32222222222222,1.1638888888888914,1.2138888888888744,1.2055555555555486,0.9654377880184408,0.036444966222485595,1.0048495287995365,61.111111111111114,0.9999999999836364,1.0069124423963072,2.4462625935334215e-12,0.9981579620688277,0
134,163.5361111111111,1.2138888888888744,1.1722222222222456,1.2111111111110944,1.0022935779816533,0.03761764613795158,1.0371823029142138,63.888888888888886,1.045454545437438,0.9678899082569135,2.171787272589598e-12,0.9973413600427261,0
135,164.70833333333334,1.1722222222222456,1.1833333333333371,1.2055555555555486,0.9723502304147715,0.038271729928857516,1.0552165023445246,61.111111111111114,0.9999999999836364,0.9815668202765065,9.589359688255694e-12,0.9973649296008366,0
136,165.89166666666668,1.1833333333333371,1.2194444444444343,1.2055555555555486,0.9815668202765065,0.03764441664276253,1.0379204111341747,63.888888888888886,1.045454545437438,1.0115207373271864,1.9702075040872735e-11,0.9979532888671969,0
137,167.11111111111111,1.2194444444444343,1.186111111111103,1.2055555555555486,1.0115207373271864,0.0382617710471324,1.0549419190852685,61.111111111111114,0.9999999999836364,0.9838709677419344,4.868963305454388e-13,0.9981143380257667,0
138,168.29722222222222,1.186111111111103,1.200000000000017,1.19583333333334,0.9918699186991746,0.036796321331299404,1.0145369850418484,61.111111111111114,0.9999999999836364,1.0034843205575,5.215034133698726e-13,0.9990991833343427,0
139,169.49722222222223,1.200000000000017,1.1416666666666515,1.194444444444457,1.0046511627907013,0.033606729969234084,0.9265945416967653,52.77777777777778,0.8636363636222314,0.9558139534883493,7.301459077790041e-17,0.9943533175646703,0
140,170.63888888888889,1.1416666666666515,1.2222222222222285,1.1875,0.961403508771917,0.037405388846976986,1.0313300094172728,61.111111111111114,0.9999999999836364,1.0292397660818766,3.1405857081612254e-11,0.9977076867087614,0
141,171.86111111111111,1.2222222222222285,1.1916666666666629,1.19305555555556,1.024447031431899,0.03709642200534806,1.0228112695910314,61.111111111111114,0.9999999999836364,0.9988358556460932,1.2746151790282712e-13,0.9978204932631967,0
142,173.05277777777778,1.1916666666666629,1.2027777777777828,1.1888888888888829,1.0023364485981328,0.03700249783954215,1.0202216210459678,61.111111111111114,0.9999999999836364,1.0116822429906636,8.766650057799585e-13,0.9974577199201764,0
143,174.25555555555556,1.2027777777777828,1.1666666666666572,1.19583333333334,1.0058072009291508,0.036006201610506425,0.9927520443099181,61.111111111111114,0.9999999999836364,0.9756097560975476,4.389645588752204e-14,0.9995749459634082,0
144,175.42222222222222,1.1666666666666572,1.1722222222222172,1.1888888888888829,0.9813084112149503,0.03787101156000724,1.044168017303754,61.111111111111114,0.9999999999836364,0.9859813084112157,7.992825151736938e-12,0.9967040145990093,0
145,176.59444444444443,1.1722222222222172,1.2027777777777828,1.1888888888888829,0.9859813084112157,0.03458824868254996,0.9536566772620022,55.55555555555556,0.9090909090760331,1.0116822429906636,1.2129352562487497e-14,0.9955668823992143,0
146,177.79722222222222,1.2027777777777828,1.1527777777777715,1.19583333333334,1.0058072009291508,0.03517155849595408,0.9697395181011204,58.333333333333336,0.9545454545298347,0.9639953542392461,9.317724102865781e-15,0.9962243217543014,0
147,178.95,1.1527777777777715,1.2333333333333485,1.1888888888888829,0.9696261682242987,0.0393646045459328,1.0853489090341357,63.888888888888886,1.045454545437438,1.0373831775701114,2.7383562084537516e-09,0.9954892890224551,0
148,180.18333333333334,1.2333333333333485,1.1638888888888914,1.19583333333334,1.0313588850174285,0.0370983272020543,1.022863799095404,61.111111111111114,0.9999999999836364,0.9732868757258968,5.1446880474292564e-14,0.9975243712421216,0
149,181.34722222222223,1.1638888888888914,1.1833333333333371,1.18194444444444,0.9847238542890775,0.03721861873106742,1.026180440562692,58.333333333333336,0.9545454545298347,1.0011750881316168,6.447474390318397e-13,0.9976891028780357,0
150,182.53055555555557,1.1833333333333371,1.2083333333333144,1.1875,0.9964912280701786,0.03598546406615736,0.9921802750416904,61.111111111111114,0.9999999999836364,1.0175438596491069,3.26459318562497e-13,0.9986378975620809,0
151,183.73888888888888,1.2083333333333144,1.205555555555577,1.1875,1.0175438596491069,0.03629781121193322,1.0007922155862012,58.333333333333336,0.9545454545298347,1.0152046783625912,3.100843963110139e-14,0.9972529993834511,0
152,184.94444444444446,1.205555555555577,1.2027777777777544,1.19305555555556,1.0104772991851132,0.03678524714173815,1.0142316508540066,61.111111111111114,0.9999999999836364,1.008149010477276,1.7731148038539757e-13,0.9990084064672038,0
153,186.1472222222222,1.2027777777777544,1.200000000000017,1.1930555555555458,1.0081490104772879,0.03369647823257752,0.9290690535286787,52.77777777777778,0.8636363636222314,1.0058207217695219,1.7540231216799963e-16,0.9945858435353352,0
154,187.34722222222223,1.200000000000017,1.23888888888888,1.2013888888888857,0.998843930635855,0.03486837635250436,0.9613802722144299,58.333333333333336,0.9545454545298347,1.0312138728323652,2.5062209049069896e-14,0.9967323293364958,0
155,188.5861111111111,1.23888888888888,1.194444444444457,1.2027777777777686,1.0300230946882223,0.03642291097119456,1.0042414281161098,58.333333333333336,0.9545454545298347,0.9930715935335054,4.150691410991251e-15,0.9981780656622239,0
156,189.78055555555557,1.194444444444457,1.22777777777776,1.2013888888888857,0.9942196531792039,0.03597679692812485,0.9919413073468148,55.55555555555556,0.9090909090760331,1.021965317919063,2.1423355507665422e-14,0.9961932365919934,0
157,191.00833333333333,1.22777777777776,1.2111111111111086,1.2041666666666657,1.019607843137241,0.03632908846114277,1.0016545823925938,58.333333333333336,0.9545454545298347,1.0057670126874265,6.014780958452787e-15,0.999213405225132,0
158,192.21944444444443,1.2111111111111086,1.1777777777777771,1.2041666666666657,1.0057670126874265,0.03645173485178684,1.0050361513888524,55.55555555555556,0.9090909090760331,0.9780853517877742,5.233652680209028e-15,0.9969997248933211,0
159,193.3972222222222,1.1777777777777771,1.2388888888889085,1.2041666666666657,0.9780853517877742,0.03669156426824191,1.0116486551471482,61.111111111111114,0.9999999999836364,1.0288350634371566,2.4622532745349757e-12,0.9979165757462224,0
160,194.63611111111112,1.2388888888889085,1.23333333333332,1.2069444444444457,1.0264672036824087,0.03633907863606003,1.00193002845823,58.333333333333336,0.9545454545298347,1.0218642117376173,7.167649550873356e-15,0.9982131198616145,0
161,195.86944444444444,1.23333333333332,1.200000000000017,1.2083333333333428,1.0206896551723947,0.03705108763134459,1.0215613240134251,61.111111111111114,0.9999999999836364,0.9931034482758684,8.955987671312518e-14,0.9976428957523191,0
162,197.06944444444446,1.200000000000017,1.2166666666666401,1.2069444444444315,0.9942462600690697,0.034860311927652925,0.9611579223441479,58.333333333333336,0.9545454545298347,1.008055235903326,1.2854253523143094e-14,0.9975275689148602,0
163,198.2861111111111,1.2166666666666401,1.2416666666666742,1.2138888888888744,1.002288329519441,0.03766668683511721,1.0385344381072623,63.888888888888886,1.045454545437438,1.0228832951945266,5.1441637408111696e-12,0.997724234278508,0
164,199.52777777777777,1.2416666666666742,1.2083333333333428,1.2222222222222001,1.0159090909091155,0.03817436006452015,1.0525318500471021,61.111111111111114,0.9999999999836364,0.9886363636363893,4.852766409199627e-13,0.9958178137728333,0
165,200.73611111111111,1.2083333333333428,1.2527777777777658,1.2138888888888744,0.9954233409611181,0.03556971401805749,0.980717341110535,61.111111111111114,0.9999999999836364,1.0320366132723138,1.0735466335343169e-13,0.9991004471259199,0
166,201.98888888888888,1.2527777777777658,1.1833333333333371,1.2222222222222001,1.0250000000000088,0.03685484231662573,1.0161505078578954,61.111111111111114,0.9999999999836364,0.9681818181818388,2.7283134518968355e-14,0.9970060603758566,0
167,203.17222222222222,1.1833333333333371,1.2027777777777828,1.2138888888888744,0.9748283752860559,0.03644279931412005,1.0047897834608583,61.111111111111114,0.9999999999836364,0.9908466819222128,8.007194625229974e-13,0.9979195785135124,0
168,204.375,1.2027777777777828,1.194444444444457,1.2124999999999915,0.9919816723940547,0.03675672409762028,1.013445222153077,61.111111111111114,0.9999999999836364,0.9851088201603839,3.3684022910339395e-13,0.9978112926314922,0
169,205.56944444444446,1.194444444444457,1.1888888888888687,1.2124999999999915,0.9851088201603839,0.035941373106386634,0.9909646125032903,55.55555555555556,0.9090909090760331,0.9805269186712388,1.0042668262201689e-14,0.99675174204991,0
170,206.75833333333333,1.1888888888888687,1.2388888888889085,1.2055555555555628,0.9861751152073506,0.03970701192787584,1.0947896612714272,66.66666666666667,1.0909090908912398,1.0276497695852636,3.777465007459568e-09,0.9953740867661217,0
171,207.99722222222223,1.2388888888889085,1.1833333333333087,1.2055555555555628,1.0276497695852636,0.03838489338067237,1.0583366106343584,61.111111111111114,0.9999999999836364,0.9815668202764714,2.482425343845046e-13,0.9972685086169741,0
172,209.18055555555554,1.1833333333333087,1.2305555555555543,1.2055555555555628,0.9815668202764714,0.03600472362972106,0.9927112938730354,58.333333333333336,0.9545454545298347,1.0207373271889328,9.901091448452637e-14,0.998555257489756,0
173,210.4111111111111,1.2305555555555543,1.25555555555556,1.2055555555555628,1.0207373271889328,0.038471748916793,1.0607313650707226,63.888888888888886,1.045454545437438,1.0414746543778777,6.7278092819034185e-12,0.9978165138942058,0
174,211.66666666666666,1.25555555555556,1.2861111111111256,1.2055555555555628,1.0414746543778777,0.03673467628117508,1.0128373264609594,61.111111111111114,0.9999999999836364,1.0668202764977015,9.078148118218249e-14,0.9972277983993576,0
175,212.95277777777778,1.2861111111111256,1.2194444444444343,1.2166666666666686,1.0570776255707865,0.035885832913858356,0.9894332752000595,58.333333333333336,0.9545454545298347,1.0022831050228211,1.8434670215831923e-16,0.9990488454654395,0
176,214.17222222222222,1.2194444444444343,1.2305555555555543,1.2111111111111086,1.006880733944948,0.034967453948249794,0.9641120095630563,55.55555555555556,0.9090909090760331,1.0160550458715607,9.357078735902874e-16,0.9979311828473467,0
177,215.40277777777777,1.2305555555555543,1.2361111111111143,1.2249999999999943,1.0045351473922939,0.03442027619759851,0.9490253909734003,58.333333333333336,0.9545454545298347,1.0090702947845878,2.289014001605259e-15,0.9974414407138855,0
178,216.63888888888889,1.2361111111111143,1.2027777777777828,1.2305555555555543,1.004514672686234,0.0342617973615696,0.9446558606866607,58.333333333333336,0.9545454545298347,0.9774266365688539,5.543187424135074e-16,0.9987476760686276,0
179,217.84166666666667,1.2027777777777828,1.25,1.2305555555555543,0.9774266365688539,0.033275416436365925,0.9174596656934483,55.55555555555556,0.9090909090760331,1.015801354401807,8.958609026526033e-16,0.9969980714931324,0
180,219.09166666666667,1.25,1.2111111111111086,1.2333333333333343,1.0135135135135127,0.03673389536779283,1.012815795354595,61.111111111111114,0.9999999999836364,0.9819819819819792,2.7700150861758276e-14,0.9983527110961296,0
181,220.30277777777778,1.2111111111111086,1.2722222222222115,1.2305555555555543,0.984198645598193,0.03382954825188885,0.9327380196455917,55.55555555555556,0.9090909090760331,1.0338600451467193,2.2209339402279316e-15,0.9959060711836585,0
182,221.575,1.2722222222222115,1.2805555555555657,1.2333333333333343,1.031531531531522,0.03594839397856794,0.9911581898566091,61.111111111111114,0.9999999999836364,1.0382882882882958,1.1526368442062e-14,0.9980545891183396,0
183,222.85555555555555,1.2805555555555657,1.25,1.2430555555555571,1.03016759776537,0.03662365552794421,1.0097762960050667,58.333333333333336,0.9545454545298347,1.0055865921787697,2.1767147969747576e-15,0.9973316381969075,0
184,224.10555555555555,1.25,1.2305555555555543,1.2430555555555571,1.0055865921787697,0.03646002140094896,1.005264625603099,63.888888888888886,1.045454545437438,0.98994413407821,3.018379816921435e-13,0.9968021793143053,0
185,225.3361111111111,1.2305555555555543,1.2194444444444343,1.2333333333333343,0.997747747747746,0.03483662275296839,0.960504771621656,55.55555555555556,0.9090909090760331,0.9887387387387297,4.1537783696279603e-16,0.9980207144303244,0
186,226.55555555555554,1.2194444444444343,1.2388888888889085,1.2333333333333343,0.9887387387387297,0.03570841043924492,0.9845414366694544,58.333333333333336,0.9545454545298347,1.0045045045045196,2.1664480376760303e-14,0.9971200257202792,0
187,227.79444444444445,1.2388888888889085,1.2138888888888744,1.2375000000000114,1.0011223344556743,0.037370891515563824,1.030378859483322,61.111111111111114,0.9999999999836364,0.9809203142536268,1.3589395450944175e-13,0.9978551927673536,0
188,229.00833333333333,1.2138888888888744,1.2138888888889028,1.2347222222222314,0.983127109111342,0.03465696112198447,0.9555511957523454,55.55555555555556,0.9090909090760331,0.983127109111365,1.742719043482414e-15,0.9960524066807932,0
189,230.22222222222223,1.2138888888889028,1.2138888888888744,1.2347222222222314,0.983127109111365,0.03591530892621629,0.9902459788515857,58.333333333333336,0.9545454545298347,0.983127109111342,1.6994074536805757e-14,0.9983389770783799,0
190,231.4361111111111,1.2138888888888744,1.1972222222222229,1.2249999999999943,0.9909297052154122,0.03800660344966658,1.047906515663211,61.111111111111114,0.9999999999836364,0.9773242630385538,1.4181691845166489e-12,0.9963314019903018,0
191,232.63333333333333,1.1972222222222229,1.24444444444444,1.2249999999999943,0.9773242630385538,0.03700358790230583,1.0202516759250904,61.111111111111114,0.9999999999836364,1.015873015873017,1.826659917075757e-12,0.997221731885936,0
192,233.87777777777777,1.24444444444444,1.2250000000000227,1.2249999999999943,1.015873015873017,0.03625975086665275,0.9997428273171176,61.111111111111114,0.9999999999836364,1.000000000000023,2.1046973029421184e-14,0.9988801939207219,0
193,235.1027777777778,1.2250000000000227,1.23888888888888,1.2222222222222285,1.0022727272727407,0.0388970683408072,1.0724581429253355,61.111111111111114,0.9999999999836364,1.0136363636363512,3.678956011360368e-12,0.996299101095211,0
194,236.34166666666667,1.23888888888888,1.1972222222222229,1.2222222222222285,1.0136363636363512,0.034559390077094645,0.952860996565893,55.55555555555556,0.9090909090760331,0.97954545454545,1.1071350601368226e-16,0.9983887353327059,0
195,237.5388888888889,1.1972222222222229,1.2027777777777828,1.2166666666666686,0.9840182648401816,0.03688818293853745,1.0170697653491316,61.111111111111114,0.9999999999836364,0.9885844748858473,5.372024439870282e-13,0.9982044897718955,0
196,238.74166666666667,1.2027777777777828,1.2166666666666686,1.2138888888888886,0.9908466819222013,0.03782535817335146,1.0429092760062835,63.888888888888886,1.045454545437438,1.0022883295194527,1.8488275146943955e-11,0.9958080985868244,0
197,239.95833333333334,1.2166666666666686,1.2138888888888744,1.2138888888888886,1.0022883295194527,0.03511827816213156,0.9682704889350895,58.333333333333336,0.9545454545298347,0.9999999999999883,3.4527468503655484e-15,0.9992166515729559,0
198,241.17222222222222,1.2138888888888744,1.194444444444457,1.2138888888888886,0.9999999999999883,0.036259878772203026,0.9997463538900643,58.333333333333336,0.9545454545298347,0.9839816933638551,1.6225575096289087e-14,0.9982071450117941,0
199,242.36666666666667,1.194444444444457,1.2055555555555486,1.2138888888888744,0.9839816933638665,0.03736943800713349,1.030338783790772,61.111111111111114,0.9999999999836364,0.9931350114416537,1.2637419322808485e-12,0.9977870286302459,0
200,243.57222222222222,1.2055555555555486,1.24444444444444,1.2097222222222115,0.9965556831228504,0.03751406309739019,1.0343263428108536,61.111111111111114,0.9999999999836364,1.0287026406429447,1.529822058962682e-12,0.997688823250199,0
201,244.81666666666666,1.24444444444444,1.2277777777777885,1.2152777777777715,1.0240000000000016,0.035692201026847434,0.9840945156787667,58.333333333333336,0.9545454545298347,1.0102857142857284,1.9391663127414204e-15,0.9988352689732936,0
202,246.04444444444445,1.2277777777777885,1.23888888888888,1.2152777777777715,1.0102857142857284,0.03832637356912922,1.0567231201815042,61.111111111111114,0.9999999999836364,1.0194285714285694,4.4415890236571e-12,0.9936745139974182,0
203,247.28333333333333,1.23888888888888,1.2111111111111086,1.2152777777777715,1.0194285714285694,0.03747544360571041,1.0332615379272378,63.888888888888886,1.045454545437438,0.9965714285714317,5.466674205326094e-13,0.9983703428376343,0
204,248.49444444444444,1.2111111111111086,1.1833333333333371,1.2124999999999915,0.9988545246277254,0.03689236362515888,1.0171850339696582,58.333333333333336,0.9545454545298347,0.9759450171821406,3.55404352052769e-14,0.9979115059418517,0
205,249.67777777777778,1.1833333333333371,1.2111111111111086,1.2124999999999915,0.9759450171821406,0.0381878697583607,1.0529043352184981,61.111111111111114,0.9999999999836364,0.9988545246277254,6.928357193514145e-12,0.9975327408308896,0
206,250.88888888888889,1.2111111111111086,1.2194444444444343,1.2124999999999915,0.9988545246277254,0.03603373850253259,0.9935112831251821,58.333333333333336,0.9545454545298347,1.0057273768613961,2.1134708702097785e-14,0.9981201760055927,0
207,252.10833333333332,1.2194444444444343,1.1611111111111256,1.2124999999999915,1.0057273768613961,0.03683494004121379,1.0156017683708662,58.333333333333336,0.9545454545298347,0.9576174112256773,1.2138656372380138e-14,0.998479730509146,0
208,253.26944444444445,1.1611111111111256,1.1972222222222229,1.2111111111111086,0.9587155963302892,0.03580905562054469,0.9873163950104124,58.333333333333336,0.9545454545298347,0.9885321100917457,3.4469334938419527e-13,0.9968759967987078,0
209,254.46666666666667,1.1972222222222229,1.2277777777777885,1.2111111111111086,0.9885321100917457,0.03473910832260362,0.9578161333936767,58.333333333333336,0.9545454545298347,1.0137614678899192,2.2174304425514983e-14,0.9967530152757094,0
210,255.69444444444446,1.2277777777777885,1.1722222222222172,1.2152777777777715,1.0102857142857284,0.036049552690563584,0.9939473071097918,58.333333333333336,0.9545454545298347,0.9645714285714294,4.134351721922242e-15,0.9983105489198794,0
211,256.8666666666667,1.1722222222222172,1.2527777777777942,1.2111111111111086,0.9678899082568786,0.033573621119017814,0.9256816745442533,55.55555555555556,0.9090909090760331,1.0344036697247863,1.2422819832557958e-14,0.9951745586705808,0
212,258.11944444444447,1.2527777777777942,1.1999999999999886,1.2111111111111086,1.0344036697247863,0.036564940363742665,1.008157419348106,61.111111111111114,0.9999999999836364,0.9908256880733872,1.4800855514611987e-14,0.9981298384189352,0
213,259.31944444444446,1.1999999999999886,1.169444444444423,1.2055555555555486,0.9953917050691208,0.03282834150523216,0.9051330516105772,50.0,0.8181818181684297,0.9700460829492965,9.554841837758215e-18,0.9930925767567469,0
214,260.4888888888889,1.169444444444423,1.2027777777777828,1.1986111111111057,0.9756662804171359,0.037404442094421876,1.0313039058436522,63.888888888888886,1.045454545437438,1.0034762456547017,3.118101610244395e-11,0.9973570873973314,0
215,261.69166666666666,1.2027777777777828,1.1916666666666629,1.2013888888888857,1.0011560693641688,0.03861011417082134,1.0645463297894118,63.888888888888886,1.045454545437438,0.9919075144508666,2.950599833906331e-11,0.9955807866032266,0
216,262.8833333333333,1.1916666666666629,1.1833333333333371,1.1986111111111057,0.9942062572421797,0.038629902717605594,1.065091933585294,66.66666666666667,1.0909090908912398,0.9872537659328001,2.4330035208741663e-10,0.9965057768519694,0
217,264.06666666666666,1.1833333333333371,1.1222222222222058,1.1944444444444429,0.9906976744186091,0.03657734925679662,1.008499553574876,58.333333333333336,0.9545454545298347,0.9395348837209178,7.518530746987787e-14,0.9964404687203692,0
218,265.18888888888887,1.1222222222222058,1.1722222222222172,1.1944444444444429,0.9395348837209178,0.03424135304416563,0.9440921761826173,55.55555555555556,0.9090909090760331,0.9813953488372064,3.903673310165848e-14,0.9980115819789359,0
219,266.3611111111111,1.1722222222222172,1.1333333333333826,1.1875,0.9871345029239723,0.03834992636956645,1.0573725108347094,63.888888888888886,1.045454545437438,0.9543859649123222,4.115940921423089e-11,0.9963296698414088,0
220,267.49444444444447,1.1333333333333826,1.2111111111111086,1.1777777777777771,0.9622641509434385,0.03552514951569222,0.9794886221996831,61.111111111111114,0.9999999999836364,1.0283018867924512,4.195421787756004e-12,0.9981679891088019,0
221,268.7055555555556,1.2111111111111086,1.136111111111063,1.1875,1.0198830409356703,0.035679993471841136,0.9837579326834365,55.55555555555556,0.9090909090760331,0.95672514619879,6.401013159324171e-16,0.9982278077359189,0
222,269.84166666666664,1.136111111111063,1.2000000000000455,1.1777777777777771,0.9646226415093937,0.03665984059911088,1.0107739797864,58.333333333333336,0.9545454545298347,1.018867924528341,2.576666527712157e-12,0.997213765823658,0
223,271.0416666666667,1.2000000000000455,1.1833333333333371,1.1777777777777771,1.018867924528341,0.0377897749857124,1.041928187174591,63.888888888888886,1.045454545437438,1.0047169811320793,4.521673400287307e-12,0.9976213850844652,0
224,272.225,1.1833333333333371,1.147222222222183,1.1833333333333371,1.0,0.03868563998533378,1.0666287045860225,61.111111111111114,0.9999999999836364,0.9694835680750812,3.53899613607378e-12,0.9976554214375499,0
225,273.3722222222222,1.147222222222183,1.1555555555555657,1.1777777777777771,0.9740566037735522,0.03504081056727404,0.9661345759611385,58.333333333333336,0.9545454545298347,0.9811320754717072,1.10098562211558e-13,0.9973546648544012,0
226,274.52777777777777,1.1555555555555657,1.125,1.1638888888888914,0.9928400954654003,0.036985379826085046,1.0197496483830943,61.111111111111114,0.9999999999836364,0.9665871121718356,1.3563325809706761e-12,0.9980582256776485,0
227,275.65277777777777,1.125,1.11388888888888,1.1513888888888744,0.9770808202653923,0.03867710369874951,1.0663933446874965,63.888888888888886,1.045454545437438,0.9674306393244919,3.5482733418135126e-10,0.9977379929606705,0
228,276.76666666666665,1.11388888888888,1.1333333333333258,1.1513888888888744,0.9674306393244919,0.0356705331942351,0.9834970967853673,58.333333333333336,0.9545454545298347,0.9843184559710553,1.3634732448988829e-12,0.9962085649793171,0
229,277.9,1.1333333333333258,1.0833333333333712,1.141666666666623,0.9927007299270385,0.03625854331405479,0.9997095330440031,61.111111111111114,0.9999999999836364,0.9489051094891205,8.715932164372886e-13,0.9983116281940376,0
230,278.98333333333335,1.0833333333333712,1.0972222222222285,1.141666666666623,0.9489051094891205,0.03767786395601573,1.0388426102866424,58.333333333333336,0.9545454545298347,0.9610705596107478,1.9858266073202735e-11,0.9981637535424769,0
231,280.0805555555556,1.0972222222222285,1.0472222222222172,1.1347222222221944,0.9669522643819142,0.036220458607929044,0.9986594731050995,58.333333333333336,0.9545454545298347,0.922888616891083,8.790896070982879e-13,0.9977103439570321,0
232,281.1277777777778,1.0472222222222172,1.055555555555543,1.1291666666666629,0.9274292742927416,0.03773835899545204,1.0405105611224639,61.111111111111114,0.9999999999836364,0.9348093480934729,6.182027667556156e-10,0.9987074087402195,0
233,282.18333333333334,1.055555555555543,1.0166666666666515,1.11944444444444,0.9429280397022257,0.038714809461395966,1.0674329565119944,63.888888888888886,1.045454545437438,0.9081885856079305,1.0615279322223614e-08,0.997902051092088,0
234,283.2,1.0166666666666515,1.0305555555555657,1.1055555555555543,0.9195979899497361,0.03772608015202877,1.0401720125845737,63.888888888888886,1.045454545437438,0.9321608040201107,3.9561019349321214e-08,0.9976900298777498,0
235,284.23055555555555,1.0305555555555657,1.0305555555555657,1.0902777777777999,0.9452229299362959,0.03759205683550799,1.0364767624468203,61.111111111111114,0.9999999999836364,0.9452229299362959,1.8764725329134535e-09,0.9964048896496409,0
236,285.2611111111111,1.0305555555555657,1.0027777777777942,1.069444444444457,0.9636363636363617,0.03707159212710805,1.0221266677369014,61.111111111111114,0.9999999999836364,0.937662337662342,3.452656771596452e-10,0.9972933633937349,0
237,286.2638888888889,1.0027777777777942,0.9944444444444116,1.05138888888888,0.9537648612946075,0.03663708396954034,1.0101465409142816,58.333333333333336,0.9545454545298347,0.9458388375164892,1.7318846357028406e-10,0.9966113982014774,0
238,287.2583333333333,0.9944444444444116,0.9805555555555543,1.0388888888888914,0.9572192513368645,0.03832972900455901,1.0568156352270652,63.888888888888886,1.045454545437438,0.9438502673796756,5.0995577538515136e-08,0.9981983773417542,0
239,288.2388888888889,0.9805555555555543,1.0,1.0305555555555657,0.9514824797843561,0.036731897314614355,1.0127607056398,58.333333333333336,0.9545454545298347,0.970350404312659,6.855278567030609e-10,0.9968628402724841,0
240,289.2388888888889,1.0,0.9694444444444343,1.0236111111111086,0.9769335142469495,0.03347027519811531,0.9228322522320394,50.0,0.8181818181684297,0.9470827679782828,3.5202167515593213e-14,0.9941031470136745,0
241,290.2083333333333,0.9694444444444343,0.9805555555555543,1.0097222222222229,0.960110041265464,0.03432774011298202,0.9464740141808912,58.333333333333336,0.9545454545298347,0.971114167812928,4.463110436780937e-11,0.9969899223176292,0
242,291.18888888888887,0.9805555555555543,0.9361111111111313,1.001388888888897,0.9791955617198242,0.03749021788403056,1.0336688898374504,58.333333333333336,0.9545454545298347,0.934812760055491,2.45983372559877e-10,0.9988779080696331,0
243,292.125,0.9361111111111313,0.9388888888888687,0.9972222222222058,0.9387186629526819,0.038514667895445824,1.061914714102042,63.888888888888886,1.045454545437438,0.9415041782729757,3.0927824923310254e-07,0.9989798397420182,0
244,293.06388888888887,0.9388888888888687,0.9277777777778056,0.987499999999983,0.950773558368491,0.034555273579257646,0.9527474977390162,55.55555555555556,0.9090909090760331,0.9395218002813384,3.050579927554864e-11,0.997099299671308,0
245,293.9916666666667,0.9277777777778056,0.9388888888888687,0.9805555555555543,0.9461756373937973,0.038695549439469186,1.066901925042802,61.111111111111114,0.9999999999836364,0.9575070821529551,1.897192589694896e-07,0.9980784333897037,0
246,294.93055555555554,0.9388888888888687,0.9222222222222172,0.9749999999999943,0.9629629629629478,0.035943462326890496,0.9910222158558644,58.333333333333336,0.9545454545298347,0.9458689458689462,6.311742239972773e-10,0.9970792483019073,0
247,295.85277777777776,0.9222222222222172,0.955555555555577,0.9541666666666515,0.9665211062591076,0.038993293181927395,1.0751112249907204,61.111111111111114,0.9999999999836364,1.0014556040757299,2.003538384087733e-07,0.9983262254303045,0
248,296.80833333333334,0.955555555555577,0.9250000000000114,0.9472222222222229,1.0087976539589663,0.03712732595289631,1.0236633438375087,61.111111111111114,0.9999999999836364,0.9765395894428266,2.2451369652287667e-09,0.9983836475421983,0
249,297.73333333333335,0.9250000000000114,0.9555555555555202,0.9388888888888687,0.9852071005917493,0.03350711591502378,0.923848013278438,52.77777777777778,0.8636363636222314,1.0177514792899252,1.0418287760272094e-11,0.9944350665304185,0
250,298.68888888888887,0.9555555555555202,0.9611111111111086,0.9388888888888687,1.0177514792899252,0.03877815630393665,1.0691795363960133,63.888888888888886,1.045454545437438,1.0236686390532739,1.2904459367746313e-07,0.9970169788133733,0
251,299.65,0.9611111111111086,0.8833333333333826,0.9388888888888687,1.0236686390532739,0.03773084689740913,1.0403034398390298,61.111111111111114,0.9999999999836364,0.9408284023669367,1.986192321723479e-09,0.9984645957667437,0
252,300.53333333333336,0.8833333333333826,1.055555555555543,0.9375,0.9422222222222748,0.03962229652962709,1.092453914065828,119.44444444444444,1.954545454513471,1.1259259259259125,0.9601314663887024,0.1856708375634195,1
253,301.5888888888889,1.055555555555543,1.0,0.9388888888888687,1.1242603550295966,0.03581573066326317,0.9875004372589203,58.333333333333336,0.9545454545298347,1.0650887573964727,1.366978253682094e-12,0.9980798077223201,0
254,302.5888888888889,1.0,0.9638888888889028,0.9472222222221944,1.0557184750733448,0.03613542287227932,0.9963148936540688,58.333333333333336,0.9545454545298347,1.0175953079179332,1.8286826913849197e-11,0.997594024227977,0
255,303.5527777777778,0.9638888888889028,0.6027777777777601,0.9555555555555486,1.00872093023258,0.039074052720419125,1.0773379024337473,63.888888888888886,1.045454545437438,0.6308139534883582,2.461192494251918e-08,0.9978359328806853,0
256,304.15555555555557,0.6027777777777601,1.0777777777777828,0.9555555555555486,0.6308139534883582,0.04150105928380247,1.1442545895482623,125.0,2.0454545454210744,1.1279069767441996,0.9414147734642029,0.18882480809034835,1
257,305.23333333333335,1.0777777777777828,1.0055555555555316,0.9583333333333428,1.1246376811594145,0.03457507835732661,0.9532935490589457,58.333333333333336,0.9545454545298347,1.0492753623188051,1.2642836810013852e-13,0.9973076033461965,0
258,306.2388888888889,1.0055555555555316,0.9638888888889028,0.9625000000000057,1.0447330447330136,0.03750810040993605,1.034161941405126,61.111111111111114,0.9999999999836364,1.00144300144301,2.477263949529629e-10,0.998796078608315,0
259,307.2027777777778,0.9638888888889028,1.0083333333333258,0.9638888888889028,1.0,0.037962593603376726,1.0466930895610456,63.888888888888886,1.045454545437438,1.0461095100864324,8.203105750226314e-08,0.9977132576707173,0
260,308.2111111111111,1.0083333333333258,0.9944444444444684,0.9819444444444514,1.026874115983012,0.035822264780044195,0.9876805939403246,58.333333333333336,0.9545454545298347,1.01272984441303,1.1382108797142187e-11,0.9980680818090009,0
261,309.2055555555556,0.9944444444444684,1.022222222222183,0.9972222222222342,0.9972144846796778,0.03787143216239051,1.0441796140247952,63.888888888888886,1.045454545437438,1.0250696378829567,2.8090818560144726e-08,0.9975631795417191,0
262,310.22777777777776,1.022222222222183,1.0833333333333712,1.0027777777777658,1.0193905817174247,0.0372869368379622,1.0280640866361337,61.111111111111114,0.9999999999836364,1.08033240997235,5.640611866475354e-10,0.9993237166380856,0
263,311.31111111111113,1.0833333333333712,1.033333333333303,1.0027777777777658,1.08033240997235,0.029169110970990595,0.8042418597885113,44.44444444444444,0.7272727272608265,1.030470914127406,4.8188319791672886e-17,0.9755670668812917,0
264,312.34444444444443,1.033333333333303,1.0527777777778056,1.0069444444444287,1.0262068965517102,0.03589985634654341,0.9898199250226909,102.77777777777777,1.681818181790661,1.0455172413793543,0.9209587574005127,0.204817958455758,1
265,313.39722222222224,1.0527777777778056,1.0,1.0152777777777544,1.0369357045144152,0.039498457863932225,1.0890394720243406,119.44444444444444,1.954545454513471,0.9849521203830596,0.9257822036743164,0.17428176326891892,1
266,314.39722222222224,1.0,1.022222222222183,1.0152777777777544,0.9849521203830596,0.039126777511394734,1.0787916143412977,141.66666666666666,2.3181818181438842,1.0068399452804224,0.9455927610397339,0.182327294237552,1
267,315.4194444444444,1.022222222222183,1.0166666666667084,1.0152777777777544,1.0068399452804224,0.04035645350403501,1.112695866968052,127.77777777777777,2.090909090874876,1.0013679890561518,0.935549259185791,0.17245916860824662,1
268,316.43611111111113,1.0166666666667084,1.0361111111110972,1.0194444444444457,0.9972752043597127,0.0414771926786361,1.1435965467664673,155.55555555555554,2.5454545454128925,1.016348773841947,0.9488959312438965,0.18658243992624224,1
269,317.47222222222223,1.0361111111110972,1.0277777777777715,1.022222222222183,1.0135869565217643,0.04068991704755575,1.1218900224114423,150.0,2.4545454545052894,1.005434782608728,0.9484443664550781,0.18258384757677476,1
270,318.5,1.0277777777777715,1.0583333333333371,1.0249999999999773,1.0027100271002871,0.042607749822938565,1.1747679246406597,161.11111111111111,2.636363636320496,1.0325203252032786,0.9518097043037415,0.18291084246916617,1
271,319.55833333333334,1.0583333333333371,1.0388888888888914,1.0305555555555372,1.0269541778975961,0.04076194969643032,1.123876084707067,158.33333333333334,2.5909090908666945,1.0080862533692927,0.9534704089164734,0.18072064268812194,1
272,320.59722222222223,1.0388888888888914,1.0305555555555657,1.0347222222222001,1.0040268456376078,0.04130977978024825,1.1389806892284733,161.11111111111111,2.636363636320496,0.9959731543624472,0.9467609524726868,0.17895727608441908,1
273,321.6277777777778,1.0305555555555657,1.088888888888846,1.0319444444444343,0.9986541049798311,0.03979762211387178,1.0972879377726763,158.33333333333334,2.5909090908666945,1.055181695827694,0.9616929292678833,0.18813979967078792,1
274,322.71666666666664,1.088888888888846,1.0444444444444798,1.0333333333333314,1.0537634408601755,0.040596974125606956,1.119327428423692,125.0,2.0454545454210744,1.0107526881720792,0.9401609897613525,0.17665785524221056,1
275,323.7611111111111,1.0444444444444798,1.0749999999999886,1.0333333333333314,1.0107526881720792,0.04000152555645522,1.1029099015014878,150.0,2.4545454545052894,1.0403225806451522,0.9564664959907532,0.17705918301850682,1
276,324.8361111111111,1.0749999999999886,1.0611111111111313,1.0374999999999943,1.0361445783132477,0.042533781462321466,1.1727284914893592,125.0,2.0454545454210744,1.0227576974565178,0.9392126798629761,0.19252002402408064,1
277,325.89722222222224,1.0611111111111313,1.0722222222221944,1.0416666666666856,1.0186666666666675,0.04081675353984411,1.1253871196163756,163.88888888888889,2.6818181817742976,1.029333333333288,0.958488404750824,0.18419897513538097,1
278,326.96944444444443,1.0722222222221944,1.1111111111111427,1.0513888888889085,1.019815059445133,0.039916909135046696,1.100576883255237,122.22222222222223,1.9999999999672728,1.0568031704095215,0.9452033638954163,0.17419450153372634,1
279,328.0805555555556,1.1111111111111427,1.0805555555555202,1.0597222222222342,1.0484927916120756,0.03901407967416327,1.0756843438352024,152.77777777777777,2.499999999959091,1.0196592398426811,0.9525304436683655,0.18088586107401905,1
280,329.1611111111111,1.0805555555555202,1.1694444444444798,1.0666666666666629,1.0130208333333037,0.03734533910388882,1.0296743361569847,155.55555555555554,2.5454545454128925,1.0963541666667038,0.9520440697669983,0.17519721679396777,1
281,330.3305555555556,1.1694444444444798,1.0944444444444343,1.0736111111110915,1.0892626131953955,0.04651261162317995,1.2824315870528087,119.44444444444444,1.954545454513471,1.0194049159120402,0.9169903993606567,0.2507176701885031,1
282,331.425,1.0944444444444343,1.0888888888889028,1.0777777777777544,1.0154639175257858,0.03518892504881836,0.9702183434169682,72.22222222222223,1.1818181817988431,1.0103092783505503,0.16174766421318054,0.3548456287106051,0
283,332.5138888888889,1.0888888888889028,1.0722222222221944,1.084722222222183,1.003841229193391,0.034200069856721096,0.9429539286891846,55.55555555555556,0.9090909090760331,0.9884763124199845,2.5215454249887144e-14,0.9976101664866412,0
284,333.5861111111111,1.0722222222221944,1.0361111111110972,1.0777777777777544,0.9948453608247381,0.036134147318075426,0.9962797244613492,61.111111111111114,0.9999999999836364,0.9613402061855749,6.831202704199457e-12,0.9985452239416768,0
285,334.6222222222222,1.0361111111110972,1.0833333333333712,1.0777777777777544,0.9613402061855749,0.035839088288511844,0.9881444466011632,58.333333333333336,0.9545454545298347,1.0051546391753148,2.461587877977678e-11,0.9974881871718818,0
286,335.7055555555556,1.0833333333333712,1.0472222222222172,1.0819444444444457,1.0012836970475307,0.03656103516386062,1.008049746364205,63.888888888888886,1.045454545437438,0.9679075738125744,4.233324454872012e-11,0.9987214735275753,0
287,336.7527777777778,1.0472222222222172,1.0749999999999886,1.0819444444444457,0.9679075738125744,0.0331237227932437,0.9132772146827184,55.55555555555556,0.9090909090760331,0.9935815147625043,8.827721810922978e-14,0.9975260201206834,0
288,337.8277777777778,1.0749999999999886,1.0833333333333144,1.0819444444444457,0.9935815147625043,0.03468415137459406,0.9563008771309998,58.333333333333336,0.9545454545298347,1.001283697047478,5.599206536789636e-13,0.997877079383358,0
289,338.9111111111111,1.0833333333333144,1.0749999999999886,1.0819444444444173,1.0012836970475043,0.03787742712823767,1.044344905400562,66.66666666666667,1.0909090908912398,0.9935815147625304,3.696708494871359e-09,0.9978574857002381,0
290,339.9861111111111,1.0749999999999886,1.0611111111111313,1.0791666666666515,0.9961389961389996,0.036418267371295825,1.004113396191435,58.333333333333336,0.9545454545298347,0.9832689832690158,2.372410210990661e-12,0.9985051632717936,0
291,341.0472222222222,1.0611111111111313,1.0388888888888914,1.0749999999999886,0.9870801033592024,0.035152987719620166,0.9692274903018722,55.55555555555556,0.9090909090760331,0.9664082687338627,1.3019630946270455e-13,0.9991257867740106,0
292,342.0861111111111,1.0388888888888914,1.0527777777778056,1.0736111111110915,0.9676584734799683,0.034517221511405294,0.9516983376926641,52.77777777777778,0.8636363636222314,0.9805950840880128,2.1806439032961977e-13,0.9958327060862513,0
293,343.1388888888889,1.0527777777778056,1.0861111111111086,1.0666666666666629,0.9869791666666963,0.03731537725871509,1.0288482372707628,61.111111111111114,0.9999999999836364,1.0182291666666679,1.3877016202812342e-10,0.9991501374503973,0
294,344.225,1.0861111111111086,1.10277777777776,1.06805555555556,1.0169050715214498,0.03665985786376224,1.0107744558021186,63.888888888888886,1.045454545437438,1.032509752925857,8.863774297873661e-11,0.9983739749234786,0
295,345.3277777777778,1.10277777777776,1.0777777777777828,1.0749999999999886,1.025839793281648,0.03494683667520653,0.9635435563787076,55.55555555555556,0.9090909090760331,1.0025839793281808,3.2074139215887074e-14,0.9972224229461009,0
296,346.40555555555557,1.0777777777777828,1.10277777777776,1.0749999999999886,1.0025839793281808,0.03902722780178806,1.0760468600128197,66.66666666666667,1.0909090908912398,1.025839793281648,4.048381185839389e-08,0.9972088350986643,0
297,347.5083333333333,1.10277777777776,1.0305555555555657,1.0763888888888857,1.0245161290322446,0.03624792204448404,0.9994166866284442,58.333333333333336,0.9545454545298347,0.9574193548387219,1.805543019782474e-13,0.9991527729476337,0
298,348.5388888888889,1.0305555555555657,1.069444444444457,1.0763888888888857,0.9574193548387219,0.03524604077095231,0.9717931207434988,58.333333333333336,0.9545454545298347,0.9935483870967888,1.402043411924403e-11,0.9975205747678353,0
299,349.60833333333335,1.069444444444457,1.055555555555543,1.0722222222222229,0.9974093264248817,0.03722805240721409,1.026440543013411,58.333333333333336,0.9545454545298347,0.9844559585492104,6.732790540364686e-12,0.9987395365054459,0
300,350.6638888888889,1.055555555555543,1.0749999999999886,1.0652777777777942,0.9908735332463875,0.03646351637959743,1.0053609880918621,58.333333333333336,0.9545454545298347,1.009126466753559,8.71814773151236e-12,0.9984787337529358,0
301,351.7388888888889,1.0749999999999886,1.0749999999999886,1.0722222222222229,1.0025906735751184,0.03845348866291767,1.0602278989022984,63.888888888888886,1.045454545437438,1.0025906735751184,1.4378910284662538e-09,0.9978164939414154,0
302,352.81388888888887,1.0749999999999886,1.036111111111154,1.0749999999999886,1.0,0.03676053219848276,1.0135502179523301,61.111111111111114,0.9999999999836364,0.963824289405735,1.2807627354505247e-11,0.9983055597126977,0
303,353.85,1.036111111111154,1.0833333333333144,1.0749999999999886,0.963824289405735,0.03519890335929223,0.9704934623597784,55.55555555555556,0.9090909090760331,1.0077519379844893,1.864215812968917e-12,0.9978194378625784,0
304,354.93333333333334,1.0833333333333144,1.0583333333333371,1.0749999999999886,1.0077519379844893,0.038621889997984014,1.0648710093158904,63.888888888888886,1.045454545437438,0.9844961240310217,6.184870393610709e-10,0.9987616861963919,0
305,355.9916666666667,1.0583333333333371,1.0583333333333371,1.0722222222222229,0.9870466321243553,0.036533172363538896,1.0072815217044977,58.333333333333336,0.9545454545298347,0.9870466321243553,5.860605837432198e-12,0.9987735069971567,0
306,357.05,1.0583333333333371,1.0777777777777828,1.063888888888897,0.9947780678851134,0.04142932326219469,1.1422767057694578,66.66666666666667,1.0909090908912398,1.0130548302872031,3.865623511956073e-06,0.9962234673405651,0
307,358.1277777777778,1.0777777777777828,1.0638888888888687,1.063888888888897,1.0130548302872031,0.03890630552406748,1.0727128277339277,61.111111111111114,0.9999999999836364,0.9999999999999732,1.8067308760194578e-10,0.9987763906428093,0
308,359.19166666666666,1.0638888888888687,1.0472222222222172,1.0666666666666629,0.9973958333333179,0.039476170319873,1.0884249666353305,63.888888888888886,1.045454545437438,0.981770833333332,1.1393767707090774e-08,0.9973400585783292,0
309,360.2388888888889,1.0472222222222172,1.055555555555543,1.061111111111103,0.9869109947644008,0.03786355412578026,1.0439624031944341,61.111111111111114,0.9999999999836364,0.994764397905755,2.3583907049484765e-10,0.999079081397239,0
310,361.2944444444444,1.055555555555543,1.0500000000000114,1.061111111111103,0.994764397905755,0.036312171712009955,1.001188158928482,58.333333333333336,0.9545454545298347,0.9895287958115367,4.146274903277236e-12,0.9988432451164093,0
311,362.34444444444443,1.0500000000000114,1.0638888888889255,1.0583333333333371,0.9921259842519757,0.03594149838222077,0.9909680665705031,58.333333333333336,0.9545454545298347,1.005249343832052,6.149352294732013e-12,0.997997639953951,0
312,363.40833333333336,1.0638888888889255,1.0527777777777487,1.0583333333333371,1.005249343832052,0.036086199018395194,0.9949577085196608,55.55555555555556,0.9090909090760331,0.994750656167948,4.5397407079199315e-13,0.9985555933212853,0
313,364.4611111111111,1.0527777777777487,1.0638888888888687,1.0583333333333371,0.994750656167948,0.036983834145355665,1.0197070313439371,61.111111111111114,0.9999999999836364,1.0052493438319983,5.378140294221012e-11,0.9994676423534328,0
314,365.525,1.0638888888888687,1.1166666666666742,1.0583333333333371,1.0052493438319983,0.036922456288543466,1.0180147397358188,61.111111111111114,0.9999999999836364,1.055118110236224,9.418248819725861e-11,0.9985500011674068,0
315,366.64166666666665,1.1166666666666742,1.0638888888889255,1.061111111111103,1.0523560209424236,0.03522347324817098,0.971170895866281,58.333333333333336,0.9545454545298347,1.0026178010471627,3.1546292000080717e-14,0.9992809826582733,0
316,367.7055555555556,1.0638888888889255,1.125,1.0638888888888687,1.0000000000000535,0.03586500914623388,0.9888591286098956,61.111111111111114,0.9999999999836364,1.0574412532637276,2.4583689250956553e-11,0.999261558687275,0
317,368.8305555555556,1.125,1.0499999999999545,1.0638888888888687,1.0574412532637276,0.03730372896021647,1.0285270739258388,63.888888888888886,1.045454545437438,0.9869451697127697,6.58626495356196e-12,0.998906833189865,0
318,369.88055555555553,1.0499999999999545,1.1083333333333485,1.0597222222222058,0.9908256880733669,0.035029209933533687,0.9658147268144386,55.55555555555556,0.9090909090760331,1.0458715596330581,1.1135989049296247e-12,0.9974846310557988,0
319,370.9888888888889,1.1083333333333485,1.0722222222222513,1.063888888888897,1.0417754569190663,0.03757799247873158,1.0360889842775838,63.888888888888886,1.045454545437438,1.0078328981723432,3.280068924804702e-11,0.9988530441171068,0
320,372.06111111111113,1.0722222222222513,1.1416666666666515,1.0638888888889255,1.0078328981723164,0.03765755595855514,1.038282684354634,63.888888888888886,1.045454545437438,1.073107049608304,1.8878274499201098e-09,0.9977680714245272,0
321,373.2027777777778,1.1416666666666515,1.0888888888889028,1.0680555555555884,1.0689206762028138,0.036318149666078305,1.0013529812606552,61.111111111111114,0.9999999999836364,1.0195058517555082,2.8923022830917855e-13,0.9984559133875972,0
322,374.2916666666667,1.0888888888889028,1.158333333333303,1.080555555555577,1.0077120822622037,0.03688064260901505,1.016861865675928,63.888888888888886,1.045454545437438,1.0719794344472513,2.586610925447985e-10,0.998893301447469,0
323,375.45,1.158333333333303,1.11388888888888,1.0986111111111256,1.0543615676358624,0.03498448392474563,0.9645815548975983,58.333333333333336,0.9545454545298347,1.0139064475347446,1.0015160867239605e-14,0.9980411060019039,0
324,376.56388888888887,1.11388888888888,1.1055555555555543,1.1111111111111143,1.0024999999999893,0.03705518619603725,1.0216743283930982,61.111111111111114,0.9999999999836364,0.994999999999996,6.1160620838662805e-12,0.9986684414725571,0
325,377.6694444444444,1.1055555555555543,1.13611111111112,1.1069444444444514,0.9987452948557015,0.03821962049950406,1.05377975700054,63.888888888888886,1.045454545437438,1.0263488080301144,4.4335779492143956e-10,0.9981242559714659,0
326,378.80555555555554,1.13611111111112,1.11388888888888,1.1111111111111143,1.022500000000005,0.04025037674929891,1.1097711509355979,61.111111111111114,0.9999999999836364,1.0024999999999893,1.9890460112303998e-10,0.9970235089450566,0
327,379.9194444444444,1.11388888888888,1.1222222222222626,1.1111111111111143,1.0024999999999893,0.041663334509909986,1.1487287927480823,66.66666666666667,1.0909090908912398,1.0100000000000335,6.050079264241504e-07,0.9956226604302463,0
328,381.0416666666667,1.1222222222222626,1.0694444444444002,1.11388888888888,1.007481296758149,0.037030419483411806,1.0209914681220893,61.111111111111114,0.9999999999836364,0.9600997506234094,2.2724782125504994e-12,0.9985049720648251,0
329,382.1111111111111,1.0694444444444002,1.0944444444444912,1.11388888888888,0.9600997506234094,0.03460948504024604,0.9542421996601861,55.55555555555556,0.9090909090760331,0.9825436408978053,2.1609932810209842e-13,0.9977616976545429,0
330,383.2055555555556,1.0944444444444912,1.1055555555555543,1.11388888888888,0.9825436408978053,0.03709637812758179,1.0228100598065997,61.111111111111114,0.9999999999836364,0.9925187032419021,1.7503812635433214e-11,0.999088191004351,0
331,384.31111111111113,1.1055555555555543,1.10277777777776,1.1097222222222172,0.996245306633295,0.034900446319170886,0.9622644955855465,58.333333333333336,0.9545454545298347,0.9937421777221412,1.3323475894604087e-13,0.9989812408536896,0
332,385.4138888888889,1.10277777777776,1.0972222222222285,1.1097222222222172,0.9937421777221412,0.03874335040375638,1.0682198786978259,66.66666666666667,1.0909090908912398,0.9887359198998851,6.568699362219377e-09,0.9977788037721682,0
333,386.5111111111111,1.0972222222222285,1.0666666666666629,1.1055555555555543,0.9924623115577957,0.035351513565503534,0.9747011845693496,61.111111111111114,0.9999999999836364,0.9648241206030127,8.924087597367292e-13,0.9996183649832464,0
334,387.5777777777778,1.0666666666666629,1.033333333333303,1.1041666666666572,0.9660377358490615,0.034391319011747176,0.9482269922485822,55.55555555555556,0.9090909090760331,0.9358490566037542,7.821539504395889e-14,0.9977101075214541,0
335,388.6111111111111,1.033333333333303,1.1083333333333485,1.0999999999999943,0.9393939393939167,0.033509932393355236,0.9239256683627357,55.55555555555556,0.9090909090760331,1.0075757575757767,4.718099283658461e-13,0.9981417367608325,0
336,389.71944444444443,1.1083333333333485,1.11388888888888,1.0999999999999943,1.0075757575757767,0.03725053744220351,1.0270604935623076,61.111111111111114,0.9999999999836364,1.0126262626262599,8.333287185302574e-12,0.9993776425786196,0
337,390.8333333333333,1.11388888888888,1.1222222222222626,1.0999999999999943,1.0126262626262599,0.03510744843890227,0.9679718950986307,61.111111111111114,0.9999999999836364,1.0202020202020623,8.54826355100452e-13,0.9985793542141177,0
338,391.9555555555556,1.1222222222222626,1.1083333333332916,1.0999999999999943,1.0202020202020623,0.0370398670416475,1.0212519533255464,61.111111111111114,0.9999999999836364,1.007575757575725,3.6986707099839755e-12,0.998527474921912,0
339,393.06388888888887,1.1083333333332916,1.0944444444444912,1.1041666666666572,1.0037735849056313,0.03391009907793755,0.9349589425325914,55.55555555555556,0.9090909090760331,0.99119496855351,8.982842003872268e-15,0.9977350040943742,0
340,394.15833333333336,1.0944444444444912,1.1166666666666174,1.1041666666666572,0.99119496855351,0.03746862005037481,1.0330734009340012,61.111111111111114,0.9999999999836364,1.0113207547169452,2.6052713805735372e-11,0.9994070581358524,0
341,395.275,1.1166666666666174,1.0722222222222513,1.1055555555555259,1.010050251256264,0.03539529201066425,0.9759082305499323,61.111111111111114,0.9999999999836364,0.969849246231208,6.619510170037535e-13,0.9977732270829511,0
342,396.34722222222223,1.0722222222222513,1.1444444444444457,1.10277777777776,0.9722921914358102,0.03534983480210561,0.9746548982153146,58.333333333333336,0.9545454545298347,1.0377833753148793,2.952872972181164e-12,0.9990288955500497,0
343,397.4916666666667,1.1444444444444457,1.0944444444444343,1.10833333333332,1.0325814536340987,0.037026485932544685,1.0208830134534472,63.888888888888886,1.045454545437438,0.9874686716792007,4.0474464058082305e-12,0.9988621862721447,0
344,398.5861111111111,1.0944444444444343,1.1611111111110972,1.10833333333332,0.9874686716792007,0.03449318348048537,0.9510355684121083,55.55555555555556,0.9090909090760331,1.0476190476190477,1.0769962260339869e-13,0.9981923575082561,0
345,399.7472222222222,1.1611111111110972,1.1222222222222626,1.1111111111111143,1.0449999999999846,0.03539061378847403,0.9757792440299623,61.111111111111114,0.9999999999836364,1.0100000000000335,1.0315495880446404e-13,0.997885857257885,0
346,400.86944444444447,1.1222222222222626,1.1944444444444002,1.1152777777777487,1.006226650062329,0.03577964194768568,0.9865054101645984,61.111111111111114,0.9999999999836364,1.0709838107098264,3.364718009421508e-12,0.9994924136743906,0
347,402.06388888888887,1.1944444444444002,1.1333333333333258,1.11944444444444,1.0669975186103866,0.038449813936904116,1.0601265804738316,63.888888888888886,1.045454545437438,1.012406947890816,2.3475902211772537e-12,0.9986523546973198,0
348,403.1972222222222,1.1333333333333258,1.150000000000034,1.11944444444444,1.012406947890816,0.03668101698358378,1.0113578486211072,58.333333333333336,0.9545454545298347,1.027295285359836,6.691690387569671e-13,0.9981313282437665,0
349,404.34722222222223,1.150000000000034,1.10277777777776,1.1277777777777942,1.0197044334975522,0.03936106155777141,1.0852512228416782,61.111111111111114,0.9999999999836364,0.977832512315241,1.3976994041320356e-11,0.9985540506901215,0
350,405.45,1.10277777777776,1.1861111111111313,1.1277777777777942,0.977832512315241,0.036940879652114525,1.0185227031151856,58.333333333333336,0.9545454545298347,1.0517241379310371,1.4292628712497812e-11,0.9973606930569398,0
351,406.6361111111111,1.1861111111111313,1.1277777777777942,1.1388888888888857,1.041463414634167,0.03881000135054854,1.070057558339763,61.111111111111114,0.9999999999836364,0.9902439024390416,1.2394690308836775e-12,0.9987139619333718,0
352,407.7638888888889,1.1277777777777942,1.1749999999999545,1.1388888888888857,0.9902439024390416,0.039011440976268984,1.07561159045907,61.111111111111114,0.9999999999836364,1.0317073170731337,1.2045893449386114e-10,0.9981785519199006,0
353,408.93888888888887,1.1749999999999545,1.1000000000000227,1.14166666666668,1.029197080291919,0.03553025775798328,0.9796294651031402,55.55555555555556,0.9090909090760331,0.9635036496350452,2.4995124886680303e-15,0.9972330888327229,0
354,410.0388888888889,1.1000000000000227,1.1416666666666515,1.14166666666668,0.9635036496350452,0.037200850692794496,1.0256905456132155,61.111111111111114,0.9999999999836364,0.9999999999999751,3.127727243867895e-11,0.9990537718192571,0
355,411.18055555555554,1.1416666666666515,1.080555555555577,1.1374999999999886,1.0036630036630003,0.037571068641273554,1.035898082336155,61.111111111111114,0.9999999999836364,0.9499389499389783,1.7421668491515718e-12,0.9988069828909607,0
356,412.2611111111111,1.080555555555577,1.1305555555555316,1.1374999999999886,0.9499389499389783,0.03656484588840418,1.0081548145027954,61.111111111111114,0.9999999999836364,0.9938949938949827,4.434294598176791e-11,0.9989486975351352,0
357,413.39166666666665,1.1305555555555316,1.0777777777777828,1.1319444444444287,0.998773006134962,0.0349679963857505,0.9641269654849156,58.333333333333336,0.9545454545298347,0.9521472392638214,6.351290885364333e-14,0.9969753827318606,0
358,414.46944444444443,1.0777777777777828,1.1222222222222058,1.1291666666666629,0.9544895448954567,0.035129883244399904,0.9685904607352508,55.55555555555556,0.9090909090760331,0.9938499384993738,3.465887245170801e-13,0.9981930931139464,0
359,415.59166666666664,1.1222222222222058,1.1000000000000227,1.125,0.9975308641975162,0.03710277048658317,1.0229863079856003,61.111111111111114,0.9999999999836364,0.977777777777798,4.677752109272237e-12,0.9983173156678666,0
360,416.69166666666666,1.1000000000000227,1.125,1.125,0.977777777777798,0.037166733485601317,1.0247498763486937,63.888888888888886,1.045454545437438,1.0,2.3798635284677516e-10,0.9976559133817751,0
361,417.81666666666666,1.125,1.194444444444457,1.123611111111103,1.001236093943147,0.037092051575939776,1.0226907694400709,61.111111111111114,0.9999999999836364,1.0630407911001427,1.6817847461880753e-11,0.9987675037228998,0
362,419.0111111111111,1.194444444444457,1.1194444444444116,1.123611111111103,1.0630407911001427,0.035905335477311,0.9899709939504663,61.111111111111114,0.9999999999836364,0.9962917181705591,1.8792508442943244e-14,0.9989857855321727,0
363,420.13055555555553,1.1194444444444116,1.1166666666666742,1.1208333333333087,0.9987608426270063,0.03522679530793236,0.9712624906880593,55.55555555555556,0.9090909090760331,0.9962825278810695,4.310403284844312e-14,0.9972836528617227,0
364,421.2472222222222,1.1166666666666742,1.1000000000000227,1.1208333333333087,0.9962825278810695,0.03610031166462965,0.9953468181111539,61.111111111111114,0.9999999999836364,0.9814126394052464,1.963053200895737e-12,0.9984540923536538,0
365,422.34722222222223,1.1000000000000227,1.1055555555555543,1.118055555555543,0.9838509316770501,0.03607840419907382,0.994742792131089,58.333333333333336,0.9545454545298347,0.9888198757764075,8.081671725064521e-13,0.9990160531459249,0
366,423.4527777777778,1.1055555555555543,1.055555555555543,1.118055555555543,0.9888198757764075,0.03874572515649403,1.0682853546583433,63.888888888888886,1.045454545437438,0.9440993788819869,4.6108952767021094e-10,0.9980352095762391,0
367,424.5083333333333,1.055555555555543,1.0666666666666629,1.1111111111111143,0.949999999999986,0.037415371983096087,1.0316052614113063,61.111111111111114,0.9999999999836364,0.9599999999999939,1.9172191612071288e-10,0.9989054835223208,0
368,425.575,1.0666666666666629,1.0777777777777828,1.1111111111111143,0.9599999999999939,0.035264124064464976,0.9722917078146026,55.55555555555556,0.9090909090760331,0.9700000000000017,6.827629824360248e-13,0.9965996938897133,0
369,426.65277777777777,1.0777777777777828,1.091666666666697,1.1027777777777885,0.9773299748110782,0.03611682432344317,0.9958021001198322,58.333333333333336,0.9545454545298347,0.9899244332493882,3.7314357333173565e-12,0.9976631078852225,0
370,427.74444444444447,1.091666666666697,1.0666666666666629,1.1027777777777885,0.9899244332493882,0.03883009348144898,1.070611532464602,66.66666666666667,1.0909090908912398,0.9672544080604405,1.3679799515387003e-08,0.9972218866763571,0
371,428.81111111111113,1.0666666666666629,1.10277777777776,1.0958333333333599,0.973384030418224,0.03679449337220279,1.014486585109367,61.111111111111114,0.9999999999836364,1.0063371356146618,7.582180716614317e-11,0.9983803073994312,0
372,429.9138888888889,1.10277777777776,1.0749999999999886,1.0958333333333599,1.0063371356146618,0.03747670842830728,1.0332964112313514,61.111111111111114,0.9999999999836364,0.9809885931558594,7.443597821454873e-12,0.9995491840353463,0
373,430.9888888888889,1.0749999999999886,1.1277777777777942,1.08472222222224,0.9910371318821757,0.034815615504721134,0.9599255661595419,55.55555555555556,0.9090909090760331,1.0396927016645308,2.385499838029187e-13,0.9982016002910832,0
374,432.1166666666667,1.1277777777777942,1.099999999999966,1.08472222222224,1.0396927016645308,0.03550142209219103,0.9788344168924469,55.55555555555556,0.9090909090760331,1.0140845070422055,1.2511945486301003e-14,0.9986642153250483,0
375,433.21666666666664,1.099999999999966,1.1416666666667084,1.08472222222224,1.0140845070422055,0.038286776694604466,1.055631367195228,66.66666666666667,1.0909090908912398,1.0524967989756935,5.813343584293307e-09,0.9973867236224045,0
376,434.35833333333335,1.1416666666667084,1.13611111111112,1.08472222222224,1.0524967989756935,0.03508353024150622,0.9673124298315638,55.55555555555556,0.9090909090760331,1.0473751600512076,6.286458729471605e-15,0.9988350255312661,0
377,435.49444444444447,1.13611111111112,1.10277777777776,1.0958333333333314,1.0367553865652823,0.036036985728515096,0.9936008146527602,61.111111111111114,0.9999999999836364,1.0063371356146877,6.565491965197789e-13,0.9976546953538532,0
378,436.59722222222223,1.10277777777776,1.0944444444444343,1.101388888888863,1.0012610340479269,0.03397535916622612,0.936758273846712,55.55555555555556,0.9090909090760331,0.9936948297604177,2.0342350037522855e-14,0.9965750736714489,0
379,437.69166666666666,1.0944444444444343,1.1416666666666515,1.101388888888863,0.9936948297604177,0.03887161346739438,1.0717563088943098,61.111111111111114,0.9999999999836364,1.03656998738967,2.61380861399374e-10,0.9989734012419711,0
380,438.8333333333333,1.1416666666666515,1.1305555555555884,1.10277777777776,1.035264483627207,0.038028577922421154,1.0485123891453885,61.111111111111114,0.9999999999836364,1.0251889168766206,8.270613360839008e-12,0.9974662081864846,0
381,439.9638888888889,1.1305555555555884,1.13611111111112,1.1152777777777771,1.0136986301370163,0.03669465419807872,1.0117338497532176,61.111111111111114,0.9999999999836364,1.018679950186808,2.126550021144813e-12,0.9991504716187625,0
382,441.1,1.13611111111112,1.1055555555555543,1.1291666666666913,1.006150061500601,0.035151825608071605,0.9691954489155568,55.55555555555556,0.9090909090760331,0.9790897908978865,7.524997504726894e-15,0.9988692382701203,0
383,442.2055555555556,1.1055555555555543,1.1083333333332916,1.1291666666666913,0.9790897908978865,0.035892511756880824,0.9896174222293936,58.333333333333336,0.9545454545298347,0.9815498154980966,5.081146549519577e-13,0.9991840559196797,0
384,443.31388888888887,1.1083333333332916,1.1333333333333258,1.11944444444444,0.9900744416873116,0.035476067479768864,0.9781353472269744,58.333333333333336,0.9545454545298347,1.012406947890816,5.597583486137425e-13,0.9979213866540937,0
385,444.4472222222222,1.1333333333333258,0.9611111111111654,1.131944444444457,1.001226993865013,0.0377105767227396,1.039744556745518,63.888888888888886,1.045454545437438,0.8490797546012655,1.0927521908177251e-11,0.9984550891461802,0
386,445.40833333333336,0.9611111111111654,1.2999999999999545,1.11944444444444,0.858560794044717,0.035588006421888634,0.9812216937077669,61.111111111111114,0.9999999999836364,1.161290322580609,5.434636136669724e-07,0.9994071628997048,0
387,446.7083333333333,1.2999999999999545,1.1694444444444798,1.11944444444444,1.161290322580609,0.03509098043562931,0.9675178443189405,55.55555555555556,0.9090909090760331,1.0446650124069836,1.3459839500480707e-18,0.9986989721679986,0
388,447.8777777777778,1.1694444444444798,1.158333333333303,1.131944444444457,1.033128834355848,0.035184573909489536,0.9700983751262139,58.333333333333336,0.9545454545298347,1.0233128834355447,1.719170765219092e-14,0.9982612194318832,0
389,449.0361111111111,1.158333333333303,1.1583333333333599,1.1347222222222229,1.0208078335373043,0.03571584688563567,0.9847464721085346,58.333333333333336,0.9545454545298347,1.0208078335373545,4.15813420479548e-14,0.9992056559891741,0
390,450.19444444444446,1.1583333333333599,1.1444444444444457,1.1347222222222229,1.0208078335373545,0.03506224597503324,0.9667255865071482,61.111111111111114,0.9999999999836364,1.008567931456549,1.2900262997585232e-13,0.9982700309869035,0
391,451.3388888888889,1.1444444444444457,1.13611111111112,1.1402777777777828,1.0036540803897653,0.03536233690710777,0.9749996024535826,61.111111111111114,0.9999999999836364,0.9963459196102348,3.3021803065406974e-13,0.9986747014633572,0
392,452.475,1.13611111111112,1.1305555555555316,1.1402777777777828,0.9963459196102348,0.034528759077172996,0.9520164479483958,58.333333333333336,0.9545454545298347,0.9914738124238479,3.4705423349610035e-14,0.9986196340376832,0
393,453.60555555555555,1.1305555555555316,1.1055555555555543,1.1402777777777828,0.9914738124238479,0.03572284799493791,0.9849395045657602,61.111111111111114,0.9999999999836364,0.9695493300852565,5.623523023114141e-13,0.9992290452186563,0
394,454.7111111111111,1.1055555555555543,1.14722222222224,1.1402777777777828,0.9695493300852565,0.03568397873728387,0.9838678132106354,61.111111111111114,0.9999999999836364,1.0060901339829587,4.8690769298420644e-12,0.9989433913359727,0
395,455.85833333333335,1.14722222222224,1.0944444444444343,1.1458333333333428,1.0012121212121283,0.03635190449403769,1.002283659115112,61.111111111111114,0.9999999999836364,0.9551515151514984,5.488332227923665e-13,0.9982243736027212,0
396,456.9527777777778,1.0944444444444343,1.169444444444423,1.1458333333333428,0.9551515151514984,0.035519716033216804,0.9793388118727416,58.333333333333336,0.9545454545298347,1.0206060606060334,2.4970004362800946e-12,0.9983863304523314,0
397,458.1222222222222,1.169444444444423,1.1166666666666742,1.1458333333333428,1.0206060606060334,0.034463088939512124,0.9502058108776441,55.55555555555556,0.9090909090760331,0.974545454545453,8.36108339817088e-16,0.9982298435305718,0
398,459.2388888888889,1.1166666666666742,1.1777777777778056,1.1402777777777828,0.9792935444579803,0.03652083379043435,1.0069413263179943,63.888888888888886,1.045454545437438,1.0328867235079369,6.229940868740513e-11,0.9989485431132259,0
399,460.4166666666667,1.1777777777778056,1.1916666666666629,1.1402777777777828,1.0328867235079369,0.03566224086787173,0.9832684632838843,58.333333333333336,0.9545454545298347,1.0450669914738044,2.9613190019725164e-14,0.9987082951162194,0
400,461.60833333333335,1.1916666666666629,1.1833333333333371,1.1402777777777828,1.0450669914738044,0.03438692506273227,0.9481058436221781,58.333333333333336,0.9545454545298347,1.037758830694274,2.666692016742322e-15,0.9988430678573033,0
401,462.7916666666667,1.1833333333333371,1.1749999999999545,1.14166666666668,1.0364963503649547,0.03459027664811161,0.953712591711932,58.333333333333336,0.9545454545298347,1.029197080291919,4.4878994624579244e-15,0.9989349686509235,0
402,463.96666666666664,1.1749999999999545,1.1916666666667197,1.1583333333333314,1.0143884892085955,0.03628496091501147,1.0004379111061825,61.111111111111114,0.9999999999836364,1.0287769784173137,3.926218887766869e-13,0.9990185295175936,0
403,465.15833333333336,1.1916666666667197,1.1166666666666174,1.1722222222221887,1.0165876777251928,0.03697958177322684,1.0195897862323942,61.111111111111114,0.9999999999836364,0.9526066350710752,1.5227356593532082e-13,0.9981729486987302,0
404,466.275,1.1166666666666174,1.1833333333333371,1.1722222222221887,0.9526066350710752,0.035107750251717855,0.9679802165898258,58.333333333333336,0.9545454545298347,1.009478672985814,9.057120830234522e-13,0.9975330201627737,0
405,467.4583333333333,1.1833333333333371,1.1305555555555884,1.17638888888888,1.0059031877213804,0.03388043188426387,0.93414096768795,55.55555555555556,0.9090909090760331,0.9610389610389962,5.805134480655835e-16,0.9967718661708294,0
406,468.5888888888889,1.1305555555555884,1.2194444444444343,1.17638888888888,0.9610389610389962,0.037602757902575015,1.036771809014687,63.888888888888886,1.045454545437438,1.0365997638724904,2.6200677738508205e-10,0.998800264079459,0
407,469.80833333333334,1.2194444444444343,1.1194444444444684,1.1805555555555713,1.0329411764705658,0.039426414843339745,1.087053123762863,63.888888888888886,1.045454545437438,0.9482352941176547,8.291557544726214e-12,0.9963446046639669,0
408,470.9277777777778,1.1194444444444684,1.1861111111110745,1.1805555555555713,0.9482352941176547,0.03471643566393718,0.9571910097417977,52.77777777777778,0.8636363636222314,1.0047058823528967,2.8524827221402746e-14,0.9962814796950281,0
409,472.1138888888889,1.1861111111110745,1.1277777777777942,1.1833333333333371,1.0023474178403413,0.03574311273485298,0.9854982378138742,58.333333333333336,0.9545454545298347,0.9530516431924991,1.446097338013083e-14,0.9979011250958068,0
410,473.2416666666667,1.1277777777777942,1.169444444444423,1.1791666666666458,0.9564193168433759,0.0361071308739839,0.9955348352783141,58.333333333333336,0.9545454545298347,0.9917550058892808,7.791303409734884e-13,0.9988271020031234,0
411,474.4111111111111,1.169444444444423,1.1166666666666742,1.1722222222221887,0.9976303317535646,0.036765680552938385,1.0136921668161938,61.111111111111114,0.9999999999836364,0.9526066350711238,4.977568379173347e-13,0.9978349146422978,0
412,475.52777777777777,1.1166666666666742,1.1777777777778056,1.1500000000000057,0.971014492753625,0.034950752098550725,0.9636515112407986,58.333333333333336,0.9545454545298347,1.0241545893719999,4.2953043465771e-13,0.9984325475729628,0
413,476.7055555555556,1.1777777777778056,1.125,1.1500000000000057,1.0241545893719999,0.03821891713085953,1.0537603639341089,61.111111111111114,0.9999999999836364,0.9782608695652125,1.044271331733515e-12,0.9987066106398423,0
414,477.8305555555556,1.125,1.1444444444444457,1.1500000000000057,0.9782608695652125,0.03484955559244215,0.9608613519398244,55.55555555555556,0.9090909090760331,0.9951690821256001,2.934912919248453e-14,0.9978841956285609,0
415,478.975,1.1444444444444457,1.1111111111110858,1.137500000000017,1.006105006104992,0.0373218127316718,1.0290256741746326,61.111111111111114,0.9999999999836364,0.9768009768009399,1.8118950350504148e-12,0.9987652916940504,0
416,480.0861111111111,1.1111111111110858,1.13611111111112,1.13611111111112,0.9779951100244201,0.03531910078158278,0.9738075091451217,58.333333333333336,0.9545454545298347,1.0,3.750599548817124e-13,0.9986216378532988,0
417,481.22222222222223,1.13611111111112,1.0972222222222285,1.131944444444457,1.0036809815950887,0.03516495914493373,0.9695575628011016,58.333333333333336,0.9545454545298347,0.9693251533742279,6.399567019973323e-14,0.9974375275235832,0
418,482.31944444444446,1.0972222222222285,1.099999999999966,1.131944444444457,0.9693251533742279,0.03430601224440464,0.9458749399941155,55.55555555555556,0.9090909090760331,0.9717791411042535,2.683152535061257e-14,0.9987263724269304,0
419,483.4194444444444,1.099999999999966,1.0972222222222285,1.126388888888897,0.9765721331688898,0.03973825837838869,1.0956511789055174,66.66666666666667,1.0909090908912398,0.9741060419235497,6.92863579843106e-08,0.9967664605471572,0
420,484.51666666666665,1.0972222222222285,1.091666666666697,1.1208333333333371,0.978934324659234,0.03547294334280919,0.9780492094725128,58.333333333333336,0.9545454545298347,0.97397769516731,3.934037069632662e-13,0.9990568196079883,0
421,485.60833333333335,1.091666666666697,1.1083333333332916,1.11388888888888,0.9800498753117557,0.037682545028851454,1.0389716754037435,61.111111111111114,0.9999999999836364,0.9950124688279006,5.3129486921044133e-11,0.9985646331833314,0
422,486.71666666666664,1.1083333333332916,1.0666666666667197,1.1097222222221887,0.998748435544423,0.03495183509706661,0.9636813713466288,55.55555555555556,0.9090909090760331,0.9612015018774235,1.9289305124969153e-14,0.9981358780535035,0
423,487.78333333333336,1.0666666666667197,1.0944444444444343,1.1041666666666288,0.9660377358491378,0.0353399415443991,0.9743821243215486,55.55555555555556,0.9090909090760331,0.991194968553484,7.355077918241859e-13,0.9970809045101313,0
424,488.8777777777778,1.0944444444444343,1.0583333333333371,1.0986111111110972,0.9962073324905217,0.038250629000987475,1.0546347139763312,63.888888888888886,1.045454545437438,0.9633375474083595,5.557665438971071e-10,0.9970822726037923,0
425,489.93611111111113,1.0583333333333371,1.0805555555555202,1.0972222222222285,0.9645569620253144,0.03724172476800539,1.0268175131885193,58.333333333333336,0.9545454545298347,0.9848101265822405,2.5652667490216885e-11,0.9985303085762469,0
426,491.01666666666665,1.0805555555555202,1.0722222222222513,1.0958333333333314,0.9860583016476246,0.037621778328244246,1.0372962344087073,63.888888888888886,1.045454545437438,0.9784537389100408,4.2668299449211133e-10,0.998062027111348,0
427,492.0888888888889,1.0722222222222513,1.11388888888888,1.0930555555555657,0.9809402795425842,0.034755580091105596,0.9582702879871166,58.333333333333336,0.9545454545298347,1.0190597204574159,1.39762940803978e-12,0.9976140753157591,0
428,493.2027777777778,1.11388888888888,1.1222222222222058,1.0930555555555657,1.0190597204574159,0.037854207724871435,1.04370470707004,58.333333333333336,0.9545454545298347,1.026683608640382,5.32518170184848e-12,0.9976824610103004,0
429,494.325,1.1222222222222058,1.1611111111110972,1.0930555555555657,1.026683608640382,0.03680197849083605,1.0146929625247205,55.55555555555556,0.9090909090760331,1.0622617534942596,5.615752004042851e-13,0.9967971258505071,0
430,495.4861111111111,1.1611111111110972,1.172222222222274,1.0930555555555657,1.0622617534942596,0.0366468141605952,1.0104148187839035,61.111111111111114,0.9999999999836364,1.072426937738284,8.936453465245575e-13,0.9980877169222202,0
431,496.65833333333336,1.172222222222274,1.136111111111063,1.101388888888863,1.064312736443956,0.03684815562226,1.0159661443537118,63.888888888888886,1.045454545437438,1.031525851197963,1.5668655609091253e-12,0.9983106995397271,0
432,497.7944444444444,1.136111111111063,1.1555555555555657,1.1041666666666572,1.0289308176100282,0.03340720649742707,0.921093341190616,52.77777777777778,0.8636363636222314,1.0465408805031629,9.164341682711078e-16,0.9961604139130551,0
433,498.95,1.1555555555555657,1.1555555555555657,1.118055555555543,1.033540372670828,0.0355315493165179,0.9796650755624009,58.333333333333336,0.9545454545298347,1.033540372670828,4.7267525044849754e-14,0.9983716326608111,0
434,500.10555555555555,1.1555555555555657,1.1833333333333371,1.1291666666666345,1.0233702337023751,0.03823918068078102,1.054319064372082,66.66666666666667,1.0909090908912398,1.0479704797048304,6.082830905640435e-10,0.9970491083964959,0
435,501.2888888888889,1.1833333333333371,1.1999999999999886,1.1458333333333144,1.0327272727272931,0.0357111048161986,0.9846157252116851,58.333333333333336,0.9545454545298347,1.0472727272727347,2.8356660688186666e-14,0.9986125460768654,0
436,502.4888888888889,1.1999999999999886,1.1777777777778056,1.1555555555555657,1.0384615384615195,0.03496614256754273,0.964075852572883,58.333333333333336,0.9545454545298347,1.0192307692307843,4.0330220174751574e-15,0.9981255368916981,0
437,503.6666666666667,1.1777777777778056,1.1499999999999773,1.1583333333333314,1.016786570743431,0.03447739002234681,0.9506001159857906,55.55555555555556,0.9090909090760331,0.9928057553956654,8.258947106599772e-16,0.9985635040561611,0
438,504.81666666666666,1.1499999999999773,1.2138888888889028,1.1583333333333314,0.9928057553956654,0.03660217054255745,1.0091839185197824,61.111111111111114,0.9999999999836364,1.0479616306954573,3.352968727318717e-12,0.9991817956383081,0
439,506.03055555555557,1.2138888888889028,1.158333333333303,1.1666666666666856,1.0404761904761854,0.03477747641581101,0.9588740067950409,58.333333333333336,0.9545454545298347,0.9928571428571007,7.731676508472259e-16,0.9992323944433585,0
440,507.18888888888887,1.158333333333303,1.227777777777817,1.1652777777777885,0.9940405244338146,0.03686469592167734,1.0164221884607156,63.888888888888886,1.045454545437438,1.0536352800953754,3.8937592733434556e-11,0.9976541101470144,0
441,508.4166666666667,1.227777777777817,1.1916666666666629,1.1680555555555543,1.0511296076100227,0.03658680353277823,1.008760223997981,61.111111111111114,0.9999999999836364,1.0202140309155745,2.6893980477945417e-14,0.9990689852166872,0
442,509.60833333333335,1.1916666666666629,1.213888888888846,1.1805555555555713,1.0094117647058656,0.034518659828767034,0.9517379945416892,55.55555555555556,0.9090909090760331,1.028235294117597,1.5799627214586843e-15,0.9981776376391429,0
443,510.8222222222222,1.213888888888846,1.1861111111111313,1.1875,1.022222222222186,0.035434014620109686,0.9769758785652329,61.111111111111114,0.9999999999836364,0.9988304093567422,1.646600878649901e-14,0.9993100860414759,0
444,512.0083333333333,1.1861111111111313,1.22777777777776,1.188888888888897,0.9976635514018792,0.03392900596535862,0.9354802374845511,52.77777777777778,0.8636363636222314,1.0327102803738097,6.010741140689976e-16,0.9961398170340022,0
445,513.2361111111111,1.22777777777776,1.2000000000000455,1.1958333333333258,1.0267131242740917,0.03435115840682312,0.94711969625912,55.55555555555556,0.9090909090760331,1.0034843205575357,1.442022108979121e-16,0.9981797558969293,0
446,514.4361111111111,1.2000000000000455,1.2250000000000227,1.1958333333333542,1.003484320557512,0.031985755661977984,0.8819015309007366,50.0,0.8181818181684297,1.0243902439024402,7.902288829471201e-18,0.9934531084169943,0
447,515.6611111111112,1.2250000000000227,1.191666666666606,1.2069444444444457,1.014959723820501,0.03387138811577399,0.9338916156526056,55.55555555555556,0.9090909090760331,0.9873417721518475,1.2178717801472155e-16,0.9975879945272867,0
448,516.8527777777778,1.191666666666606,1.1888888888888687,1.2069444444444457,0.9873417721518475,0.03584489643912562,0.98830458716411,58.333333333333336,0.9545454545298347,0.985040276179499,2.5840661126716805e-14,0.9987424404249687,0
449,518.0416666666666,1.1888888888888687,1.1555555555555657,1.1958333333333542,0.9941927990708136,0.03492205093839927,0.9628601715787415,55.55555555555556,0.9090909090760331,0.9663182346109092,9.826392163405696e-16,0.9990418272695356,0
450,519.1972222222222,1.1555555555555657,1.1527777777778283,1.1958333333333542,0.9663182346109092,0.03617559723072539,0.9974225688514585,61.111111111111114,0.9999999999836364,0.9639953542392822,1.083352700083362e-12,0.9982089384399537,0
451,520.35,1.1527777777778283,1.1611111111110404,1.1916666666666345,0.9673659673660359,0.03651446121084026,1.006765623490798,58.333333333333336,0.9545454545298347,0.9743589743589414,2.8520434169725106e-13,0.9987972402932404,0
452,521.5111111111111,1.1611111111110404,1.216666666666697,1.1902777777777374,0.9754959159859714,0.03520371442431992,0.9706261115820765,58.333333333333336,0.9545454545298347,1.0221703617270146,9.645296985150847e-14,0.9987952397567068,0
453,522.7277777777778,1.216666666666697,1.161111111111154,1.1902777777777374,1.0221703617270146,0.03561596080142201,0.9819924433616564,58.333333333333336,0.9545454545298347,0.9754959159860669,4.247890982787524e-15,0.9975865446654837,0
454,523.8888888888889,1.161111111111154,1.25,1.1902777777777374,0.9754959159860669,0.03815152357585838,1.0519022093243993,66.66666666666667,1.0909090908912398,1.0501750291715644,2.3290491757421705e-09,0.9967399247409402,0
455,525.1388888888889,1.25,1.191666666666606,1.1902777777777374,1.0501750291715644,0.03633741933253199,1.0018842786458113,63.888888888888886,1.045454545437438,1.001166861143507,5.295317610505383e-14,0.9982332997925216,0
456,526.3305555555555,1.191666666666606,1.1388888888889142,1.1902777777777374,1.001166861143507,0.036957934108917075,1.018992923413302,61.111111111111114,0.9999999999836364,0.9568261376896686,2.1369741371422835e-13,0.9985557658352767,0
457,527.4694444444444,1.1388888888889142,1.1888888888888687,1.1750000000000114,0.9692671394799176,0.0364014712123575,1.003650297603504,61.111111111111114,0.9999999999836364,1.0118203309692402,3.474632474104178e-12,0.9992464381212672,0
458,528.6583333333333,1.1888888888888687,1.113888888888937,1.1750000000000114,1.0118203309692402,0.03510805402672348,0.9679885921819281,55.55555555555556,0.9090909090760331,0.9479905437352563,8.098648238914264e-16,0.9980803233685676,0
459,529.7722222222222,1.113888888888937,1.125,1.1611111111110972,0.9593301435407227,0.03816640584422973,1.0523125387034724,66.66666666666667,1.0909090908912398,0.968899521531112,5.407625902620339e-09,0.997455320650141,0
460,530.8972222222222,1.125,1.0416666666666288,1.1611111111110972,0.968899521531112,0.035208043932890586,0.9707454834761431,55.55555555555556,0.9090909090760331,0.8971291866028489,1.6495807405583415e-14,0.9972768171344216,0
461,531.9388888888889,1.0416666666666288,1.0805555555555202,1.1611111111110972,0.8971291866028489,0.035578263012326965,0.980953051381494,58.333333333333336,0.9545454545298347,0.9306220095693587,3.3002066357479265e-11,0.9976223031366467,0
462,533.0194444444444,1.0805555555555202,1.1861111111111313,1.150000000000034,0.9396135265699896,0.038160553580760016,1.0521511818742726,61.111111111111114,0.9999999999836364,1.031400966183562,8.812296448112988e-10,0.9986181006553876,0
463,534.2055555555555,1.1861111111111313,1.091666666666697,1.150000000000034,1.031400966183562,0.03791217197629017,1.0453028797880435,61.111111111111114,0.9999999999836364,0.9492753623188388,3.1385644408930824e-13,0.998457335770202,0
464,535.2972222222222,1.091666666666697,1.1416666666666515,1.131944444444457,0.9644171779141264,0.03909606780614212,1.0779448956843427,66.66666666666667,1.0909090908912398,1.00858895705519,1.1194045157481014e-07,0.9961932515021064,0
465,536.4388888888889,1.1416666666666515,1.10277777777776,1.131944444444457,1.00858895705519,0.03742250288601928,1.0318018724987894,61.111111111111114,0.9999999999836364,0.9742331288343293,1.5543816234142582e-12,0.999419973493863,0
466,537.5416666666666,1.10277777777776,1.1055555555556111,1.1194444444444684,0.9851116625309805,0.03634119219143281,1.0019883027644116,61.111111111111114,0.9999999999836364,0.9875930521092097,5.1925555868970186e-12,0.9989147545014292,0
467,538.6472222222222,1.1055555555556111,1.0749999999999318,1.109722222222274,0.9962453066332952,0.03603203516481251,0.9934643192154076,58.333333333333336,0.9545454545298347,0.9687108886106568,4.5414553736557173e-13,0.998150699060911,0
468,539.7222222222222,1.0749999999999318,0.9833333333333485,1.1041666666666856,0.9735849056602989,0.036490199065656294,1.0060966749998888,61.111111111111114,0.9999999999836364,0.8905660377358475,1.3301095468098989e-11,0.9974132420026707,0
469,540.7055555555555,0.9833333333333485,1.0861111111111086,1.0972222222222285,0.8962025316455783,0.03724499262812003,1.0269076136341153,61.111111111111114,0.9999999999836364,0.9898734177215109,2.9436117543468754e-08,0.9986641326623188,0
470,541.7916666666666,1.0861111111111086,1.036111111111154,1.0888888888889028,0.9974489795918217,0.039403071183633134,1.0864094994743,63.888888888888886,1.045454545437438,0.9515306122449253,2.1987913711996043e-09,0.9980137552121642,0
471,542.8277777777778,1.036111111111154,1.0138888888889142,1.0888888888889028,0.9515306122449253,0.03850280884313557,1.0615877399170963,66.66666666666667,1.0909090908912398,0.9311224489796032,1.3799171938444488e-07,0.9979133568166318,0
472,543.8416666666667,1.0138888888889142,1.0638888888888687,1.0888888888889028,0.9311224489796032,0.03757051844659879,1.0358829125358509,61.111111111111114,0.9999999999836364,0.9770408163264995,2.7332267560353785e-09,0.998977288851761,0
473,544.9055555555556,1.0638888888888687,1.011111111111063,1.0805555555555202,0.9845758354755919,0.03679790805131213,1.0145807336036496,61.111111111111114,0.9999999999836364,0.9357326478148962,2.0990757743089006e-11,0.9984424469195661,0
474,545.9166666666666,1.011111111111063,1.0500000000000682,1.0694444444444002,0.9454545454545397,0.03486548645337604,0.9613005927942421,58.333333333333336,0.9545454545298347,0.9818181818182862,2.201369815602039e-11,0.9975904694124553,0
475,546.9666666666667,1.0500000000000682,1.0277777777777146,1.0569444444444684,0.9934296977661392,0.035501702905265976,0.9788421593851774,52.77777777777778,0.8636363636222314,0.9724047306175265,1.3249915487706376e-12,0.9912777220163924,0
476,547.9944444444444,1.0277777777777146,1.0055555555555884,1.0430555555556111,0.9853528628494209,0.035837432908284915,0.9880988049608098,77.77777777777777,1.2727272727064463,0.9640479360851998,0.00036373327020555735,0.9873163748956976,0
477,549.0,1.0055555555555884,1.0638888888888687,1.0319444444444343,0.9744279946164612,0.036535343323269236,1.007341378746174,58.333333333333336,0.9545454545298347,1.0309555854643242,3.3265490362310857e-10,0.9961407562148875,0
478,550.0638888888889,1.0638888888888687,1.0527777777778056,1.0319444444444343,1.0309555854643242,0.03753868764553238,1.0350052833659502,61.111111111111114,0.9999999999836364,1.0201884253028632,2.0373802644968464e-10,0.9951861195375924,0
479,551.1166666666667,1.0527777777778056,1.0083333333333258,1.0430555555556111,1.0093209054593604,0.0396282971756814,1.0926193620545397,61.111111111111114,0.9999999999836364,0.9667110519307002,2.3078253263975057e-07,0.9868343307571146,0
480,552.125,1.0083333333333258,1.069444444444457,1.0319444444444343,0.9771197846567989,0.038603734535128824,1.0643704324136152,61.111111111111114,0.9999999999836364,1.03633916554511,4.848170931381901e-08,0.994765848487243,0
481,553.1944444444445,1.069444444444457,1.0583333333332803,1.0388888888888914,1.029411764705892,0.03589542509379155,0.9896977478689926,58.333333333333336,0.9545454545298347,1.0187165775400535,4.883241814385153e-12,0.9948245339442137,0
482,554.2527777777777,1.0583333333332803,0.9694444444444343,1.051388888888937,1.006605019814963,0.03462193242633836,0.9545853952053075,55.55555555555556,0.9090909090760331,0.9220607661822469,9.898467001568864e-14,0.9955956321661539,0
483,555.2222222222222,0.9694444444444343,1.0055555555555884,1.0388888888888914,0.9331550802138917,0.0364583411506171,1.0052182982517737,61.111111111111114,0.9999999999836364,0.9679144385027031,6.055029366791587e-09,0.9973841155020728,0
484,556.2277777777778,1.0055555555555884,0.9805555555556111,1.0388888888888914,0.9679144385027031,0.03482281319848675,0.9601240187838267,55.55555555555556,0.9090909090760331,0.9438502673797303,3.5701563233514477e-12,0.9952823236051458,0
485,557.2083333333334,0.9805555555556111,1.02222222222224,1.0180555555555202,0.9631650750341945,0.035971681628215055,0.9918002698528396,58.333333333333336,0.9545454545298347,1.0040927694407071,2.832915013684101e-10,0.9971467001745683,0
486,558.2305555555556,1.02222222222224,1.0777777777776691,1.0152777777777828,1.0068399452804502,0.0357615590287766,0.9860068334219506,58.333333333333336,0.9545454545298347,1.0615595075238276,2.192649534160651e-11,0.9983486985718251,0
487,559.3083333333333,1.0777777777776691,1.1027777777778738,1.0375000000000227,1.0388219544844777,0.03749313556880134,1.0337493353549247,58.333333333333336,0.9545454545298347,1.062918340026843,1.853827681641551e-11,0.9972351041163987,0
488,560.4111111111112,1.1027777777778738,1.088888888888846,1.0375000000000227,1.062918340026843,0.03484381986828032,0.9607032082969917,58.333333333333336,0.9545454545298347,1.049531459169949,9.515396012359928e-14,0.9981319391562196,0
489,561.5,1.088888888888846,1.1305555555555884,1.04027777777776,1.0467289719625934,0.03675814157560414,1.0134843044251107,61.111111111111114,0.9999999999836364,1.0867823765020528,4.450707510872398e-11,0.9965898011370695,0
490,562.6305555555556,1.1305555555555884,1.1055555555554974,1.0638888888888687,1.0626631853786412,0.03400889154642433,0.9376828184391256,58.333333333333336,0.9545454545298347,1.039164490861584,2.2533426066360072e-14,0.99639619855506,0
491,563.7361111111111,1.1055555555554974,1.1111111111110858,1.0680555555554747,1.035110533159972,0.034453190265935275,0.9499328876591476,58.333333333333336,0.9545454545298347,1.0403120936281436,6.655905617240429e-14,0.9990262235058531,0
492,564.8472222222222,1.1111111111110858,1.127777777777851,1.0833333333332575,1.0256410256410742,0.03432151218582499,0.9463022996667129,55.55555555555556,0.9090909090760331,1.0410256410257814,4.312130215617174e-14,0.9956871767304036,0
493,565.975,1.127777777777851,1.122222222222149,1.0958333333333599,1.0291508238276719,0.03534116373847521,0.9744158222850475,58.333333333333336,0.9545454545298347,1.0240811153357765,1.0366977187727805e-13,0.9980590113058536,0
494,567.0972222222222,1.122222222222149,1.1388888888889142,1.1041666666666856,1.016352201257778,0.033827072938152736,0.9326697710477968,55.55555555555556,0.9090909090760331,1.0314465408805082,1.5129841417259662e-14,0.9959787201119593,0
495,568.2361111111111,1.1388888888889142,1.1305555555555884,1.1083333333332916,1.0275689223058257,0.03605092624137294,0.9939851782351247,58.333333333333336,0.9545454545298347,1.0200501253133512,1.651987195042809e-13,0.9979201441064489,0
496,569.3666666666667,1.1305555555555884,1.136111111111063,1.1166666666666174,1.0124378109453478,0.034561566419791946,0.9529210020250979,58.333333333333336,0.9545454545298347,1.017412935323385,7.944559859149672e-14,0.9970795095637941,0
497,570.5027777777777,1.136111111111063,1.150000000000091,1.125,1.0098765432098338,0.036489632835043515,1.0060810630615769,58.333333333333336,0.9545454545298347,1.022222222222303,6.771900748492321e-13,0.9971602311393994,0
498,571.6527777777778,1.150000000000091,1.1305555555554747,1.1291666666667197,1.0184501845018776,0.03715343073599078,1.0243830969806933,61.111111111111114,0.9999999999836364,1.0012300123000044,1.4430237603793583e-12,0.9986095449409715,0
499,572.7833333333333,1.1305555555554747,1.1444444444445026,1.1305555555555316,0.9999999999999497,0.032560426403792544,0.8977461778844116,50.0,0.8181818181684297,1.0122850122850853,8.455378679279475e-17,0.9947543524832713,0
500,573.9277777777778,1.1444444444445026,1.1138888888888232,1.1305555555555316,1.0122850122850853,0.03685487402899827,1.01615138222179,61.111111111111114,0.9999999999836364,0.985257985257948,1.2948314295768704e-12,0.9982389472172601,0
501,575.0416666666666,1.1138888888888232,1.1083333333333485,1.1305555555555316,0.985257985257948,0.034508724547282384,0.9514640619810881,55.55555555555556,0.9090909090760331,0.9803439803440146,1.7946786702691293e-14,0.9980686286295462,0
502,576.15,1.1083333333333485,1.1083333333333485,1.1305555555555316,0.9803439803440146,0.03664842132536682,1.0104591310423812,58.333333333333336,0.9545454545298347,0.9803439803440146,1.6070819805133474e-12,0.9980433473606076,0
503,577.2583333333333,1.1083333333333485,1.125,1.1305555555555316,0.9803439803440146,0.03367108952771127,0.9283690438767027,55.55555555555556,0.9090909090760331,0.9950859950860163,1.511991757924963e-14,0.9975184625060278,0
504,578.3833333333333,1.125,1.125,1.1305555555555316,0.9950859950860163,0.03554470753841562,0.9800278700562427,55.55555555555556,0.9090909090760331,0.9950859950860163,4.310535083170905e-14,0.997963458027767,0
505,579.5083333333333,1.125,1.1111111111110858,1.1277777777777374,0.9975369458128437,0.03799326747116246,1.0475388201182587,61.111111111111114,0.9999999999836364,0.9852216748768602,1.213156918672409e-11,0.9985498148549607,0
506,580.6194444444444,1.1111111111110858,1.1166666666666742,1.125,0.9876543209876318,0.036746714769907436,1.0131692480123837,61.111111111111114,0.9999999999836364,0.9925925925925994,7.107975666387212e-12,0.9985526567771055,0
507,581.7361111111111,1.1166666666666742,1.0888888888889596,1.1208333333333371,0.9962825278810443,0.033995744198023065,0.9373203237460225,55.55555555555556,0.9090909090760331,0.9714993804213733,1.4143886596326184e-14,0.9957749089284927,0
508,582.825,1.0888888888889596,1.1527777777777146,1.1152777777777487,0.9763387297634761,0.03687401630639524,1.0166791672746027,61.111111111111114,0.9999999999836364,1.0336239103362095,6.449178691081414e-11,0.9980031958566753,0
509,583.9777777777778,1.1527777777777146,1.1083333333333485,1.1152777777777487,1.0336239103362095,0.03609840894940281,0.995294357025377,58.333333333333336,0.9545454545298347,0.993773349937773,6.422714736355889e-14,0.9977368721209022,0
510,585.0861111111111,1.1083333333333485,1.14722222222224,1.1124999999999545,0.9962546816479945,0.037116242618678956,1.023357757515989,61.111111111111114,0.9999999999836364,1.031210986267224,1.787326710245285e-11,0.9987369028871429,0
511,586.2333333333333,1.14722222222224,1.0833333333333712,1.11388888888888,1.029925187032443,0.035919092690812546,0.9903503036587051,55.55555555555556,0.9090909090760331,0.9725685785536577,6.5494628831105385e-15,0.9988398191340507,0
512,587.3166666666667,1.0833333333333712,1.1083333333332348,1.11388888888888,0.9725685785536577,0.03568883393384625,0.9840016792141915,61.111111111111114,0.9999999999836364,0.9950124688278497,6.684333208467619e-12,0.9993816285382778,0
