beat_index,peak_time_s,rr_prev_s,rr_next_s,rr_baseline_s,prematurity_index,aa_ratio,morph_index,qrs_width_ms,width_index,pause_index,pvc_score,morphology_score,is_pvc_candidate
0,0.6222222222222222,,0.7333333333333334,0.6722222222222172,,0.03555939532313063,1.138743121315466,86.11111111111111,1.7222222221877779,1.0909090909090993,0.9943885207176208,0.5921425219157888,1
1,1.3555555555555556,0.7333333333333334,0.5555555555555556,0.6722222222222172,1.0909090909090993,0.02912926712035078,0.9328266766303349,50.0,0.9999999999800001,0.8264462809917418,7.612458298271452e-13,0.9993410058742893,0
2,1.9111111111111112,0.5555555555555556,0.7694444444444442,0.6722222222222172,0.8264462809917418,0.04244254275736508,1.3591669143105098,94.44444444444444,1.8888888888511113,1.1446280991735618,0.9987174272537231,0.6021019872090574,1
3,2.6805555555555554,0.7694444444444442,0.5027777777777778,0.6722222222222172,1.1446280991735618,0.03026409791176767,0.9691681482959785,50.0,0.9999999999800001,0.7479338842975263,1.3644333059226188e-12,0.998001945663663,0
4,3.183333333333333,0.5027777777777778,0.8000000000000003,0.6722222222222172,0.7479338842975263,0.04167311072732311,1.3345268600135194,91.66666666666667,1.8333333332966668,1.1900826446281085,0.998389482498169,0.5457618165874841,1
5,3.9833333333333334,0.8000000000000003,0.4861111111111107,0.7333333333333334,1.0909090909090913,0.025429175369997184,0.8143360782761359,44.44444444444444,0.8888888888711112,0.6628787878787873,1.0407228711527265e-18,0.9950265720767381,0
6,4.469444444444444,0.4861111111111107,0.7611111111111111,0.6444444444444445,0.7543103448275855,0.04177074510574624,1.3376534732706615,88.88888888888889,1.7777777777422223,1.1810344827586206,0.9985425472259521,0.5489243410152038,1
7,5.230555555555555,0.7611111111111111,0.5250000000000004,0.7333333333333334,1.0378787878787878,0.029075829933542803,0.931115420621984,47.22222222222222,0.9444444444255556,0.7159090909090914,2.722875500375463e-14,0.9966162610680243,0
8,5.7555555555555555,0.5250000000000004,0.7249999999999996,0.6444444444444445,0.8146551724137936,0.03916669779943115,1.2542622645422754,86.11111111111111,1.7222222221877779,1.1249999999999993,0.9988137483596802,0.5249252777634387,1
9,6.480555555555555,0.7249999999999996,0.47777777777777786,0.7249999999999996,1.0,0.028541847431109626,0.9140153294639923,47.22222222222222,0.9444444444255556,0.659003831417625,3.8067046395509965e-14,0.9968153158002431,0
10,6.958333333333333,0.47777777777777786,0.7805555555555559,0.6402777777777776,0.7462039045553148,0.04091791158576095,1.3103425953525887,86.11111111111111,1.7222222221877779,1.2190889370932763,0.9985226988792419,0.5377357501060415,1
11,7.738888888888889,0.7805555555555559,0.5583333333333336,0.6402777777777776,1.2190889370932763,0.030427405975579302,0.9743978754224091,50.0,0.9999999999800001,0.8720173535791763,6.5035017302039755e-12,0.9976519856162578,0
12,8.297222222222222,0.5583333333333336,0.875,0.6416666666666666,0.8701298701298705,0.044594506018856984,1.4280807228575716,108.33333333333333,2.166666666623333,1.3636363636363638,0.9987952709197998,0.6240544463983093,1
13,9.172222222222222,0.875,0.5,0.6416666666666666,1.3636363636363638,0.02852225085931743,0.9133877748858859,50.0,0.9999999999800001,0.7792207792207793,5.525414449440193e-15,0.9950373483041207,0
14,9.672222222222222,0.5,0.7138888888888886,0.6416666666666666,0.7792207792207793,0.04362571188166329,1.3970563578571222,94.44444444444444,1.8888888888511113,1.112554112554112,0.9984930753707886,0.5706736057899731,1
15,10.386111111111111,0.7138888888888886,0.6583333333333332,0.6361111111111111,1.1222707423580782,0.026214382047760987,0.8394812950321946,41.666666666666664,0.8333333333166667,1.0349344978165937,9.315044937653616e-14,0.9910689994216506,0
16,11.044444444444444,0.6583333333333332,0.625,0.6861111111111109,0.959514170040486,0.026082844058013806,0.835268962970439,44.44444444444444,0.8888888888711112,0.9109311740890691,7.145199281419559e-14,0.993162310526366,0
17,11.669444444444444,0.625,0.5999999999999996,0.6416666666666666,0.9740259740259741,0.028122529078799276,0.9005872077258213,47.22222222222222,0.9444444444255556,0.9350649350649346,2.107974732268314e-11,0.996905595371228,0
18,12.269444444444444,0.5999999999999996,0.6388888888888893,0.6416666666666666,0.9350649350649346,0.027386624363950073,0.877020821842059,47.22222222222222,0.9444444444255556,0.9956709956709964,2.636876654527054e-11,0.9984157669676246,0
19,12.908333333333333,0.6388888888888893,0.6500000000000004,0.6319444444444446,1.0109890109890114,0.02778767208797011,0.8898638506083545,50.0,0.9999999999800001,1.028571428571429,7.605427398971187e-11,0.9981106760887855,0
20,13.558333333333334,0.6500000000000004,0.7083333333333339,0.6444444444444448,1.0086206896551724,0.03204098482613158,1.0260706274495308,52.77777777777778,1.0555555555344445,1.099137931034483,4.2969219293809147e-07,0.9953177011738145,0
21,14.266666666666667,0.7083333333333339,0.68611111111111,0.6444444444444448,1.099137931034483,0.029349192915498864,0.9398695125432902,52.77777777777778,1.0555555555344445,1.0646551724137907,2.661419418181765e-10,0.9980369713786957,0
22,14.952777777777778,0.68611111111111,0.6222222222222218,0.6541666666666668,1.0488322717622063,0.02563464079129504,0.8209158396316087,44.44444444444444,0.8888888888711112,0.951167728237791,2.7436295016490878e-14,0.9939547168290541,0
23,15.575,0.6222222222222218,0.5972222222222214,0.6444444444444448,0.965517241379309,0.02696750973713397,0.8635992241463556,50.0,0.9999999999800001,0.9267241379310327,1.87012853120061e-11,0.9946234882011391,0
24,16.17222222222222,0.5972222222222214,0.7388888888888907,0.6444444444444448,0.9267241379310327,0.029302836621401828,0.9383850128617577,47.22222222222222,0.9444444444255556,1.1465517241379333,3.980268559189426e-08,0.9954569400729691,0
25,16.91111111111111,0.7388888888888907,0.5444444444444443,0.6444444444444448,1.1465517241379333,0.027427379930896004,0.878325965562678,47.22222222222222,0.9444444444255556,0.8448275862068958,5.85286959414559e-14,0.9957248196880728,0
26,17.455555555555556,0.5444444444444443,0.7361111111111107,0.6319444444444446,0.861538461538461,0.03990751666757708,1.2779860197573463,88.88888888888889,1.7777777777422223,1.1648351648351638,0.9991451501846313,0.6238788119498418,1
27,18.191666666666666,0.7361111111111107,0.469444444444445,0.6444444444444448,1.1422413793103436,0.026000773081747714,0.832640747309475,44.44444444444444,0.8888888888711112,0.7284482758620694,1.6735288395485913e-15,0.9913230363141963,0
28,18.66111111111111,0.469444444444445,0.9972222222222236,0.6444444444444448,0.7284482758620694,0.042824127573956004,1.3713866689250853,91.66666666666667,1.8333333332966668,1.5474137931034495,0.9979532957077026,0.48936988843076207,1
29,19.658333333333335,0.9972222222222236,0.5055555555555529,0.6680555555555552,1.4927234927234956,0.02965724964380959,0.9497346263100195,50.0,0.9999999999800001,0.7567567567567531,2.897956469419098e-17,0.9975313180679852,0
30,20.163888888888888,0.5055555555555529,0.5472222222222243,0.6541666666666659,0.7728237791932028,0.041479484512275074,1.3283262337517765,88.88888888888889,1.7777777777422223,0.8365180467091337,0.9978545308113098,0.5300375347397663,1
31,20.711111111111112,0.5472222222222243,1.2333333333333307,0.6097222222222216,0.8974943052391843,0.04564935832273595,1.4618609880766649,113.88888888888889,2.277777777732222,2.02277904328018,0.9979484677314758,0.900594090245112,1
32,21.944444444444443,1.2333333333333307,0.48055555555555785,0.6097222222222216,2.02277904328018,0.029113668964417885,0.9323271660899453,47.22222222222222,0.9444444444255556,0.7881548974943098,7.911562506414898e-22,0.9950911345554301,0
33,22.425,0.48055555555555785,0.8944444444444422,0.5722222222222229,0.8398058252427215,0.04110036729324528,1.3161855007213248,94.44444444444444,1.8888888888511113,1.563106796116499,0.9986138343811035,0.526454061933595,1
34,23.319444444444443,0.8944444444444422,0.50277777777778,0.6416666666666675,1.3939393939393885,0.026343067755942546,0.8436022865077734,47.22222222222222,0.9444444444255556,0.783549783549786,1.0333218794170614e-17,0.9938512564935578,0
35,23.822222222222223,0.50277777777778,0.4194444444444443,0.5458333333333343,0.9211195928753205,0.038723012349520684,1.2400538183771448,94.44444444444444,1.8888888888511113,0.7684478371501257,0.9972472786903381,0.5588218958083202,1
36,24.241666666666667,0.4194444444444443,1.2333333333333343,0.5263888888888886,0.7968337730870714,0.04198188762106844,1.3444150361362708,75.0,1.49999999997,2.3430079155672856,0.9713864922523499,0.9610582184001437,1
37,25.475,1.2333333333333343,0.5888888888888886,0.5263888888888886,2.3430079155672856,0.029888233161627677,0.9571315713272903,50.0,0.9999999999800001,1.1187335092348285,1.07447184014489e-18,0.9988828918231969,0
38,26.06388888888889,0.5888888888888886,0.9138888888888879,0.5680555555555564,1.0366748166259148,0.04136445333147569,1.324642510654638,102.77777777777777,2.0555555555144442,1.6088019559902158,0.9978567957878113,0.5709139512011122,1
39,26.977777777777778,0.9138888888888879,0.6999999999999993,0.5680555555555564,1.6088019559902158,0.028438516468056195,0.9107062905355532,50.0,0.9999999999800001,1.2322738386308036,6.167061761437609e-13,0.9962766067399913,0
40,27.677777777777777,0.6999999999999993,0.6500000000000021,0.6444444444444439,1.086206896551724,0.0282371591629156,0.9042580862263443,50.0,0.9999999999800001,1.0086206896551766,1.0854360812939667e-11,0.9981590592169522,0
41,28.32777777777778,0.6500000000000021,0.6666666666666643,0.6750000000000007,0.9629629629629651,0.02753064104709462,0.8816327677369558,47.22222222222222,0.9444444444255556,0.9876543209876498,1.0750332048170552e-11,0.995075715347709,0
42,28.994444444444444,0.6666666666666643,0.658333333333335,0.6583333333333332,1.0126582278480978,0.026988421566917196,0.8642688981411853,47.22222222222222,0.9444444444255556,1.0000000000000027,4.179886471666894e-12,0.995008731978414,0
43,29.65277777777778,0.658333333333335,0.6305555555555564,0.6624999999999996,0.9937106918239024,0.029372637487801324,0.940620294304313,52.77777777777778,1.0555555555344445,0.951781970649897,1.7031752397311806e-10,0.9981110339521875,0
44,30.283333333333335,0.6305555555555564,0.6416666666666657,0.6541666666666686,0.9639065817409752,0.02757571045163782,0.8830760564638586,47.22222222222222,0.9444444444255556,0.9808917197452186,2.6579786982505738e-11,0.9951327505386548,0
45,30.925,0.6416666666666657,0.6361111111111093,0.6541666666666686,0.9808917197452186,0.02966879638971143,0.9501043957436619,50.0,0.9999999999800001,0.9723991507430942,1.2810718041933455e-09,0.9941620474867268,0
46,31.56111111111111,0.6361111111111093,0.7111111111111157,0.6541666666666686,0.9723991507430942,0.028048125181179634,0.8982045202294928,47.22222222222222,0.9444444444255556,1.087048832271766,1.8499254905712803e-10,0.9968307930258575,0
47,32.272222222222226,0.7111111111111157,0.6694444444444443,0.6541666666666686,1.087048832271766,0.0312264194583066,0.9999852370472614,55.55555555555556,1.111111111088889,1.0233545647558355,6.455855405818056e-09,0.9973158924369527,0
48,32.94166666666667,0.6694444444444443,0.8361111111111086,0.6624999999999996,1.0104821802935013,0.032266864112518,1.033304116131856,55.55555555555556,1.111111111088889,1.2620545073375231,5.811029495816911e-06,0.994061721929794,0
49,33.77777777777778,0.8361111111111086,0.56388888888889,0.6624999999999996,1.2620545073375231,0.027652266555582502,0.8855276655525263,47.22222222222222,0.9444444444255556,0.8511530398322873,2.6042014728443663e-16,0.9984909526756927,0
50,34.34166666666667,0.56388888888889,1.0,0.6541666666666686,0.8619957537154981,0.037951447192359274,1.2153454534744175,86.11111111111111,1.7222222221877779,1.5286624203821613,0.9985345602035522,0.5738896810551913,1
51,35.34166666666667,1.0,0.48888888888888715,0.6624999999999996,1.5094339622641517,0.026745872179767625,0.8565015712874524,44.44444444444444,0.8888888888711112,0.7379454926624716,3.753305533830367e-20,0.9917829523942212,0
52,35.830555555555556,0.48888888888888715,0.42499999999999716,0.6500000000000004,0.752136752136749,0.043231587487918825,1.384435039686754,94.44444444444444,1.8888888888511113,0.6538461538461491,0.9980840682983398,0.5380548664426796,1
53,36.25555555555555,0.42499999999999716,1.3083333333333371,0.6388888888888875,0.6652173913043448,0.03861759055388549,1.2366778232702142,63.888888888888886,1.2777777777522223,2.047826086956532,0.986205518245697,0.9502835533664977,1
54,37.56388888888889,1.3083333333333371,0.5805555555555557,0.655555555555555,1.9957627118644143,0.032406322278337694,1.0377700814722493,55.55555555555556,1.111111111088889,0.885593220338984,7.923655628476481e-19,0.9956348198909053,0
55,38.144444444444446,0.5805555555555557,1.0277777777777786,0.6527777777777768,0.8893617021276612,0.043063360252375116,1.3790477825201872,105.55555555555556,2.111111111068889,1.5744680851063866,0.9983660578727722,0.5632778802873301,1
56,39.172222222222224,1.0277777777777786,0.7222222222222214,0.69027777777778,1.4889336016096544,0.02698816396841351,0.8642606488860597,47.22222222222222,0.9444444444255556,1.0462776659959714,7.735554627934952e-20,0.9960095822576863,0
57,39.894444444444446,0.7222222222222214,0.5416666666666643,0.6958333333333329,1.0379241516966065,0.029012822446341163,0.9290976882620762,50.0,0.9999999999800001,0.7784431137724522,2.1126196278475895e-11,0.9903119239001101,0
58,40.43611111111111,0.5416666666666643,0.9638888888888886,0.6513888888888886,0.831556503198291,0.04801211518289232,1.5375251858897767,122.22222222222223,2.4444444443955557,1.4797441364605546,0.9979045391082764,0.41465316690874054,1
59,41.4,0.9638888888888886,0.5,0.6513888888888886,1.4797441364605546,0.02721673665225208,0.8715803900986577,47.22222222222222,0.9444444444255556,0.7675906183368874,8.457240373325117e-19,0.9960377248629371,0
60,41.9,0.5,0.9083333333333314,0.6513888888888886,0.7675906183368874,0.04242471248247246,1.3585959230801858,100.0,1.9999999999600002,1.3944562899786759,0.9980400204658508,0.6042341173780665,1
61,42.80833333333333,0.9083333333333314,0.50833333333334,0.6513888888888886,1.3944562899786759,0.029615619396835217,0.9484014721056258,50.0,0.9999999999800001,0.780383795309179,1.4838187644729273e-15,0.9987243794669007,0
62,43.31666666666667,0.50833333333334,0.93055555555555,0.6513888888888886,0.780383795309179,0.04044348673181507,1.2951497599822823,86.11111111111111,1.7222222221877779,1.4285714285714208,0.9985961318016052,0.5373053739973949,1
63,44.24722222222222,0.93055555555555,0.7416666666666671,0.8152777777777764,1.1413969335604721,0.026978630741202887,0.8639553597546955,47.22222222222222,0.9444444444255556,0.90971039182283,3.9391832279817188e-19,0.9955944468178921,0
64,44.98888888888889,0.7416666666666671,0.5722222222222229,0.7319444444444443,1.0132827324478186,0.031200634467523372,0.9991595064458053,50.0,0.9999999999800001,0.7817836812144223,9.377894294448907e-12,0.9986298853325077,0
65,45.56111111111111,0.5722222222222229,0.81666666666667,0.7319444444444443,0.7817836812144223,0.04171568237810073,1.3358901614432972,113.88888888888889,2.277777777732222,1.1157495256167032,0.9975883960723877,0.530198003944593,1
66,46.37777777777778,0.81666666666667,0.5111111111111057,0.7319444444444443,1.1157495256167032,0.028425687073041977,0.910295445941872,47.22222222222222,0.9444444444255556,0.6982922201138448,1.0512141567173305e-15,0.9955480090871669,0
67,46.888888888888886,0.5111111111111057,0.7916666666666714,0.656944444444445,0.7780126849894203,0.04171241391284588,1.335785493118867,100.0,1.9999999999600002,1.2050739957716763,0.9985476136207581,0.532600163078048,1
68,47.68055555555556,0.7916666666666714,0.4750000000000014,0.7666666666666693,1.0326086956521765,0.02788243098269127,0.8928983802612529,44.44444444444444,0.8888888888711112,0.6195652173913041,7.760897027570164e-17,0.9961278106655387,0
69,48.15555555555556,0.4750000000000014,0.9194444444444443,0.656944444444445,0.7230443974630036,0.040569226570825616,1.2991764138510402,88.88888888888889,1.7777777777422223,1.399577167019026,0.9976786971092224,0.6109964280668242,1
70,49.075,0.9194444444444443,0.5333333333333314,0.7666666666666693,1.1992753623188364,0.03170975758418135,1.0154635082919738,52.77777777777778,1.0555555555344445,0.6956521739130387,2.0753618414732708e-14,0.9991058993570983,0
71,49.608333333333334,0.5333333333333314,0.9499999999999957,0.656944444444445,0.8118393234672269,0.04033429780860976,1.2916531275425567,105.55555555555556,2.111111111068889,1.4460887949259966,0.9984326958656311,0.5787621447157211,1
72,50.55833333333333,0.9499999999999957,0.50277777777778,0.7666666666666693,1.2391304347825989,0.02586441933041506,0.8282741967822612,44.44444444444444,0.8888888888711112,0.655797101449276,6.837549260371486e-20,0.9852495015260977,0
73,51.06111111111111,0.50277777777778,0.87777777777778,0.656944444444445,0.7653276955602564,0.043687512449658794,1.3990354402081793,91.66666666666667,1.8333333332966668,1.3361522198731524,0.998441755771637,0.5360655352955086,1
74,51.93888888888889,0.87777777777778,0.6749999999999972,0.6819444444444471,1.2871690427698557,0.030771742682677277,0.9854248080533241,52.77777777777778,1.0555555555344445,0.9898167006109899,1.938622873343121e-11,0.9892876818986147,0
75,52.61388888888889,0.6749999999999972,0.5805555555555557,0.7333333333333343,0.9204545454545404,0.02670900857817804,0.8553210626664369,47.22222222222222,0.9444444444255556,0.7916666666666659,3.6720751900353246e-14,0.9948929858913445,0
76,53.19444444444444,0.5805555555555557,0.7861111111111114,0.6277777777777764,0.9247787610619491,0.04411081108816178,1.412591025405207,113.88888888888889,2.277777777732222,1.2522123893805341,0.9974763989448547,0.3026315858056349,1
77,53.980555555555554,0.7861111111111114,0.4833333333333343,0.7305555555555543,1.076045627376428,0.027965796181485914,0.8955680417057699,50.0,0.9999999999800001,0.6615969581749074,8.350536990944617e-15,0.9958163213549095,0
78,54.46388888888889,0.4833333333333343,0.8583333333333343,0.6277777777777764,0.769911504424782,0.04537435394385519,1.453054332565895,80.55555555555556,1.611111111078889,1.367256637168146,0.9975578784942627,0.9592411000616959,1
79,55.32222222222222,0.8583333333333343,0.50277777777778,0.7305555555555543,1.1749049429657827,0.02729151522722585,0.873975076147151,47.22222222222222,0.9444444444255556,0.6882129277566582,2.485267459138022e-17,0.9946512670480736,0
80,55.825,0.50277777777778,0.9277777777777771,0.6277777777777764,0.8008849557522176,0.04356162806188939,1.3950041573544978,100.0,1.9999999999600002,1.4778761061946923,0.9983646273612976,0.5877957876725901,1
81,56.75277777777778,0.9277777777777771,0.5805555555555557,0.7305555555555543,1.269961977186313,0.032706480137313,1.0473822442807255,55.55555555555556,1.111111111088889,0.7946768060836518,5.467250784041422e-12,0.9950653866882737,0
82,57.333333333333336,0.5805555555555557,0.87222222222222,0.6277777777777764,0.9247787610619491,0.040262669840669,1.289359335563105,94.44444444444444,1.8888888888511113,1.3893805309734508,0.9987620115280151,0.6133098756974714,1
83,58.205555555555556,0.87222222222222,0.4583333333333357,0.7305555555555543,1.193916349809885,0.028863298959176217,0.9243093941716694,47.22222222222222,0.9444444444255556,0.6273764258555177,1.0173641922810967e-16,0.996387071544524,0
84,58.66388888888889,0.4583333333333357,0.7555555555555529,0.6277777777777764,0.7300884955752266,0.03904472684078103,1.2503563041371295,77.77777777777777,1.5555555555244445,1.2035398230088479,0.9985256791114807,0.515974296402938,1
85,59.419444444444444,0.7555555555555529,0.5055555555555529,0.6680555555555543,1.130977130977129,0.02700445863505089,0.8647824642706811,44.44444444444444,0.8888888888711112,0.7567567567567541,7.286653783611027e-14,0.9838618255460654,0
86,59.925,0.5055555555555529,0.8333333333333357,0.6680555555555543,0.7567567567567541,0.037648451894887226,1.2056424254096296,91.66666666666667,1.8333333332966668,1.2474012474012532,0.9982112646102905,0.594071391099019,1
87,60.75833333333333,0.8333333333333357,0.5083333333333329,0.6680555555555543,1.2474012474012532,0.029278052433352943,0.9375913316587565,52.77777777777778,1.0555555555344445,0.7609147609147616,1.7652945077939464e-11,0.9858679753073905,0
88,61.266666666666666,0.5083333333333329,0.9250000000000043,0.6680555555555543,0.7609147609147616,0.04287363990307742,1.372972236499983,94.44444444444444,1.8888888888511113,1.3846153846153937,0.9983073472976685,0.5198503479786357,1
89,62.19166666666667,0.9250000000000043,0.7166666666666615,0.6680555555555543,1.3846153846153937,0.02928309904382525,0.9377529427578507,50.0,0.9999999999800001,1.072765072765067,3.2818645177623345e-15,0.9975862381758067,0
90,62.90833333333333,0.7166666666666615,0.6527777777777786,0.7361111111111072,0.9735849056603755,0.03147444493757744,1.0079279285881075,50.0,0.9999999999800001,0.8867924528301945,2.073458765794456e-10,0.9960178478283939,0
91,63.56111111111111,0.6527777777777786,0.6694444444444443,0.68472222222222,0.953346855983777,0.02840127110783338,0.9095135565936726,50.0,0.9999999999800001,0.9776876267748508,7.061508322525611e-11,0.9951588127964629,0
92,64.23055555555555,0.6694444444444443,0.62777777777778,0.6930555555555529,0.9659318637274584,0.02836475637495088,0.9083442200366595,47.22222222222222,0.9444444444255556,0.9058116232464997,1.024849042435827e-12,0.9985369980509022,0
93,64.85833333333333,0.62777777777778,0.7083333333333286,0.6611111111111114,0.949579831932776,0.029436241473451932,0.9426571287467921,52.77777777777778,1.0555555555344445,1.0714285714285638,2.5275515014300254e-09,0.9983995356025839,0
94,65.56666666666666,0.7083333333333286,0.7055555555555628,0.6888888888888864,1.0282258064516097,0.028708505072632798,0.9193523224351783,47.22222222222222,0.9444444444255556,1.024193548387111,1.3819743092946535e-11,0.9938651223671218,0
95,66.27222222222223,0.7055555555555628,0.6694444444444372,0.6875000000000036,1.0262626262626315,0.02600801514369474,0.8328726648702597,44.44444444444444,0.8888888888711112,0.9737373737373581,1.622706079207857e-14,0.9935943707715466,0
96,66.94166666666666,0.6694444444444372,0.6749999999999972,0.6875000000000036,0.9737373737373581,0.02811365785334223,0.9003031183346759,50.0,0.9999999999800001,0.9818181818181726,8.581266773555196e-12,0.9980915767461289,0
97,67.61666666666666,0.6749999999999972,0.7055555555555628,0.6722222222222207,1.0041322314049568,0.03074864566595404,0.9846851563051014,52.77777777777778,1.0555555555344445,1.0495867768595173,3.8365413068675025e-09,0.9967071840605588,0
98,68.32222222222222,0.7055555555555628,0.6361111111111057,0.69027777777778,1.0221327967806912,0.0299356365586706,0.958649603110989,50.0,0.9999999999800001,0.9215291750502911,4.191848604340187e-11,0.9956629573886023,0
99,68.95833333333333,0.6361111111111057,0.7750000000000057,0.6722222222222207,0.9462809917355313,0.029729655136145103,0.9520533174911626,50.0,0.9999999999800001,1.152892561983482,6.175867373059418e-09,0.9989308468390756,0
100,69.73333333333333,0.7750000000000057,0.5777777777777828,0.6722222222222207,1.152892561983482,0.03140977031733192,1.0058568084731836,52.77777777777778,1.0555555555344445,0.8595041322314144,3.7673103525648344e-10,0.9942647756306565,0
101,70.31111111111112,0.5777777777777828,0.8777777777777658,0.6722222222222207,0.8595041322314144,0.03993555369197802,1.2788838687896091,88.88888888888889,1.7777777777422223,1.3057851239669271,0.998927891254425,0.5862200218325015,1
102,71.18888888888888,0.8777777777777658,0.4611111111111228,0.69027777777778,1.2716297786720108,0.02702242822762892,0.8653579169676442,47.22222222222222,0.9444444444255556,0.6680080482897532,4.6908539862335956e-18,0.9965816992915044,0
103,71.65,0.4611111111111228,0.5527777777777771,0.69027777777778,0.6680080482897532,0.039419426189172206,1.26235556063923,77.77777777777777,1.5555555555244445,0.8008048289738395,0.9971333742141724,0.5449959567463148,1
104,72.20277777777778,0.5527777777777771,1.0999999999999943,0.6722222222222172,0.8223140495867821,0.03719801878044579,1.1912178941142608,75.0,1.49999999997,1.6363636363636402,0.9976523518562317,0.9611699070570066,1
105,73.30277777777778,1.0999999999999943,0.5722222222222229,0.6722222222222172,1.6363636363636402,0.02862700050778841,0.9167422453590931,50.0,0.9999999999800001,0.851239669421495,9.807497952007943e-20,0.9971300342226629,0
106,73.875,0.5722222222222229,0.9000000000000057,0.6555555555555515,0.8728813559322098,0.045386921523689644,1.4534567928709148,111.11111111111111,2.222222222177778,1.3728813559322206,0.9987102746963501,0.5642313122672286,1
107,74.775,0.9000000000000057,0.5222222222222115,0.6708333333333343,1.3416149068323047,0.030711310831871595,0.9834895570799036,50.0,0.9999999999800001,0.7784679089026744,1.1143477362651061e-14,0.9981373901837363,0
108,75.29722222222222,0.5222222222222115,1.0250000000000057,0.6069444444444443,0.8604118993134837,0.042687615299773024,1.3670150419109477,94.44444444444444,1.8888888888511113,1.688787185354701,0.9985610842704773,0.5677471650414795,1
109,76.32222222222222,1.0250000000000057,0.48611111111111427,0.6763888888888943,1.5154004106776144,0.026649955154996192,0.8534299540346004,47.22222222222222,0.9444444444255556,0.7186858316221756,1.7712526700935952e-20,0.9935198603162445,0
110,76.80833333333334,0.48611111111111427,1.0222222222222115,0.5750000000000028,0.845410628019325,0.04536474397365978,1.4527465858408275,91.66666666666667,1.8333333332966668,1.7777777777777504,0.9986741542816162,0.5144817135841533,1
111,77.83055555555555,1.0222222222222115,0.50555555555556,0.7249999999999943,1.4099616858237511,0.03112611177637828,0.9967730147422135,52.77777777777778,1.0555555555344445,0.6973180076628468,2.1828586975181075e-16,0.9975766239492899,0
112,78.33611111111111,0.50555555555556,0.99722222222222,0.5625,0.8987654320987732,0.04428564643717553,1.4181898987618269,80.55555555555556,1.611111111078889,1.7728395061728355,0.9991005659103394,0.5298843284293172,1
113,79.33333333333333,0.99722222222222,0.5166666666666657,0.7361111111111143,1.3547169811320667,0.029775422404812266,0.9535189544037855,50.0,0.9999999999800001,0.7018867924528259,7.239386286571204e-18,0.9979900084615062,0
114,79.85,0.5166666666666657,1.00833333333334,0.7361111111111143,0.7018867924528259,0.040288688951002585,1.2901925635369182,91.66666666666667,1.8333333332966668,1.36981132075472,0.9972379207611084,0.5812306870746399,1
115,80.85833333333333,1.00833333333334,0.5583333333333371,0.7361111111111143,1.36981132075472,0.03272601846744045,1.0480079337457022,55.55555555555556,1.111111111088889,0.7584905660377378,1.2252735447342705e-13,0.9954219142350422,0
116,81.41666666666667,0.5583333333333371,0.9833333333333343,0.7291666666666714,0.7657142857142859,0.04236824708034475,1.356787692437315,91.66666666666667,1.8333333332966668,1.3485714285714212,0.9983100891113281,0.53669524103136,1
117,82.4,0.9833333333333343,0.6472222222222115,0.7708333333333357,1.275675675675673,0.027782610922352482,0.8897017733997704,50.0,0.9999999999800001,0.8396396396396232,3.7570463289036676e-19,0.9980536703477076,0
118,83.04722222222222,0.6472222222222115,0.63055555555556,0.8152777777777729,0.793867120953995,0.028195234111337723,0.9029154912901461,47.22222222222222,0.9444444444255556,0.7734241908006915,1.5224524765877767e-11,0.9966586645189337,0
119,83.67777777777778,0.63055555555556,0.45277777777778283,0.6388888888888857,0.9869565217391423,0.028616865729206006,0.9164176923319143,44.44444444444444,0.8888888888711112,0.7086956521739245,2.671766887590854e-12,0.9956362304038071,0
120,84.13055555555556,0.45277777777778283,0.86388888888888,0.6388888888888857,0.7086956521739245,0.023261060391783904,0.7449050321285254,30.555555555555557,0.6111111110988889,1.3521739130434711,0.4909323453903198,0.9422717066483786,0
121,84.99444444444444,0.86388888888888,0.5250000000000057,0.6388888888888857,1.3521739130434711,0.03153443567865049,1.0098490535993396,50.0,0.9999999999800001,0.8217391304347955,6.261061547691016e-13,0.9984472168049697,0
122,85.51944444444445,0.5250000000000057,0.9472222222222229,0.6388888888888857,0.8217391304347955,0.044466345531426664,1.4239765508895297,102.77777777777777,2.0555555555144442,1.4826086956521822,0.9985507130622864,0.5364384163546554,1
123,86.46666666666667,0.9472222222222229,0.5361111111111114,0.6388888888888857,1.4826086956521822,0.03130808100719975,1.0026003413321634,50.0,0.9999999999800001,0.8391304347826133,6.350321879672674e-14,0.9945098903571241,0
124,87.00277777777778,0.5361111111111114,0.8194444444444429,0.6388888888888857,0.8391304347826133,0.04186628420091083,1.34071298782221,94.44444444444444,1.8888888888511113,1.2826086956521778,0.9988695979118347,0.616240335527561,1
125,87.82222222222222,0.8194444444444429,0.48888888888889426,0.6388888888888857,1.2826086956521778,0.027979245982834404,0.8959987540007759,47.22222222222222,0.9444444444255556,0.7652173913043601,2.7547866196303214e-15,0.9959137448145017,0
126,88.31111111111112,0.48888888888889426,0.8444444444444343,0.6388888888888857,0.7652173913043601,0.04381019550497235,1.402964204577505,91.66666666666667,1.8333333332966668,1.3217391304347734,0.9984277486801147,0.5563468083181238,1
127,89.15555555555555,0.8444444444444343,0.5250000000000057,0.6388888888888857,1.3217391304347734,0.028872991649366787,0.9246197898963788,47.22222222222222,0.9444444444255556,0.8217391304347955,1.6218419361950683e-15,0.9992552684868639,0
128,89.68055555555556,0.5250000000000057,0.875,0.5833333333333357,0.9000000000000061,0.039666833472287284,1.2702784552568274,86.11111111111111,1.7222222221877779,1.499999999999994,0.9987863898277283,0.5936220992427604,1
129,90.55555555555556,0.875,0.46944444444444855,0.6777777777777771,1.2909836065573783,0.029058079759986487,0.9305469945321776,47.22222222222222,0.9444444444255556,0.6926229508196788,2.5395315661126845e-16,0.9969646607575308,0
130,91.025,0.46944444444444855,0.9194444444444372,0.6777777777777771,0.6926229508196788,0.04295167081400503,1.3754710743531393,97.22222222222223,1.9444444444055557,1.3565573770491708,0.9972584247589111,0.5395045689984823,1
131,91.94444444444444,0.9194444444444372,0.74444444444444,0.6777777777777771,1.3565573770491708,0.03117875637622598,0.9984588891899148,52.77777777777778,1.0555555555344445,1.0983606557376995,2.9284840069414286e-13,0.9989980636993008,0
132,92.68888888888888,0.74444444444444,0.75,0.7819444444444414,0.9520426287744207,0.03021994311512208,0.9677541486906326,50.0,0.9999999999800001,0.959147424511549,4.383208206115707e-12,0.9981940865833305,0
133,93.43888888888888,0.75,0.75555555555556,0.74722222222222,1.0037174721189621,0.028891639534359515,0.9252169640206739,47.22222222222222,0.9444444444255556,1.0111524163568861,3.744545092835422e-13,0.996252735100916,0
134,94.19444444444444,0.75555555555556,0.6944444444444429,0.75277777777778,1.0036900369003718,0.031542923612347076,1.0101208685732261,52.77777777777778,1.0555555555344445,0.9225092250922461,6.381914441355718e-11,0.9984005881587497,0
135,94.88888888888889,0.6944444444444429,0.6916666666666629,0.74722222222222,0.9293680297397776,0.028172668500355574,0.90219285711567,47.22222222222222,0.9444444444255556,0.9256505576208155,7.133247443245894e-13,0.9963987156951566,0
136,95.58055555555555,0.6916666666666629,0.7000000000000028,0.74722222222222,0.9256505576208155,0.02699378987728765,0.8644408112587142,44.44444444444444,0.8888888888711112,0.9368029739777017,1.074935767567814e-13,0.9923000904763193,0
137,96.28055555555555,0.7000000000000028,0.7916666666666714,0.7222222222222214,0.9692307692307742,0.02817896993445148,0.9023946522999223,47.22222222222222,0.9444444444255556,1.0961538461538538,1.7097816218392126e-11,0.9959744437970524,0
138,97.07222222222222,0.7916666666666714,0.8027777777777771,0.74722222222222,1.0594795539033552,0.031269289927104975,1.0013581077332814,52.77777777777778,1.0555555555344445,1.0743494423791844,2.984811356410155e-11,0.9983295858494713,0
139,97.875,0.8027777777777771,0.8250000000000028,0.74722222222222,1.0743494423791844,0.030079063988774045,0.9632426789480241,50.0,0.9999999999800001,1.104089219330862,2.1825924314405887e-12,0.996777410283256,0
140,98.7,0.8250000000000028,0.9805555555555543,0.75277777777778,1.0959409594095946,0.029846848264307228,0.9558062741246308,50.0,0.9999999999800001,1.3025830258302529,1.3939834009324414e-10,0.9950246321897057,0
141,99.68055555555556,0.9805555555555543,0.5583333333333371,0.75277777777778,1.3025830258302529,0.02776826952656776,0.8892425089592052,47.22222222222222,0.9444444444255556,0.7416974169741726,7.16607308793487e-20,0.9975831321545141,0
142,100.2388888888889,0.5583333333333371,1.0,0.75277777777778,0.7416974169741726,0.04256160834901377,1.3629798341378363,94.44444444444444,1.8888888888511113,1.3284132841328373,0.9977391958236694,0.5992952156633409,1
143,101.2388888888889,1.0,0.5055555555555458,0.7736111111111157,1.2926391382405669,0.028947570498266843,0.9270080799786155,47.22222222222222,0.9444444444255556,0.6535008976660517,2.150620737282943e-19,0.9966537850705987,0
144,101.74444444444444,0.5055555555555458,1.0194444444444457,0.7458333333333371,0.677839851024192,0.04070326343782286,1.3034687691880416,94.44444444444444,1.8888888888511113,1.3668528864059537,0.9965330362319946,0.6041811515347747,1
145,102.76388888888889,1.0194444444444457,0.5222222222222257,0.7972222222222243,1.2787456445993015,0.029013759187401407,0.9291276861692147,44.44444444444444,0.8888888888711112,0.6550522648083651,4.477918012248807e-20,0.9933483952841862,0
146,103.28611111111111,0.5222222222222257,1.0388888888888914,0.7972222222222243,0.6550522648083651,0.04264322955843282,1.3655936466038467,97.22222222222223,1.9444444444055557,1.303135888501742,0.9961721301078796,0.5307518852913634,1
147,104.325,1.0388888888888914,0.6444444444444457,0.81388888888889,1.276450511945394,0.029497805497773026,0.94462863609609,50.0,0.9999999999800001,0.791808873720137,2.891680991323661e-19,0.9991906455749002,0
148,104.96944444444445,0.6444444444444457,0.9416666666666629,0.81388888888889,0.791808873720137,0.04085817628799792,1.3084296505792243,105.55555555555556,2.111111111068889,1.1569965870307104,0.9977772831916809,0.6079516439989243,1
149,105.91111111111111,0.9416666666666629,0.5277777777777715,0.8833333333333329,1.066037735849053,0.027828750903557745,0.8911793459438947,47.22222222222222,0.9444444444255556,0.597484276729553,6.424949632125475e-20,0.9986151258303246,0
150,106.43888888888888,0.5277777777777715,0.88611111111112,0.7930555555555543,0.6654991243432505,0.040127859347548256,1.2850422058614497,97.22222222222223,1.9444444444055557,1.11733800350264,0.9951303005218506,0.6042038601611824,1
151,107.325,0.88611111111112,0.4777777777777743,0.7652777777777828,1.157894736842109,0.028375677714584383,0.9086939616526287,47.22222222222222,0.9444444444255556,0.6243194192377409,1.6674670747313455e-17,0.9961556063970916,0
152,107.80277777777778,0.4777777777777743,0.8916666666666657,0.7652777777777828,0.6243194192377409,0.04173766338175233,1.3365940743327156,86.11111111111111,1.7222222221877779,1.1651542649727678,0.9955678582191467,0.5045397878475736,1
153,108.69444444444444,0.8916666666666657,0.5222222222222257,0.7652777777777828,1.1651542649727678,0.026327838467100302,0.8431145884534605,47.22222222222222,0.9444444444255556,0.6823956442831216,3.724752422307773e-19,0.9951388342338332,0
154,109.21666666666667,0.5222222222222257,0.4638888888888886,0.7652777777777828,0.6823956442831216,0.04348732312258126,1.3926246388686518,97.22222222222223,1.9444444444055557,0.6061705989110664,0.9972110390663147,0.5567533954141984,1
155,109.68055555555556,0.4638888888888886,0.86944444444444,0.5861111111111086,0.791469194312799,0.027949648188232798,0.8950509233444216,41.666666666666664,0.8333333333166667,1.4834123222748803,0.9942360520362854,0.9501613955052453,1
156,110.55,0.86944444444444,1.1194444444444542,0.7569444444444429,1.1486238532110058,0.050870612435845966,1.6290648213228558,127.77777777777777,2.5555555555044447,1.4788990825688233,0.9994598031044006,0.877657799624199,1
157,111.66944444444445,1.1194444444444542,0.48611111111110006,0.7569444444444429,1.4788990825688233,0.028144892727033754,0.9013033743074832,47.22222222222222,0.9444444444255556,0.642201834862372,1.9288379933396335e-22,0.9974496813274437,0
158,112.15555555555555,0.48611111111110006,0.8694444444444542,0.6986111111111057,0.6958250497017788,0.03936381209463503,1.2605745920083826,88.88888888888889,1.7777777777422223,1.2445328031809382,0.9975082874298096,0.5927150104882688,1
159,113.025,0.8694444444444542,0.5527777777777771,0.6986111111111057,1.2445328031809382,0.0301320625910819,0.9649398898614545,50.0,0.9999999999800001,0.7912524850894684,2.0578524846073983e-14,0.9963525495034711,0
160,113.57777777777778,0.5527777777777771,0.7694444444444457,0.7111111111111086,0.7773437500000019,0.042535611065555305,1.362147305141148,100.0,1.9999999999600002,1.0820312500000056,0.997533917427063,0.5741477796216478,1
161,114.34722222222223,0.7694444444444457,0.5249999999999915,0.6611111111111114,1.1638655462184888,0.02913579095579026,0.9330355939267005,50.0,0.9999999999800001,0.7941176470588103,5.4485643427582e-12,0.9912799430181061,0
162,114.87222222222222,0.5249999999999915,1.0555555555555571,0.6611111111111114,0.7941176470588103,0.040092629389295614,1.2839140125313924,88.88888888888889,1.7777777777422223,1.5966386554621865,0.9982832670211792,0.5276430292668428,1
163,115.92777777777778,1.0555555555555571,0.5361111111111114,0.6611111111111114,1.5966386554621865,0.0317944267333269,1.0181749270408302,52.77777777777778,1.0555555555344445,0.8109243697478993,2.3980610232347778e-15,0.9954088994662513,0
164,116.46388888888889,0.5361111111111114,0.9749999999999943,0.6611111111111114,0.8109243697478993,0.04396909422249593,1.4080527281567607,88.88888888888889,1.7777777777422223,1.4747899159663773,0.998685896396637,0.5617471715727596,1
165,117.43888888888888,0.9749999999999943,0.7361111111111143,0.8194444444444429,1.1898305084745717,0.031006867062697605,0.9929543587661156,52.77777777777778,1.0555555555344445,0.8983050847457683,1.522423349835226e-15,0.9953236944289887,0
166,118.175,0.7361111111111143,0.5777777777777828,0.75277777777778,0.9778597785977873,0.029590690793459818,0.9476031661906973,50.0,0.9999999999800001,0.7675276752767572,8.346676214771032e-13,0.9973795494381643,0
167,118.75277777777778,0.5777777777777828,0.7833333333333314,0.6569444444444485,0.8794926004228352,0.04517781984623262,1.4467605851683945,108.33333333333333,2.166666666623333,1.1923890063424845,0.9978988170623779,0.2957187425623873,1
168,119.53611111111111,0.7833333333333314,0.49444444444444,0.75277777777778,1.0405904059040534,0.028184225215652618,0.9025629458061531,47.22222222222222,0.9444444444255556,0.6568265682656749,4.607982052840746e-15,0.9936016598236697,0
169,120.03055555555555,0.49444444444444,0.8500000000000085,0.6569444444444485,0.7526427061310668,0.03771129160520423,1.2076547849342696,86.11111111111111,1.7222222221877779,1.2938689217759034,0.998233437538147,0.5971643848249324,1
170,120.88055555555556,0.8500000000000085,0.5666666666666629,0.75277777777778,1.1291512915129231,0.029826250384571255,0.9551466539693982,50.0,0.9999999999800001,0.7527675276752696,1.546425341296745e-14,0.9955668453379487,0
171,121.44722222222222,0.5666666666666629,0.9555555555555486,0.6569444444444485,0.8625792811839212,0.04563465491183032,1.4613901305753911,111.11111111111111,2.222222222177778,1.4545454545454348,0.9984816908836365,0.5325288914177414,1
172,122.40277777777777,0.9555555555555486,0.5416666666666714,0.7597222222222229,1.2577696526508124,0.031960648063157494,1.0234979477007844,55.55555555555556,1.111111111088889,0.7129798903107918,2.420576217763981e-13,0.9951268938327342,0
173,122.94444444444444,0.5416666666666714,0.8611111111111143,0.6569444444444485,0.8245243128964079,0.04111898264606822,1.3167816330454363,86.11111111111111,1.7222222221877779,1.3107822410147958,0.9989339709281921,0.5804082012726884,1
174,123.80555555555556,0.8611111111111143,0.5138888888888857,0.7597222222222229,1.1334552102376632,0.027548528588528586,0.8822055928533582,47.22222222222222,0.9444444444255556,0.6764168190127924,2.791853350502431e-17,0.994157426489841,0
175,124.31944444444444,0.5138888888888857,0.8527777777777743,0.6569444444444485,0.7822410147991447,0.041543574047852805,1.330378617295542,102.77777777777777,2.0555555555144442,1.2980972515856102,0.9983505010604858,0.578860613671466,1
176,125.17222222222222,0.8527777777777743,0.50277777777778,0.6805555555555571,1.2530612244897879,0.026168979039688473,0.8380273230886398,47.22222222222222,0.9444444444255556,0.7387755102040832,5.884841472132547e-17,0.9898524817075747,0
177,125.675,0.50277777777778,0.9111111111111114,0.6749999999999972,0.7448559670781957,0.03853061324118548,1.2338924886027482,91.66666666666667,1.8333333332966668,1.3497942386831336,0.998036801815033,0.5679738709298344,1
178,126.58611111111111,0.9111111111111114,0.5166666666666657,0.7083333333333357,1.2862745098039177,0.03379886448713375,1.0823644241768466,52.77777777777778,1.0555555555344445,0.7294117647058785,2.5053502675231876e-11,0.9939254593800053,0
179,127.10277777777777,0.5166666666666657,0.9138888888889056,0.7083333333333357,0.7294117647058785,0.04251453375344534,1.3614723317912656,97.22222222222223,1.9444444444055557,1.290196078431392,0.997599184513092,0.6130288930474114,1
180,128.01666666666668,0.9138888888889056,0.5083333333333258,0.7097222222222186,1.2876712328767426,0.027801848220166858,0.89031782269869,50.0,0.9999999999800001,0.7162426614481339,2.5737045809740673e-16,0.9905999056675131,0
181,128.525,0.5083333333333258,0.9444444444444287,0.6972222222222229,0.7290836653386339,0.04422474065795518,1.4162394708508548,91.66666666666667,1.8333333332966668,1.354581673306749,0.9980272650718689,0.5085997038101162,1
182,129.46944444444443,0.9444444444444287,0.63055555555556,0.6972222222222229,1.354581673306749,0.031226879459266995,0.9999999679763081,52.77777777777778,1.0555555555344445,0.9043824701195274,2.3278541637708483e-13,0.9926292540439123,0
183,130.1,0.63055555555556,0.5972222222222285,0.7416666666666671,0.8501872659176084,0.02802330860442614,0.897409801820593,47.22222222222222,0.9444444444255556,0.8052434456928919,5.8942139363749035e-12,0.9965541381852,0
184,130.69722222222222,0.5972222222222285,0.8388888888888744,0.6138888888888943,0.9728506787330334,0.042911326521757845,1.3741791011667748,116.66666666666667,2.333333333286667,1.3665158371040367,0.9970055222511292,0.2985632105890133,1
185,131.5361111111111,0.8388888888888744,0.5277777777777999,0.7347222222222172,1.1417769376181355,0.02947268290203666,0.9438241178295557,47.22222222222222,0.9444444444255556,0.7183364839319821,2.287984009541398e-15,0.9957326564595705,0
186,132.0638888888889,0.5277777777777999,0.875,0.6138888888888943,0.8597285067873588,0.03927856485711409,1.2578446607354803,88.88888888888889,1.7777777777422223,1.4253393665158247,0.9988435506820679,0.5966392202718666,1
187,132.9388888888889,0.875,0.5138888888888857,0.7347222222222172,1.1909262759924468,0.02621286262260119,0.8394326374289549,41.666666666666664,0.8333333333166667,0.6994328922495279,4.44385044947384e-20,0.9942530932050897,0
188,133.45277777777778,0.5138888888888857,0.9222222222222172,0.6138888888888943,0.8371040723981776,0.045301721622702976,1.4507283774886033,105.55555555555556,2.111111111068889,1.5022624434388927,0.9984145164489746,0.48849724297758673,1
189,134.375,0.9222222222222172,0.9333333333333371,0.7347222222222172,1.2551984877126672,0.03313124193058205,1.0609846850952385,55.55555555555556,1.111111111088889,1.270321361058615,1.0924782190002702e-09,0.9950185446662487,0
190,135.30833333333334,0.9333333333333371,0.8499999999999943,0.7347222222222172,1.270321361058615,0.03069542462612691,0.9829808221210784,47.22222222222222,0.9444444444255556,1.1568998109640833,4.654391835053756e-15,0.9966395563226664,0
191,136.15833333333333,0.8499999999999943,0.7166666666666686,0.8444444444444343,1.0065789473684263,0.02890682483681554,0.925703253468505,47.22222222222222,0.9444444444255556,0.8486842105263281,2.1653097630377745e-16,0.9971423544661585,0
192,136.875,0.7166666666666686,0.7750000000000057,0.7777777777777715,0.9214285714285814,0.029079982578743963,0.9312484036526322,50.0,0.9999999999800001,0.9964285714285869,1.5251728699428035e-11,0.9970682790410734,0
193,137.65,0.7750000000000057,0.7805555555555372,0.80694444444444,0.9604130808950209,0.031949345957509534,1.0231360125512678,55.55555555555556,1.111111111088889,0.967297762478468,5.777790468286526e-10,0.9962021623881914,0
194,138.43055555555554,0.7805555555555372,0.7722222222222399,0.8097222222222058,0.9639794168096024,0.02901538016789969,0.9291795959493286,47.22222222222222,0.9444444444255556,0.9536878216123911,4.2431637766121924e-14,0.9965087643693145,0
195,139.20277777777778,0.7722222222222399,0.7583333333333258,0.7777777777777715,0.9928571428571736,0.02851307045188758,0.9130937843464907,47.22222222222222,0.9444444444255556,0.9749999999999982,3.3272531594057825e-14,0.9965259938189854,0
196,139.9611111111111,0.7583333333333258,0.76111111111112,0.7777777777777715,0.9749999999999982,0.0303361416803848,0.9714752557481977,52.77777777777778,1.0555555555344445,0.9785714285714479,2.987864122783179e-11,0.9959568727495218,0
197,140.72222222222223,0.76111111111112,0.74444444444444,0.7736111111111228,0.9838420107719894,0.03444152209549176,1.102944693448262,52.77777777777778,1.0555555555344445,0.9622980251346297,5.740668029829976e-08,0.9921098588427564,0
198,141.46666666666667,0.74444444444444,0.75,0.7736111111111228,0.9622980251346297,0.027961510986640615,0.8954308139461514,47.22222222222222,0.9444444444255556,0.9694793536804163,3.8944664008423724e-14,0.9980866369185573,0
199,142.21666666666667,0.75,0.7333333333333201,0.7666666666666799,0.9782608695652004,0.029707470651451018,0.9513428883875248,50.0,0.9999999999800001,0.956521739130401,1.7727437356604425e-12,0.997521171424531,0
200,142.95,0.7333333333333201,0.6833333333333371,0.7597222222222229,0.9652650822668921,0.031051911114148224,0.9943968355933919,52.77777777777778,1.0555555555344445,0.8994515539305344,2.974718804615861e-10,0.9948615150677571,0
201,143.63333333333333,0.6833333333333371,0.6861111111111313,0.7541666666666629,0.9060773480663079,0.02885401843507634,0.9240121975268755,47.22222222222222,0.9444444444255556,0.9097605893186317,4.35765278028466e-11,0.9910426779684134,0
202,144.31944444444446,0.6861111111111313,0.6805555555555429,0.7541666666666629,0.9097605893186317,0.029706563277539167,0.9513138309248994,44.44444444444444,0.8888888888711112,0.9023941068139841,1.2246469116572456e-10,0.9871079572117187,0
203,145.0,0.6805555555555429,0.7944444444444514,0.74722222222222,0.9107806691449672,0.030552947293912672,0.9784181719261579,52.77777777777778,1.0555555555344445,1.0631970260223174,2.600454784840167e-08,0.991719756137836,0
204,145.79444444444445,0.7944444444444514,0.8277777777777828,0.74722222222222,1.0631970260223174,0.03700620198671387,1.1850752122033306,61.111111111111114,1.2222222221977779,1.1078066914498241,0.0001434062432963401,0.9865297580116733,0
205,146.62222222222223,0.8277777777777828,0.7777777777777715,0.74722222222222,1.1078066914498241,0.03078354168416907,0.9858026556422687,52.77777777777778,1.0555555555344445,1.0408921933085449,1.1253124083607235e-12,0.9984775671822342,0
206,147.4,0.7777777777777715,0.6583333333333314,0.74722222222222,1.0408921933085449,0.02769311308310041,0.8868357221664808,50.0,0.9999999999800001,0.8810408921933086,1.5332148460447774e-14,0.9958552890606628,0
207,148.05833333333334,0.6583333333333314,0.6694444444444514,0.73888888888888,0.8909774436090306,0.029616181296603945,0.9484194662107193,50.0,0.9999999999800001,0.9060150375940053,1.0981517084562853e-10,0.9972125274377082,0
208,148.7277777777778,0.6694444444444514,0.6888888888888687,0.7097222222222257,0.9432485322896333,0.03146390960166408,1.007590548236359,47.22222222222222,0.9444444444255556,0.9706457925635675,1.9344115571584553e-06,0.980517430269268,0
209,149.41666666666666,0.6888888888888687,0.6888888888888971,0.6875,1.0020202020201727,0.026238391260934763,0.8402501586785359,47.22222222222222,0.9444444444255556,1.002020202020214,1.4920824992215032e-12,0.9902340323370797,0
210,150.10555555555555,0.6888888888888971,0.6999999999999886,0.6875,1.002020202020214,0.03237912913067674,1.036899256488741,52.77777777777778,1.0555555555344445,1.0181818181818016,6.057486530153255e-07,0.989124369254361,0
211,150.80555555555554,0.6999999999999886,0.7388888888889085,0.6888888888888829,1.016129032258057,0.03278836568763845,1.0500045219184893,55.55555555555556,1.111111111088889,1.072580645161328,4.945396199218521e-07,0.9921118019778605,0
212,151.54444444444445,0.7388888888889085,0.7472222222222058,0.6944444444444429,1.0640000000000307,0.029009290914711112,0.9289845955810875,52.77777777777778,1.0555555555344445,1.0759999999999788,2.240788284091355e-11,0.9987117846714008,0
213,152.29166666666666,0.7472222222222058,0.6833333333333371,0.7194444444444485,1.03861003861001,0.0289193221670892,0.9261034641232312,50.0,0.9999999999800001,0.9498069498069497,2.6249874669759254e-12,0.9938530152990686,0
214,152.975,0.6833333333333371,0.7194444444444628,0.6944444444444429,0.9840000000000076,0.031690617069021876,1.01485055833098,52.77777777777778,1.0555555555344445,1.0360000000000287,1.3770613094266082e-08,0.9950674428012749,0
215,153.69444444444446,0.7194444444444628,0.7638888888888857,0.6944444444444429,1.0360000000000287,0.03023045093262707,0.9680906478013489,50.0,0.9999999999800001,1.0999999999999979,1.1591297366386755e-10,0.9990534147191058,0
216,154.45833333333334,0.7638888888888857,0.669444444444423,0.6944444444444429,1.0999999999999979,0.028348552169621465,0.9078253015570965,44.44444444444444,0.8888888888711112,0.9639999999999713,1.158820625178289e-13,0.9909987524152677,0
217,155.12777777777777,0.669444444444423,0.6527777777777999,0.6944444444444429,0.9639999999999713,0.02751655266594922,0.8811816057592559,52.77777777777778,1.0555555555344445,0.9400000000000339,2.381669687856469e-11,0.9932931287411861,0
218,155.78055555555557,0.6527777777777999,0.669444444444423,0.6944444444444429,0.9400000000000339,0.027278849993093726,0.8735694885909862,44.44444444444444,0.8888888888711112,0.9639999999999713,2.315924578846773e-12,0.9926210511414386,0
219,156.45,0.669444444444423,0.6944444444444571,0.6944444444444429,0.9639999999999713,0.0259588259598025,0.8312974455986323,47.22222222222222,0.9444444444255556,1.0000000000000204,4.3139585870557995e-13,0.9942175187210562,0
220,157.14444444444445,0.6944444444444571,0.6944444444444571,0.6972222222222229,0.9960159362549973,0.029006637080967436,0.9288996100268264,50.0,0.9999999999800001,0.9960159362549973,2.565526090181347e-11,0.9964716795975548,0
221,157.8388888888889,0.6944444444444571,0.7638888888888857,0.6944444444444571,1.0,0.038159792405360785,1.2220174363922527,58.333333333333336,1.1666666666433334,1.0999999999999754,0.0012979604071006179,0.9897782031602946,0
222,158.6027777777778,0.7638888888888857,0.7749999999999773,0.6944444444444571,1.0999999999999754,0.03148243038226647,1.0081836520088139,55.55555555555556,1.111111111088889,1.115999999999947,2.2168229474317513e-09,0.996728734135713,0
223,159.37777777777777,0.7749999999999773,0.6777777777777771,0.6944444444444571,1.115999999999947,0.031297779161116965,1.0022704381868195,50.0,0.9999999999800001,0.9759999999999813,1.1878557165667658e-11,0.9982627909489166,0
224,160.05555555555554,0.6777777777777771,0.6611111111111256,0.6944444444444571,0.9759999999999813,0.030304264250869444,0.9704544227656352,50.0,0.9999999999800001,0.9520000000000036,2.542607235866967e-10,0.9952857124196619,0
225,160.71666666666667,0.6611111111111256,0.6638888888888914,0.6861111111111171,0.96356275303645,0.02686759692925821,0.8603996471663211,44.44444444444444,0.8888888888711112,0.9676113360323839,5.580111568127821e-13,0.9937858209576942,0
226,161.38055555555556,0.6638888888888914,0.7111111111111086,0.6736111111111001,0.9855670103092983,0.026382214946769997,0.8448559240870543,47.22222222222222,0.9444444444255556,1.055670103092797,1.4925551029484896e-12,0.9978132854593442,0
227,162.09166666666667,0.7111111111111086,0.7111111111111086,0.6861111111111171,1.03643724696355,0.031096556400197973,0.9958265424803153,50.0,0.9999999999800001,1.03643724696355,3.0608743317728226e-10,0.997714410198593,0
228,162.80277777777778,0.7111111111111086,0.75,0.6944444444444571,1.0239999999999778,0.030757899975765886,0.9849815134716112,47.22222222222222,0.9444444444255556,1.0799999999999803,2.1685195306098137e-10,0.9966403744012433,0
229,163.55277777777778,0.75,0.7305555555555543,0.7027777777777828,1.0671936758893203,0.02906294614285313,0.9307028340779494,50.0,0.9999999999800001,1.0395256916995954,3.206866629884564e-12,0.9975663777264756,0
230,164.28333333333333,0.7305555555555543,0.7111111111111086,0.7111111111111086,1.0273437500000018,0.028182274980244736,0.9025004920682453,50.0,0.9999999999800001,1.0,9.357543385990486e-12,0.9921202503771,0
231,164.99444444444444,0.7111111111111086,0.700000000000017,0.7111111111111086,1.0,0.030408670525715137,0.9737978971476466,61.111111111111114,1.2222222221977779,0.9843750000000275,7.860852235808125e-08,0.9870369315994936,0
232,165.69444444444446,0.700000000000017,0.7111111111111086,0.7111111111111086,0.9843750000000275,0.02921776434174867,0.9356606843857151,44.44444444444444,0.8888888888711112,1.0,1.1688226775330435e-10,0.9857492252770907,0
233,166.40555555555557,0.7111111111111086,0.7166666666666686,0.7111111111111086,1.0,0.029631600983284927,0.9489132615067655,47.22222222222222,0.9444444444255556,1.0078125000000062,0.003790011629462242,0.9546347914137585,0
234,167.12222222222223,0.7166666666666686,0.6666666666666572,0.7111111111111086,1.0078125000000062,0.03310164993018073,1.0600370399905692,52.77777777777778,1.0555555555344445,0.93749999999999,3.4553463592601474e-06,0.9845680761390309,0
235,167.7888888888889,0.6666666666666572,0.6750000000000114,0.7111111111111086,0.93749999999999,0.029987019596237962,0.9602950776768645,50.0,0.9999999999800001,0.9492187500000193,6.363647941931561e-10,0.9931792127672568,0
236,168.4638888888889,0.6750000000000114,0.6583333333333314,0.7111111111111086,0.9492187500000193,0.02571173837346792,0.8233847888522473,44.44444444444444,0.8888888888711112,0.9257812500000007,8.049894504777964e-15,0.9943925820856673,0
237,169.12222222222223,0.6583333333333314,0.7361111111110858,0.7111111111111086,0.9257812500000007,0.02936380008643753,0.94033728808551,50.0,0.9999999999800001,1.0351562499999682,3.0609503820500095e-10,0.997277084268364,0
238,169.85833333333332,0.7361111111110858,0.8000000000000114,0.7111111111111086,1.0351562499999682,0.03288487127772457,1.0530949872056639,55.55555555555556,1.111111111088889,1.12500000000002,6.011028830243959e-08,0.9953522854145401,0
239,170.65833333333333,0.8000000000000114,0.75,0.7111111111111086,1.12500000000002,0.030700117747651412,0.9831311131990048,52.77777777777778,1.0555555555344445,1.0546875000000038,1.939270098672008e-11,0.9965576983286217,0
240,171.40833333333333,0.75,0.6694444444444514,0.7111111111111086,1.0546875000000038,0.02905160345795483,0.9303395994310208,52.77777777777778,1.0555555555344445,0.9414062500000131,2.8092797185741425e-12,0.9980002608473172,0
241,172.07777777777778,0.6694444444444514,0.6527777777777715,0.7055555555555628,0.9488188976377954,0.02688275617528255,0.860885102191011,50.0,0.9999999999800001,0.9251968503936823,8.258156528398453e-13,0.996244767185757,0
242,172.73055555555555,0.6527777777777715,0.6750000000000114,0.69305555555556,0.941883767535055,0.025986465654854664,0.8321825706782322,47.22222222222222,0.9444444444255556,0.9739478957915934,5.549215058818502e-13,0.9945528067215685,0
243,173.40555555555557,0.6750000000000114,0.6861111111111029,0.6750000000000114,1.0,0.02555599948536776,0.8183974546770225,44.44444444444444,0.8888888888711112,1.0164609053497649,9.887635821865734e-14,0.9931447937146588,0
244,174.09166666666667,0.6861111111111029,0.6916666666666629,0.6750000000000114,1.0164609053497649,0.02729739409786536,0.8741633392894517,52.77777777777778,1.0555555555344445,1.0246913580246684,5.718998191683866e-11,0.9932749519167572,0
245,174.78333333333333,0.6916666666666629,0.7222222222222285,0.6805555555555571,1.0163265306122369,0.028541245410102382,0.9139960505287164,52.77777777777778,1.0555555555344445,1.061224489795925,7.585526096143269e-10,0.992254228472641,0
246,175.50555555555556,0.7222222222222285,0.7333333333333201,0.6888888888888829,1.048387096774212,0.029139298694862956,0.9331479246821621,50.0,0.9999999999800001,1.064516129032248,6.402237767710872e-11,0.9954058420125179,0
247,176.23888888888888,0.7333333333333201,0.5222222222222399,0.7069444444444457,1.0373280943025334,0.03197013201830885,1.0238016589589014,52.77777777777778,1.0555555555344445,0.7387033398821455,3.9277303631735094e-10,0.9972886898366448,0
248,176.76111111111112,0.5222222222222399,0.63055555555556,0.6888888888888829,0.7580645161290646,0.03246996848129608,1.0398082678687868,41.666666666666664,0.8333333333166667,0.9153225806451757,0.9975661039352417,0.9518707059663614,1
249,177.39166666666668,0.63055555555556,0.9694444444444343,0.6805555555555571,0.9265306122449023,0.04967395970988877,1.5907435830705068,116.66666666666667,2.333333333286667,1.4244897959183491,0.9990304708480835,0.8940539379511192,1
250,178.36111111111111,0.9694444444444343,0.51111111111112,0.6805555555555571,1.4244897959183491,0.03181037900231567,1.0186857775886324,50.0,0.9999999999800001,0.7510204081632765,3.919525531773712e-15,0.996971072695528,0
251,178.87222222222223,0.51111111111112,0.6499999999999773,0.6805555555555571,0.7510204081632765,0.04104571653052737,1.3144353815318912,94.44444444444444,1.8888888888511113,0.9551020408162909,0.9972209930419922,0.5675389458918918,1
252,179.5222222222222,0.6499999999999773,0.8583333333333485,0.6805555555555571,0.9551020408162909,0.049795854828570386,1.5946471147998647,111.11111111111111,2.222222222177778,1.2612244897959377,0.9984094500541687,0.8947769386818998,1
253,180.38055555555556,0.8583333333333485,0.48888888888888005,0.6888888888888829,1.2459677419355166,0.028581654813376017,0.9152901088105337,44.44444444444444,0.8888888888711112,0.7096774193548321,1.3988185317599254e-16,0.9934625903474803,0
254,180.86944444444444,0.48888888888888005,0.9138888888888914,0.6708333333333201,0.7287784679089039,0.04289069363060304,1.3735183598166514,105.55555555555556,2.111111111068889,1.3623188405797408,0.9974327683448792,0.5974050010974667,1
255,181.78333333333333,0.9138888888888914,0.5416666666666572,0.6861111111111029,1.3319838056680358,0.029707681734970667,0.9513496480611311,52.77777777777778,1.0555555555344445,0.789473684210522,5.573723703037421e-15,0.9978113090364362,0
256,182.325,0.5416666666666572,0.9777777777777885,0.6402777777777686,0.8459869848156155,0.047663528443538855,1.5263621515351868,91.66666666666667,1.8333333332966668,1.5271149674620776,0.9988940358161926,0.5055284452906647,1
257,183.30277777777778,0.9777777777777885,0.50555555555556,0.6402777777777686,1.5271149674620776,0.0324194068946424,1.038189099193913,52.77777777777778,1.0555555555344445,0.7895878524945952,1.2070554245794535e-13,0.9978872954992044,0
258,183.80833333333334,0.50555555555556,0.8555555555555543,0.6402777777777686,0.7895878524945952,0.04499643816440675,1.440952074066478,83.33333333333333,1.6666666666333334,1.3362255965293013,0.998941957950592,0.5467115342659689,1
259,184.6638888888889,0.8555555555555543,0.4611111111111086,0.7527777777777658,1.1365313653136695,0.027805550225630443,0.8904363745812072,47.22222222222222,0.9444444444255556,0.612546125461261,2.1857071435882706e-17,0.9964911114788284,0
260,185.125,0.4611111111111086,0.8611111111111143,0.5958333333333172,0.7738927738927905,0.041454611395032794,1.327529704707682,77.77777777777777,1.5555555555244445,1.4452214452214895,0.998729407787323,0.5790010294140712,1
261,185.98611111111111,0.8611111111111143,0.549999999999983,0.7527777777777658,1.1439114391144136,0.028791413890247006,0.9220073688693669,50.0,0.9999999999800001,0.7306273062730517,8.209004985238475e-16,0.9969463329973831,0
262,186.5361111111111,0.549999999999983,0.88611111111112,0.7027777777777686,0.7826086956521598,0.047473406194966504,1.520273735216421,86.11111111111111,1.7222222221877779,1.2608695652174202,0.998824417591095,0.5648078171952992,1
263,187.42222222222222,0.88611111111112,0.5388888888888914,0.7027777777777686,1.2608695652174202,0.0321206693045762,1.0286224186394501,55.55555555555556,1.111111111088889,0.7667984189723456,1.3754788974473797e-11,0.9960609975375236,0
264,187.9611111111111,0.5388888888888914,0.9222222222222172,0.7027777777777686,0.7667984189723456,0.04576577149353965,1.4655889675959626,83.33333333333333,1.6666666666333334,1.3122529644268874,0.9987679123878479,0.53619946997045,1
265,188.88333333333333,0.9222222222222172,0.5333333333333314,0.7027777777777686,1.3122529644268874,0.030045509560491738,0.9621681422735691,52.77777777777778,1.0555555555344445,0.7588932806324182,6.1221216322100615e-15,0.9971731629811571,0
266,189.41666666666666,0.5333333333333314,0.9027777777777999,0.7027777777777686,0.7588932806324182,0.04455678027437171,1.4268726052380583,94.44444444444444,1.8888888888511113,1.2845849802372022,0.9983385801315308,0.5246686924466014,1
267,190.31944444444446,0.9027777777777999,0.5138888888888857,0.7027777777777686,1.2845849802372022,0.03072856598780071,0.984042130877713,50.0,0.9999999999800001,0.7312252964426927,4.4223005723413415e-15,0.9981969045408228,0
268,190.83333333333334,0.5138888888888857,0.9361111111111029,0.7027777777777686,0.7312252964426927,0.04589145188956645,1.469613717880921,91.66666666666667,1.8333333332966668,1.3320158102766855,0.9980394244194031,0.5188572496615834,1
269,191.76944444444445,0.9361111111111029,0.48333333333332007,0.7055555555555486,1.3267716535433085,0.027541700497234978,0.8819869321612499,47.22222222222222,0.9444444444255556,0.6850393700787281,1.2911701029742084e-18,0.995428647298465,0
270,192.25277777777777,0.48333333333332007,0.8916666666666799,0.7055555555555486,0.6850393700787281,0.04329264467049154,1.3863903160920408,86.11111111111111,1.7222222221877779,1.2637795275590864,0.9976807832717896,0.5195693247913474,1
271,193.14444444444445,0.8916666666666799,0.6166666666666742,0.7180555555555515,1.2417794970986715,0.029388201748397354,0.941118719390877,50.0,0.9999999999800001,0.8588007736944062,1.0560412916046143e-15,0.9979907320237966,0
272,193.76111111111112,0.6166666666666742,0.9638888888888744,0.7513888888888971,0.8207024029574873,0.043450609099002044,1.3914489202877611,108.33333333333333,2.166666666623333,1.2828096118299113,0.9985032081604004,0.5946335481616262,1
273,194.725,0.9638888888888744,0.5694444444444571,0.7541666666666771,1.278084714548766,0.03199191211398445,1.0244991380331885,55.55555555555556,1.111111111088889,0.7550644567219216,1.4949902481329463e-13,0.9959900815133693,0
274,195.29444444444445,0.5694444444444571,0.86944444444444,0.7541666666666771,0.7550644567219216,0.039284123650183765,1.2580226738122884,94.44444444444444,1.8888888888511113,1.1528545119705123,0.9976116418838501,0.6117109644672623,1
275,196.1638888888889,0.86944444444444,0.49444444444444,0.7430555555555571,1.1700934579439168,0.027518409249920925,0.881241060432422,47.22222222222222,0.9444444444255556,0.6654205607476562,8.593770462534904e-18,0.996626355913628,0
276,196.65833333333333,0.49444444444444,0.8055555555555713,0.7430555555555571,0.6654205607476562,0.042212526323946724,1.3518009389061338,91.66666666666667,1.8333333332966668,1.0841121495327293,0.9958072900772095,0.544899630791231,1
277,197.4638888888889,0.8055555555555713,0.4805555555555543,0.7111111111111228,1.1328125000000036,0.030685948029104994,0.9826773464974318,50.0,0.9999999999800001,0.6757812499999871,2.640161310060729e-12,0.9923387609144074,0
278,197.94444444444446,0.4805555555555543,0.8805555555555316,0.7111111111111228,0.6757812499999871,0.038942861286489744,1.247094193007452,86.11111111111111,1.7222222221877779,1.2382812499999458,0.9974602460861206,0.5282632140276162,1
279,198.825,0.8805555555555316,0.6722222222222456,0.7111111111111228,1.2382812499999458,0.028359164058615258,0.9081651334211098,50.0,0.9999999999800001,0.9453125000000173,7.022042893174447e-16,0.9969516405909862,0
280,199.49722222222223,0.6722222222222456,0.8111111111111029,0.7388888888889085,0.9097744360902331,0.04380303846767082,1.4027350098197748,113.88888888888889,2.277777777732222,1.0977443609022155,0.9973982572555542,0.5819076131089795,1
281,200.30833333333334,0.8111111111111029,0.5777777777777828,0.7388888888889085,1.0977443609022155,0.03218198462224206,1.030585961483438,52.77777777777778,1.0555555555344445,0.7819548872180312,5.868852626100818e-11,0.9949628316862459,0
282,200.88611111111112,0.5777777777777828,0.8194444444444287,0.7388888888889085,0.7819548872180312,0.041681589022902095,1.3347983663392968,100.0,1.9999999999600002,1.1090225563909266,0.9977523684501648,0.5738746952845669,1
283,201.70555555555555,0.8194444444444287,0.5277777777777715,0.7388888888889085,1.1090225563909266,0.0299081392122246,0.9577690365593006,52.77777777777778,1.0555555555344445,0.7142857142856868,2.350205533657723e-13,0.9972577840601353,0
284,202.23333333333332,0.5277777777777715,0.8972222222222399,0.7388888888889085,0.7142857142856868,0.04328847832338909,1.3862568942759268,94.44444444444444,1.8888888888511113,1.214285714285706,0.9975207448005676,0.5171413752674068,1
285,203.13055555555556,0.8972222222222399,0.5027777777777658,0.7388888888889085,1.214285714285706,0.03047783253802668,0.9760127201236963,47.22222222222222,0.9444444444255556,0.6804511278195146,5.847206607145956e-16,0.9964323399941168,0
286,203.63333333333333,0.5027777777777658,0.8138888888888971,0.7388888888889085,0.6804511278195146,0.043484221439161135,1.3925253115143177,91.66666666666667,1.8333333332966668,1.1015037593984782,0.996145486831665,0.5528340685471649,1
287,204.44722222222222,0.8138888888888971,0.5166666666666799,0.7416666666666742,1.0973782771535578,0.026125439681904925,0.8366330321078183,44.44444444444444,0.8888888888711112,0.6966292134831569,9.55823245108907e-18,0.9913200071826939,0
288,204.9638888888889,0.5166666666666799,0.8555555555555543,0.7416666666666742,0.6966292134831569,0.03993102182020958,1.2787387415241958,88.88888888888889,1.7777777777422223,1.1535580524344435,0.9972566962242126,0.5306024067101512,1
289,205.81944444444446,0.8555555555555543,0.5166666666666515,0.7416666666666742,1.1535580524344435,0.029804342195521225,0.9544450728723493,52.77777777777778,1.0555555555344445,0.6966292134831185,9.625999541733321e-14,0.9948025386617849,0
290,206.3361111111111,0.5166666666666515,0.88055555555556,0.6944444444444429,0.7439999999999799,0.04100899930768376,1.313259560498743,97.22222222222223,1.9444444444055557,1.2680000000000093,0.9980425834655762,0.5688690368041945,1
291,207.21666666666667,0.88055555555556,0.7111111111111086,0.69583333333334,1.2654690618762419,0.0283283144258372,0.907177214284637,52.77777777777778,1.0555555555344445,1.0219560878243379,2.775520630926391e-14,0.994264671117069,0
292,207.92777777777778,0.7111111111111086,0.6416666666666799,0.7625000000000028,0.9326047358834176,0.03006438238459676,0.9627725197787009,52.77777777777778,1.0555555555344445,0.841530054644823,6.404131391857248e-11,0.9963898235673321,0
293,208.56944444444446,0.6416666666666799,0.6499999999999773,0.6763888888888943,0.9486652977412852,0.03188803378760164,1.0211725705101113,55.55555555555556,1.111111111088889,0.9609856262833263,1.3501437479135348e-07,0.9944862759386168,0
294,209.21944444444443,0.6499999999999773,0.5527777777777771,0.6805555555555429,0.9551020408163109,0.029786174873723058,0.9538632881557534,44.44444444444444,0.8888888888711112,0.8122448979591979,9.882419362838846e-07,0.970579507896641,0
295,209.7722222222222,0.5527777777777771,0.7444444444444684,0.6458333333333286,0.8559139784946289,0.027603738875932125,0.8839736300889558,47.22222222222222,0.9444444444255556,1.1526881720430564,7.592133499656484e-08,0.9942700843251833,0
296,210.51666666666668,0.7444444444444684,0.7583333333333258,0.6805555555555429,1.0938775510204637,0.03169167489556922,1.0148844338424554,50.0,0.9999999999800001,1.1142857142857239,3.2288685059000954e-09,0.9950395078293275,0
297,211.275,0.7583333333333258,0.7638888888888857,0.6805555555555429,1.1142857142857239,0.029048187376605927,0.9302302038942698,47.22222222222222,0.9444444444255556,1.1224489795918529,4.2611511541501557e-11,0.9915852412402564,0
298,212.0388888888889,0.7638888888888857,0.6944444444444287,0.7277777777777885,1.0496183206106673,0.033098069708500766,1.0599223880744217,52.77777777777778,1.0555555555344445,0.9541984732824069,4.121727403827435e-09,0.9938634337035606,0
299,212.73333333333332,0.6944444444444287,0.7166666666666686,0.7027777777777686,0.988142292490109,0.031235402180292964,1.0002728969689139,52.77777777777778,1.0555555555344445,1.0197628458498185,3.4763416589811413e-09,0.9950481390696129,0
300,213.45,0.7166666666666686,0.7194444444444628,0.7138888888888886,1.0038910505836607,0.03141104880422292,1.0058977503435274,50.0,0.9999999999800001,1.0077821011673413,5.272621783625198e-10,0.9954821896421411,0
301,214.16944444444445,0.7194444444444628,0.6833333333333371,0.7138888888888886,1.0077821011673413,0.027251507632445406,0.8726938852567374,47.22222222222222,0.9444444444255556,0.9571984435797722,8.079448161934025e-14,0.9955302570223469,0
302,214.8527777777778,0.6833333333333371,0.6055555555555543,0.7055555555555486,0.968503937007889,0.030795231564988996,0.9861770087844333,50.0,0.9999999999800001,0.8582677165354398,5.789765822328263e-08,0.9840079957868726,0
303,215.45833333333334,0.6055555555555543,0.8083333333333371,0.7055555555555486,0.8582677165354398,0.039092397827769,1.2518829051387939,86.11111111111111,1.7222222221877779,1.1456692913385993,0.9975805282592773,0.9543790397908228,1
304,216.26666666666668,0.8083333333333371,0.5166666666666515,0.7180555555555657,1.1257253384912853,0.02826727260295799,0.9052224297534434,44.44444444444444,0.8888888888711112,0.7195357833655394,3.5761529862751587e-16,0.9945738658815497,0
305,216.78333333333333,0.5166666666666515,0.9250000000000114,0.7180555555555657,0.7195357833655394,0.040789600647115086,1.3062336053811685,97.22222222222223,1.9444444444055557,1.2882011605415837,0.9976561069488525,0.5668291994322713,1
306,217.70833333333334,0.9250000000000114,0.5249999999999773,0.7180555555555657,1.2882011605415837,0.03189322791606074,1.0213389056797697,52.77777777777778,1.0555555555344445,0.7311411992262636,2.5385425640907233e-13,0.9951045150053777,0
307,218.23333333333332,0.5249999999999773,1.069444444444457,0.7055555555555486,0.7440944881889515,0.044522605895440444,1.4257782154550045,102.77777777777777,2.0555555555144442,1.5157480314960958,0.9975833892822266,0.5349724575247246,1
308,219.30277777777778,1.069444444444457,0.5083333333333258,0.7055555555555486,1.5157480314960958,0.028829436739480793,0.9232250008798196,47.22222222222222,0.9444444444255556,0.7204724409448783,9.82378113161302e-21,0.9988570689018716,0
309,219.8111111111111,0.5083333333333258,0.8888888888888857,0.7000000000000028,0.7261904761904624,0.045960663594116935,1.4718301321859224,91.66666666666667,1.8333333332966668,1.2698412698412602,0.9980548620223999,0.5257459201180983,1
310,220.7,0.8888888888888857,0.5666666666666913,0.7013888888888999,1.267326732673243,0.0275388171655147,0.8818945972344857,44.44444444444444,0.8888888888711112,0.8079207920792303,2.1982507420075962e-16,0.9849641030676468,0
311,221.26666666666668,0.5666666666666913,0.7777777777777715,0.6444444444444457,0.8793103448276227,0.03809484876406982,1.2199377012302446,69.44444444444444,1.3888888888611113,1.2068965517241257,0.9993695616722107,0.5484229319428316,1
312,222.04444444444445,0.7777777777777715,0.6638888888888914,0.6916666666666629,1.1244979919678686,0.029013521269564205,0.9291200671616897,47.22222222222222,0.9444444444255556,0.9598393574297278,1.3184413413455665e-13,0.9956451035206797,0
313,222.70833333333334,0.6638888888888914,0.7361111111111143,0.7208333333333314,0.9210019267822795,0.029526316128480883,0.9455416517508253,50.0,0.9999999999800001,1.021194605009641,2.3837706808471637e-10,0.9975253074886776,0
314,223.44444444444446,0.7361111111111143,0.6833333333333087,0.7000000000000028,1.0515873015873018,0.031474230193001294,1.007921051673956,52.77777777777778,1.0555555555344445,0.9761904761904371,1.896452023197881e-10,0.9983351943169596,0
315,224.12777777777777,0.6833333333333087,0.7944444444444514,0.7097222222222115,0.9628180039138742,0.043843991288365095,1.4040464703336641,100.0,1.9999999999600002,1.1193737769080503,0.9976857900619507,0.5366930483649197,1
316,224.92222222222222,0.7944444444444514,0.5444444444444514,0.7097222222222115,1.1193737769080503,0.03579211937950826,1.1461958048033734,55.55555555555556,1.111111111088889,0.7671232876712543,2.8510962692962494e-06,0.9903598449687554,0
317,225.46666666666667,0.5444444444444514,0.8111111111111029,0.7097222222222115,0.7671232876712543,0.03769272572558397,1.2070602369247598,97.22222222222223,1.9444444444055557,1.1428571428571486,0.9979414343833923,0.6120817469072594,1
318,226.27777777777777,0.8111111111111029,0.5333333333333314,0.7097222222222115,1.1428571428571486,0.030212720569603595,0.9675228561179433,47.22222222222222,0.9444444444255556,0.7514677103718287,5.640947778329242e-13,0.9897754492583322,0
319,226.8111111111111,0.5333333333333314,0.8638888888889085,0.7097222222222115,0.7514677103718287,0.04239687138229076,1.357704348264763,91.66666666666667,1.8333333332966668,1.2172211350294002,0.998354971408844,0.5310395044448992,1
320,227.675,0.8638888888889085,0.5,0.7097222222222115,1.2172211350294002,0.02906382660901011,0.9307310298549221,47.22222222222222,0.9444444444255556,0.7045009784735918,4.568982008971198e-16,0.9958546430471324,0
321,228.175,0.5,0.794444444444423,0.7097222222222115,0.7045009784735918,0.0431713535267582,1.3825061258703646,88.88888888888889,1.7777777777422223,1.11937377690801,0.9973551034927368,0.5411467626887994,1
322,228.96944444444443,0.794444444444423,0.50555555555556,0.7097222222222115,1.11937377690801,0.03035506207287811,0.9720811565687419,50.0,0.9999999999800001,0.7123287671233047,3.2256733091887146e-13,0.9975795330115345,0
323,229.475,0.50555555555556,0.42500000000001137,0.7097222222222115,0.7123287671233047,0.03951350557253213,1.265368329829628,83.33333333333333,1.6666666666333334,0.5988258317025691,0.9984205961227417,0.6337812373510646,1
324,229.9,0.42500000000001137,1.1611111111110972,0.61388888888888,0.6923076923077208,0.030546248895453022,0.9782036644774107,47.22222222222222,0.9444444444255556,1.8914027149321313,0.9702278971672058,0.95293131051542,1
325,231.0611111111111,1.1611111111110972,0.5194444444444457,0.6694444444444372,1.7344398340248943,0.031130262422354366,0.9969059337502938,50.0,0.9999999999800001,0.7759336099585166,9.512835951891547e-18,0.9891196493919451,0
326,231.58055555555555,0.5194444444444457,0.8305555555555486,0.5388888888888914,0.9639175257731937,0.0432465846638949,1.384915304630146,91.66666666666667,1.8333333332966668,1.5412371134020417,0.9986353516578674,0.5541949122928052,1
327,232.4111111111111,0.8305555555555486,0.6722222222222456,0.6638888888888772,1.251046025104614,0.024293137289418884,0.7779559447543076,41.666666666666664,0.8333333333166667,1.012552301255283,1.70964198337566e-14,0.9693789247714542,0
328,233.08333333333334,0.6722222222222456,0.5999999999999943,0.6027777777777885,1.1152073732719083,0.023649774246611795,0.7573530848674129,41.666666666666664,0.8333333333166667,0.9953917050690972,1.2109220570710733e-10,0.9659957833128288,0
329,233.68333333333334,0.5999999999999943,0.63055555555556,0.63611111111112,0.9432314410480129,0.025591618193159835,0.8195380972025715,41.666666666666664,0.8333333333166667,0.9912663755458447,1.7732822155114292e-11,0.9867721879144113,0
330,234.3138888888889,0.63055555555556,0.674999999999983,0.6152777777777771,1.0248306997742747,0.024824717422936245,0.7949791031902188,41.666666666666664,0.8333333333166667,1.0970654627539238,4.168415959626692e-11,0.9837779855821291,0
331,234.98888888888888,0.674999999999983,0.6944444444444571,0.6513888888889028,1.0362473347547492,0.03274392886061908,1.0485814906593363,58.333333333333336,1.1666666666433334,1.0660980810234508,5.615647023660131e-05,0.9863842598934345,0
332,235.68333333333334,0.6944444444444571,0.7027777777777828,0.6513888888889028,1.0660980810234508,0.03229001388725899,1.034045457386586,47.22222222222222,0.9444444444255556,1.0788912579957204,4.0928869566414505e-05,0.9783501331809925,0
333,236.38611111111112,0.7027777777777828,0.6111111111111143,0.6736111111111143,1.0432989690721675,0.029950481478276947,0.9591249922433011,52.77777777777778,1.0555555555344445,0.9072164948453613,7.36401356560279e-11,0.9977057167927632,0
334,236.99722222222223,0.6111111111111143,0.6361111111110915,0.6736111111111143,0.9072164948453613,0.029423048550498647,0.9422346426463795,50.0,0.9999999999800001,0.944329896907183,5.262567810859764e-06,0.9790292275855486,0
335,237.63333333333333,0.6361111111110915,0.6777777777777771,0.6541666666666686,0.972399150743067,0.03062765752883165,0.9808106694737894,47.22222222222222,0.9444444444255556,1.0360934182590193,8.955856500847403e-09,0.9937970110689415,0
336,238.3111111111111,0.6777777777777771,0.5305555555555657,0.6736111111111143,1.0061855670103037,0.02989483133845802,0.9573428693094551,47.22222222222222,0.9444444444255556,0.7876288659793927,2.461207714077318e-06,0.9690322961190887,0
337,238.84166666666667,0.5305555555555657,0.6888888888888971,0.6541666666666686,0.8110403397027732,0.030141694591105734,0.9652483420629608,47.22222222222222,0.9444444444255556,1.0530785562632792,7.023248826953932e-07,0.9953423138966413,0
338,239.53055555555557,0.6888888888888971,0.674999999999983,0.6555555555555372,1.0508474576271605,0.02998997712664719,0.9603897887195858,47.22222222222222,0.9444444444255556,1.0296610169491553,1.386965958749542e-10,0.9965230721294711,0
339,240.20555555555555,0.674999999999983,0.6138888888889085,0.674999999999983,1.0,0.02952908012071007,0.9456301649864907,50.0,0.9999999999800001,0.9094650205761837,2.2837549559784343e-11,0.9981828874426325,0
340,240.81944444444446,0.6138888888889085,0.6472222222222115,0.674999999999983,0.9094650205761837,0.02878656925714342,0.9218522258313068,47.22222222222222,0.9444444444255556,0.9588477366255227,5.6702944423170365e-11,0.9978018814439162,0
341,241.46666666666667,0.6472222222222115,0.6472222222222115,0.6611111111110972,0.9789915966386598,0.029660394429892052,0.9498353339707339,47.22222222222222,0.9444444444255556,0.9789915966386598,3.3185523307111e-07,0.9798376527798779,0
342,242.11388888888888,0.6472222222222115,0.5,0.6472222222222115,1.0,0.03747059830394548,1.1999468968033142,75.0,1.49999999997,0.7725321888412146,0.00825923029333353,0.9888466856649321,0
343,242.61388888888888,0.5,0.9055555555555657,0.6416666666666515,0.7792207792207976,0.027478893072997567,0.8799756065560765,41.666666666666664,0.8333333333166667,1.4112554112554603,0.4094322621822357,0.9698690544716119,0
344,243.51944444444445,0.9055555555555657,0.5,0.6472222222222115,1.3991416309013265,0.03252869925680452,1.041689044130926,50.0,0.9999999999800001,0.7725321888412146,7.242871667006989e-13,0.9966470847911711,0
345,244.01944444444445,0.5,0.8055555555555429,0.6472222222222115,0.7725321888412146,0.040067671949454965,1.283114783166384,83.33333333333333,1.6666666666333334,1.2446351931330484,0.9987097978591919,0.549983838755439,1
346,244.825,0.8055555555555429,0.6138888888889085,0.6472222222222115,1.2446351931330484,0.02745448964875481,0.8791941188159037,44.44444444444444,0.8888888888711112,0.9484978540772993,3.814675981914312e-15,0.9930670510344533,0
347,245.4388888888889,0.6138888888889085,0.5972222222222001,0.6472222222222115,0.9484978540772993,0.02617914016226679,0.838352719747828,47.22222222222222,0.9444444444255556,0.922746781115861,1.4952561758208027e-12,0.9959059007682665,0
348,246.0361111111111,0.5972222222222001,0.63611111111112,0.63055555555556,0.9471365638766103,0.02974259909490885,0.9524678308390659,50.0,0.9999999999800001,1.0088105726872316,4.039092615926165e-09,0.9979392669463791,0
349,246.67222222222222,0.63611111111112,0.6555555555555657,0.6250000000000142,1.0177777777777688,0.024603731418061874,0.7879023154475998,38.888888888888886,0.7777777777622222,1.0488888888888812,1.0761179274065835e-12,0.984239046389175,0
350,247.32777777777778,0.6555555555555657,0.6861111111111029,0.6416666666666657,1.021645021645039,0.032464359155027996,1.0396286365324001,52.77777777777778,1.0555555555344445,1.069264069264058,2.509458454369451e-06,0.9921932979892705,0
351,248.01388888888889,0.6861111111111029,0.7361111111111143,0.6416666666666657,1.069264069264058,0.03296756814771661,1.0557432462944931,55.55555555555556,1.111111111088889,1.1471861471861537,2.3395870812237263e-05,0.989607854914494,0
352,248.75,0.7361111111111143,0.6555555555555657,0.6458333333333428,1.1397849462365472,0.032127617299422775,1.028844919086001,47.22222222222222,0.9444444444255556,1.015053763440861,1.345786245110503e-06,0.9792841369625584,0
353,249.40555555555557,0.6555555555555657,0.61944444444444,0.6555555555555657,1.0,0.03234165031861841,1.0356990465571976,55.55555555555556,1.111111111088889,0.9449152542372669,4.28808971264516e-06,0.9897239243710353,0
354,250.025,0.61944444444444,0.6111111111111143,0.6458333333333428,0.9591397849462157,0.02904448910900371,0.9301117717118735,50.0,0.9999999999800001,0.946236559139776,3.9454650657688717e-10,0.9957977269544679,0
355,250.63611111111112,0.6111111111111143,0.6555555555555372,0.6458333333333428,0.946236559139776,0.025849913239602604,0.8278096581988642,38.888888888888886,0.7777777777622222,1.015053763440817,1.6717226561380194e-12,0.9896370382957091,0
356,251.29166666666666,0.6555555555555372,0.6666666666666856,0.6458333333333286,1.0150537634408392,0.030133970127732508,0.9650009762275132,50.0,0.9999999999800001,1.0322580645161659,1.137559291208845e-08,0.9926477997006208,0
357,251.95833333333334,0.6666666666666856,0.6555555555555372,0.6555555555555515,1.0169491525424081,0.030728797251870152,0.984049536807029,47.22222222222222,0.9444444444255556,0.9999999999999784,2.3296089501911865e-09,0.9931533622202354,0
358,252.61388888888888,0.6555555555555372,0.6472222222222399,0.6555555555555515,0.9999999999999784,0.032030917232842376,1.0257482259434842,55.55555555555556,1.111111111088889,0.9872881355932535,1.7805810159643443e-07,0.9954037811483554,0
359,253.26111111111112,0.6472222222222399,0.6527777777777715,0.6555555555555515,0.9872881355932535,0.028119721378764527,0.9004972948048553,44.44444444444444,0.8888888888711112,0.9957627118644033,5.293366439618197e-11,0.9920850422373493,0
360,253.9138888888889,0.6527777777777715,0.7083333333333428,0.6555555555555372,0.995762711864425,0.029981643700044348,0.9601229216332717,47.22222222222222,0.9444444444255556,1.0805084745763158,1.5664197716702688e-09,0.9958009085197914,0
361,254.62222222222223,0.7083333333333428,0.6527777777777715,0.6555555555555372,1.0805084745763158,0.03296164675240392,1.0555536213551588,55.55555555555556,1.111111111088889,0.995762711864425,1.5346977022545616e-07,0.9965247289202512,0
362,255.275,0.6527777777777715,0.6722222222222172,0.6541666666666544,0.9978768577494783,0.027411603732824974,0.8778207534557046,50.0,0.9999999999800001,1.0276008492569118,4.366346520456865e-11,0.9961842832682644,0
363,255.94722222222222,0.6722222222222172,0.6777777777777771,0.6541666666666544,1.0276008492569118,0.031868778866077675,1.020555956834945,50.0,0.9999999999800001,1.036093418259042,1.226879078330967e-07,0.9921437085620882,0
364,256.625,0.6777777777777771,0.5416666666666856,0.6555555555555372,1.0338983050847737,0.029655457730857968,0.9496772426416777,50.0,0.9999999999800001,0.8262711864407299,7.347629171761128e-10,0.9895538877459007,0
365,257.1666666666667,0.5416666666666856,0.7111111111111086,0.6555555555555372,0.8262711864407299,0.040563396610654154,1.2989897170025007,86.11111111111111,1.7222222221877779,1.0847457627118908,0.9988425970077515,0.5137349572791555,1
366,257.8777777777778,0.7111111111111086,0.5500000000000114,0.6611111111111114,1.075630252100836,0.027442971306448793,0.878825258970264,44.44444444444444,0.8888888888711112,0.8319327731092605,3.852563342128523e-13,0.9883937473585926,0
367,258.4277777777778,0.5500000000000114,0.7083333333333144,0.6541666666666544,0.8407643312102243,0.026376544624540605,0.8446743394347933,44.44444444444444,0.8888888888711112,1.082802547770692,9.975273940199259e-08,0.9834834048075378,0
368,259.1361111111111,0.7083333333333144,0.6194444444444116,0.6624999999999943,1.0691823899370876,0.03151893314619174,1.0093526052756279,55.55555555555556,1.111111111088889,0.935010482180252,7.200351426206453e-09,0.9962080654334722,0
369,259.75555555555553,0.6194444444444116,0.8555555555555543,0.6624999999999943,0.935010482180252,0.04802553976692342,1.5379550906331791,125.0,2.49999999995,1.2914046121593383,0.9986149072647095,0.4718925147840821,1
370,260.6111111111111,0.8555555555555543,0.6277777777777942,0.6749999999999972,1.26748971193416,0.03239670735344584,1.037462176079509,52.77777777777778,1.0555555555344445,0.9300411522634028,2.727408299207923e-10,0.9921063764594498,0
371,261.2388888888889,0.6277777777777942,0.6861111111111313,0.6624999999999943,0.9475890985325277,0.03545596027134101,1.1354307490814048,91.66666666666667,1.8333333332966668,1.035639412997943,0.9972577691078186,0.5547230407194765,1
372,261.925,0.6861111111111313,0.625,0.6749999999999972,1.0164609053498284,0.030989987556716652,0.9924138146665227,50.0,0.9999999999800001,0.9259259259259298,2.2585448788969842e-10,0.9977832343007729,0
373,262.55,0.625,0.6111111111110858,0.6527777777777857,0.9574468085106267,0.029489511132715574,0.9443630199046721,47.22222222222222,0.9444444444255556,0.9361702127659074,2.3314747354952203e-10,0.9952996981971216,0
374,263.1611111111111,0.6111111111110858,0.63611111111112,0.6263888888888971,0.9756097560975079,0.0270103986561204,0.864972685675514,41.666666666666664,0.8333333333166667,1.0155210643015529,6.947787484223866e-11,0.9901929927839193,0
375,263.7972222222222,0.63611111111112,0.6388888888889142,0.6319444444444571,1.0065934065934006,0.03006908348027318,0.9629230662184117,50.0,0.9999999999800001,1.0109890109890307,3.701527306887442e-09,0.9960490081773776,0
376,264.43611111111113,0.6388888888889142,0.5777777777777828,0.6319444444444571,1.0109890109890307,0.03341706013729062,1.0701376392970328,52.77777777777778,1.0555555555344445,0.914285714285704,5.83570908929687e-07,0.9977807257933291,0
377,265.0138888888889,0.5777777777777828,0.7555555555555316,0.6319444444444571,0.914285714285704,0.04187052864754379,1.3408489106736292,105.55555555555556,2.111111111068889,1.1956043956043336,0.9987533092498779,0.5289992894425211,1
378,265.76944444444445,0.7555555555555316,0.6583333333333599,0.6319444444444571,1.1956043956043336,0.029844030258420126,0.9557160311722239,50.0,0.9999999999800001,1.041758241758263,4.1999154154481744e-11,0.9979125742050523,0
379,266.4277777777778,0.6583333333333599,0.6638888888888346,0.637500000000017,1.0326797385621056,0.030039923382172,0.9619892522199491,44.44444444444444,0.8888888888711112,1.0413943355118696,2.2549422051820756e-10,0.9968794210203586,0
380,267.09166666666664,0.6638888888888346,0.5611111111111313,0.637500000000017,1.0413943355118696,0.028531478218193497,0.9136832689839308,50.0,0.9999999999800001,0.880174291939006,4.4015492639548626e-11,0.9947756576797694,0
381,267.65277777777777,0.5611111111111313,0.7861111111110972,0.637500000000017,0.880174291939006,0.0262407465233601,0.8403255828768771,38.888888888888886,0.7777777777622222,1.2331154684095313,0.06828125566244125,0.9568958449290641,0
382,268.43888888888887,0.7861111111110972,0.5027777777777942,0.637500000000017,1.2331154684095313,0.027118857533665913,0.86844593935793,44.44444444444444,0.8888888888711112,0.7886710239651463,1.3934082676280162e-15,0.9935384583814609,0
383,268.94166666666666,0.5027777777777942,0.7111111111111086,0.637500000000017,0.7886710239651463,0.04521884830818656,1.448074467994681,105.55555555555556,2.111111111068889,1.1154684095860228,0.9985302686691284,0.4990685779484065,1
384,269.65277777777777,0.7111111111111086,0.6000000000000227,0.648611111111137,1.0963597430406375,0.024963562911888195,0.7994254483553423,44.44444444444444,0.8888888888711112,0.9250535331905763,4.117919706261982e-15,0.991671297195112,0
385,270.2527777777778,0.6000000000000227,0.6166666666666742,0.648611111111137,0.9250535331905763,0.02548983530847132,0.8162786334587857,41.666666666666664,0.8333333333166667,0.950749464668068,6.13362876114576e-13,0.992458717855086,0
386,270.86944444444447,0.6166666666666742,0.6166666666666174,0.637500000000017,0.9673202614378945,0.03288890581173744,1.0532241878800037,55.55555555555556,1.111111111088889,0.9673202614378054,2.6495783913560444e-06,0.9950041720285423,0
387,271.4861111111111,0.6166666666666174,0.6916666666667197,0.637500000000017,0.9673202614378054,0.029992931829393197,0.960484409210091,50.0,0.9999999999800001,1.084967320261492,2.4510034890568022e-08,0.9961040637948002,0
388,272.1777777777778,0.6916666666667197,0.6944444444444002,0.637500000000017,1.084967320261492,0.02853116688031297,0.9136732987955563,50.0,0.9999999999800001,1.089324618736285,2.3461030895788326e-09,0.9905775546416334,0
389,272.8722222222222,0.6944444444444002,0.6611111111111541,0.6402777777777544,1.0845986984815323,0.03385375011991864,1.0841220647729506,50.0,0.9999999999800001,1.0325379609545515,7.589142114738934e-07,0.9938264060717551,0
390,273.53333333333336,0.6611111111111541,0.5277777777777715,0.6388888888889142,1.0347826086956784,0.031665491863397906,1.014045956486209,50.0,0.9999999999800001,0.8260869565216966,1.711251362834787e-09,0.997212158038542,0
391,274.06111111111113,0.5277777777777715,0.6527777777777715,0.6388888888889142,0.8260869565216966,0.04415209058524643,1.413912947303185,102.77777777777777,2.0555555555144442,1.0217391304347323,0.9984511137008667,0.45198106104361657,1
392,274.7138888888889,0.6527777777777715,0.6305555555555316,0.6347222222222229,1.0284463894967069,0.034814036600682906,1.114873983204793,72.22222222222223,1.4444444444155558,0.9934354485776418,0.9315457940101624,0.8714741819702585,1
393,275.34444444444443,0.6305555555555316,0.6583333333333599,0.6416666666666515,0.9826839826839685,0.031801130452419696,1.0183896048758942,50.0,0.9999999999800001,1.0259740259740915,1.6104920064208272e-07,0.9949854663258495,0
394,276.0027777777778,0.6583333333333599,0.6444444444444457,0.6416666666666515,1.0259740259740915,0.034370378445621505,1.1006664111215,52.77777777777778,1.0555555555344445,1.00432900432903,5.4619216825813055e-05,0.9903241580070506,0
395,276.64722222222224,0.6444444444444457,0.6666666666666288,0.6486111111111086,0.9935760171306268,0.029264991525977443,0.9371730731845379,47.22222222222222,0.9444444444255556,1.027837259100588,5.601522024001326e-10,0.9946436790359514,0
396,277.31388888888887,0.6666666666666288,0.4611111111111086,0.6555555555555657,1.0169491525422993,0.03343820473757625,1.0708147674627235,47.22222222222222,0.9444444444255556,0.7033898305084599,1.3220814309988782e-07,0.9885944266399824,0
397,277.775,0.4611111111111086,0.8083333333333371,0.6555555555555657,0.7033898305084599,0.0246571540567842,0.7896131055725376,27.77777777777778,0.5555555555444445,1.2330508474576138,0.82076096534729,0.8952759470587078,1
398,278.5833333333333,0.8083333333333371,0.6666666666666856,0.6555555555555657,1.2330508474576138,0.028556808705857844,0.9144944447175232,47.22222222222222,0.9444444444255556,1.0169491525423862,8.845086121866963e-13,0.9896654939377221,0
399,279.25,0.6666666666666856,0.6055555555555543,0.6555555555555657,1.0169491525423862,0.029969150656469615,0.9597228482544714,47.22222222222222,0.9444444444255556,0.9237288135593059,4.834481703852589e-10,0.9915395869790413,0
400,279.85555555555555,0.6055555555555543,0.5555555555555429,0.6486111111111086,0.9336188436830852,0.02976729973706126,0.9532588365940158,50.0,0.9999999999800001,0.8565310492505191,9.220106900187375e-10,0.9952320433926704,0
401,280.4111111111111,0.5555555555555429,0.73888888888888,0.6486111111111086,0.8565310492505191,0.04171656223150608,1.3359183375977004,94.44444444444444,1.8888888888511113,1.1391862955032028,0.9989834427833557,0.5476750019270653,1
402,281.15,0.73888888888888,0.47222222222222854,0.6513888888889028,1.1343283582089174,0.033020542035078905,1.0574396657441207,52.77777777777778,1.0555555555344445,0.724946695095943,7.149334901868087e-09,0.9951577070907789,0
403,281.6222222222222,0.47222222222222854,0.7361111111111427,0.6513888888889028,0.724946695095943,0.04542800576902427,1.4547724620869997,86.11111111111111,1.7222222221877779,1.130063965884886,0.9983974099159241,0.5121484882085544,1
404,282.35833333333335,0.7361111111111427,0.5888888888888459,0.6555555555555372,1.122881355932283,0.02712783205709763,0.8687333367315941,47.22222222222222,0.9444444444255556,0.8983050847457223,4.288589475947083e-14,0.9955071361863328,0
405,282.9472222222222,0.5888888888888459,0.6194444444444684,0.6361111111110915,0.925764192139699,0.027249600319080306,0.8726328060411049,47.22222222222222,0.9444444444255556,0.9737991266376222,8.515822769172843e-11,0.9949642243672498,0
406,283.56666666666666,0.6194444444444684,0.7472222222222058,0.6125000000000114,1.0113378684807461,0.0344039388144859,1.101741138035326,52.77777777777778,1.0555555555344445,1.2199546485260278,3.82762445951812e-05,0.9965438849604027,0
407,284.31388888888887,0.7472222222222058,0.6694444444444798,0.643055555555577,1.1619870410366526,0.031242518575769096,1.0005007902253478,55.55555555555556,1.111111111088889,1.0410367170626553,6.694643417404222e-08,0.9908720910484456,0
408,284.98333333333335,0.6694444444444798,0.6444444444444457,0.643055555555577,1.0410367170626553,0.030282556064386637,0.9697592464891857,52.77777777777778,1.0555555555344445,1.0021598272137915,1.7884163039383338e-09,0.9977679468855436,0
409,285.6277777777778,0.6444444444444457,0.5777777777777828,0.6319444444444571,1.0197802197802015,0.028022730366843707,0.8973912845183863,47.22222222222222,0.9444444444255556,0.914285714285704,6.7484503228631976e-12,0.997367960445626,0
410,286.2055555555556,0.5777777777777828,0.5694444444444002,0.6319444444444571,0.914285714285704,0.029165662926949065,0.9339922047286592,50.0,0.9999999999800001,0.9010989010988131,8.323494116169172e-10,0.9969366594859338,0
411,286.775,0.5694444444444002,0.5944444444444912,0.6319444444444571,0.9010989010988131,0.02677078157757124,0.8572992621690667,44.44444444444444,0.8888888888711112,0.9406593406593958,2.089477028899278e-11,0.9948189829072804,0
412,287.36944444444447,0.5944444444444912,0.5722222222221944,0.6069444444444798,0.9794050343249627,0.02630079194163584,0.842248458854004,41.666666666666664,0.8333333333166667,0.9427917620136292,2.721071631905936e-12,0.9949930311307102,0
413,287.94166666666666,0.5722222222221944,0.61388888888888,0.6069444444444798,0.9427917620136292,0.02890427325539148,0.9256215424110271,47.22222222222222,0.9444444444255556,1.0114416475971806,3.5529070796513906e-09,0.9956965496663808,0
414,288.55555555555554,0.61388888888888,0.5972222222222285,0.6041666666666856,1.016091954022942,0.026848143095390232,0.8597766635835277,47.22222222222222,0.9444444444255556,0.9885057471264163,9.314241739000195e-11,0.9930463909898144,0
415,289.15277777777777,0.5972222222222285,0.6722222222222172,0.6055555555555543,0.9862385321101043,0.04077618233462417,1.3058039014756369,97.22222222222223,1.9444444444055557,1.11009174311926,0.9987199306488037,0.5418585057115642,1
416,289.825,0.6722222222222172,0.5444444444444798,0.6055555555555543,1.11009174311926,0.030136530218560543,0.9650829597875226,52.77777777777778,1.0555555555344445,0.8990825688073998,9.397438383018653e-10,0.9979212690837631,0
417,290.36944444444447,0.5444444444444798,0.7083333333333144,0.5958333333333599,0.9137529137529324,0.04209520839916993,1.3480439858243225,102.77777777777777,2.0555555555144442,1.1888111888111041,0.9985927939414978,0.47841838830538586,1
418,291.0777777777778,0.7083333333333144,0.6333333333333258,0.5958333333333599,1.1888111888111041,0.027438662504099078,0.8786872752111967,50.0,0.9999999999800001,1.062937062937003,2.923420949763056e-10,0.9914911196479246,0
419,291.7111111111111,0.6333333333333258,0.6555555555555657,0.5958333333333599,1.062937062937003,0.03032241849804477,0.9710357887845369,52.77777777777778,1.0555555555344445,1.1002331002330683,8.0342765329533e-08,0.9980251888841145,0
420,292.3666666666667,0.6555555555555657,0.5999999999999659,0.6055555555555543,1.0825688073394686,0.030248045776452136,0.9686540996596932,50.0,0.9999999999800001,0.9908256880733403,4.006406761902781e-09,0.9957784901683677,0
421,292.96666666666664,0.5999999999999659,0.5944444444444912,0.606944444444423,0.9885583524027248,0.02580247740421949,0.8262905876197524,41.666666666666664,0.8333333333166667,0.9794050343250544,4.6579962109660755e-12,0.9923187739136002,0
422,293.56111111111113,0.5944444444444912,0.5,0.606944444444423,0.9794050343250544,0.026777773522171647,0.8575231700489949,47.22222222222222,0.9444444444255556,0.8237986270023174,7.494299451848985e-12,0.9948251864280112,0
423,294.06111111111113,0.5,0.6222222222222058,0.606944444444423,0.8237986270023174,0.04118671187678329,1.3189505730650268,94.44444444444444,1.8888888888511113,1.025171624713968,0.9989280104637146,0.5417266138222683,1
424,294.68333333333334,0.6222222222222058,0.49166666666667425,0.6111111111110858,1.0181818181818334,0.027686313018446897,0.8866179589908608,44.44444444444444,0.8888888888711112,0.8045454545455002,1.1134337375706682e-11,0.9920285643421725,0
425,295.175,0.49166666666667425,0.73888888888888,0.6111111111110858,0.8045454545455002,0.03296388050103865,1.0556251542333035,55.55555555555556,1.111111111088889,1.2090909090909445,0.005436521023511887,0.9923397424213978,0
426,295.9138888888889,0.73888888888888,0.6750000000000114,0.6111111111110858,1.2090909090909445,0.03172844397274068,1.0160619154426245,52.77777777777778,1.0555555555344445,1.104545454545519,4.2718504289496195e-08,0.9961322528692931,0
427,296.5888888888889,0.6750000000000114,0.6777777777777487,0.6277777777777658,1.0752212389380917,0.030197843791859573,0.9670464467704445,47.22222222222222,0.9444444444255556,1.0796460176990894,1.4567146378041684e-09,0.9959481045780354,0
428,297.26666666666665,0.6777777777777487,0.61388888888888,0.6277777777777658,1.0796460176990894,0.0284724486183746,0.9117929232641302,50.0,0.9999999999800001,0.9778761061946949,3.912285162499529e-09,0.9859825303865835,0
429,297.88055555555553,0.61388888888888,0.6027777777778169,0.6180555555555429,0.9932584269662982,0.027353414024827848,0.8759573041728654,50.0,0.9999999999800001,0.9752808988764878,4.962178584699828e-11,0.9978749161357914,0
430,298.48333333333335,0.6027777777778169,0.5666666666666629,0.6083333333333485,0.9908675799087154,0.02668555564946564,0.8545700133023164,41.666666666666664,0.8333333333166667,0.931506849315039,3.478472067677818e-12,0.9948137310193605,0
431,299.05,0.5666666666666629,0.5861111111111086,0.6083333333333485,0.931506849315039,0.026862823995182417,0.8602468001958394,41.666666666666664,0.8333333333166667,0.963470319634675,1.1550936873661044e-09,0.9849657849827407,0
432,299.6361111111111,0.5861111111111086,0.6305555555555316,0.6083333333333485,0.963470319634675,0.03020453852283382,0.967260836772769,52.77777777777778,1.0555555555344445,1.0365296803652315,1.497411687978456e-07,0.996289389984033,0
433,300.26666666666665,0.6305555555555316,0.6277777777777942,0.6180555555555429,1.0202247191011056,0.02952376244106233,0.9454598732516286,50.0,0.9999999999800001,1.015730337078699,7.132145984911631e-09,0.9937083743161251,0
434,300.89444444444445,0.6277777777777942,0.5888888888889028,0.6208333333333371,1.0111856823266423,0.02757067361930989,0.8829147584970475,47.22222222222222,0.9444444444255556,0.9485458612975557,3.4197540632607826e-11,0.9948691665808159,0
435,301.48333333333335,0.5888888888889028,0.6861111111110745,0.6208333333333371,0.9485458612975557,0.04071476622064581,1.303837130761589,100.0,1.9999999999600002,1.1051454138701804,0.9985723495483398,0.49257273236747795,1
436,302.1694444444444,0.6861111111110745,0.6527777777777715,0.6208333333333371,1.1051454138701804,0.028808245505346906,0.9225463793261384,50.0,0.9999999999800001,1.0514541387024443,9.245976761995678e-10,0.9931634912728534,0
437,302.8222222222222,0.6527777777777715,0.6388888888889142,0.6208333333333371,1.0514541387024443,0.030417552509383744,0.9740823310564449,50.0,0.9999999999800001,1.0290827740492514,3.08859782194304e-09,0.9976381733444534,0
438,303.4611111111111,0.6388888888889142,0.5888888888889028,0.6208333333333371,1.0290827740492514,0.029723278102227968,0.9518491013215247,50.0,0.9999999999800001,0.9485458612975557,7.841426175048127e-09,0.9913020217608032,0
439,304.05,0.5888888888889028,0.625,0.6152777777778056,0.957110609480792,0.028160057761524384,0.9017890147002343,47.22222222222222,0.9444444444255556,1.01580135440176,3.883029731088783e-10,0.9971987932020371,0
440,304.675,0.625,0.5416666666666288,0.6263888888888971,0.9977827050997652,0.027516045178837024,0.8811653541483127,47.22222222222222,0.9444444444255556,0.8647450110864027,3.537363110761582e-12,0.9974576287874647,0
441,305.21666666666664,0.5416666666666288,0.6805555555555998,0.6263888888888971,0.8647450110864027,0.04337788565024685,1.3891200469681844,108.33333333333333,2.166666666623333,1.0864745011087038,0.9986721277236938,0.5265891445070268,1
442,305.89722222222224,0.6805555555555998,0.5916666666666401,0.6291666666666629,1.0816777041943373,0.023795934791413634,0.7620336851275796,44.44444444444444,0.8888888888711112,0.940397350993341,8.844795284634194e-14,0.9835884468995266,0
443,306.4888888888889,0.5916666666666401,0.5777777777777828,0.6263888888888971,0.944567627494402,0.028606088815676667,0.9160725757730125,44.44444444444444,0.8888888888711112,0.9223946784922354,1.199011734343003e-07,0.9786688274870317,0
444,307.06666666666666,0.5777777777777828,0.5,0.6083333333333201,0.9497716894977459,0.027208802245745047,0.8713263011089688,41.666666666666664,0.8333333333166667,0.821917808219196,2.6648139250795566e-09,0.9779128701464732,0
445,307.56666666666666,0.5,0.7694444444444457,0.6083333333333201,0.821917808219196,0.044749065898890134,1.4330303008416663,100.0,1.9999999999600002,1.2648401826484315,0.998869001865387,0.5302111201612892,1
446,308.3361111111111,0.7694444444444457,0.61388888888888,0.6083333333333201,1.2648401826484315,0.035120262678322064,1.1246804727783706,52.77777777777778,1.0555555555344445,1.0091324200913316,5.552274160436355e-06,0.9925150116379562,0
447,308.95,0.61388888888888,0.7194444444444343,0.6027777777777601,1.0184331797235175,0.0418178094432114,1.3391606471148931,108.33333333333333,2.166666666623333,1.1935483870967925,0.998434841632843,0.4903723943341295,1
448,309.6694444444444,0.7194444444444343,0.6111111111111427,0.6027777777777601,1.1935483870967925,0.029999353364551895,0.9606900504737798,50.0,0.9999999999800001,1.013824884792709,5.1945153245469555e-06,0.9758183217716812,0
449,310.28055555555557,0.6111111111111427,0.5611111111110745,0.6125000000000114,0.9977324263038879,0.0266542862463544,0.8535686515700093,44.44444444444444,0.8888888888711112,0.9160997732425535,3.5708445977888914e-08,0.9725591712319472,0
450,310.84166666666664,0.5611111111110745,0.5555555555555998,0.6013888888888914,0.9330254041569791,0.02698972546380889,0.8643106537335633,44.44444444444444,0.8888888888711112,0.92378752886843,1.0281883677798476e-10,0.9930077220486795,0
451,311.39722222222224,0.5555555555555998,0.5694444444444002,0.6013888888888914,0.92378752886843,0.02757776858640653,0.8831419655376578,47.22222222222222,0.9444444444255556,0.9468822170899918,2.9459337747006487e-10,0.9960252213700316,0
452,311.96666666666664,0.5694444444444002,0.5611111111111313,0.5847222222222115,0.9738717339666881,0.024800572111391004,0.7942058811715565,38.888888888888886,0.7777777777622222,0.9596199524941139,5.878406268700065e-12,0.9874596419175525,0
453,312.52777777777777,0.5611111111111313,0.6333333333333258,0.5736111111110915,0.9782082324455892,0.03210751039403184,1.028201021741943,50.0,0.9999999999800001,1.104116222760315,0.0002793496532831341,0.9899947073286199,0
454,313.1611111111111,0.6333333333333258,0.6416666666667084,0.5902777777777715,1.072941176470587,0.029383333535515317,0.940962821241256,50.0,0.9999999999800001,1.087058823529494,1.6707761460565962e-05,0.9810955774242249,0
455,313.8027777777778,0.6416666666667084,0.6638888888888346,0.6125000000000114,1.0476190476190963,0.04410054810526415,1.4122623668025323,80.55555555555556,1.611111111078889,1.0839002267572608,0.9993197917938232,0.5722410091533405,1
456,314.46666666666664,0.6638888888888346,0.30555555555559977,0.6125000000000114,1.0839002267572608,0.03332043190594816,1.067043246584046,47.22222222222222,0.9444444444255556,0.49886621315199037,0.000795320956967771,0.9668406661125774,0
457,314.77222222222224,0.30555555555559977,0.23333333333329165,0.5902777777777715,0.5176470588236098,0.029589389589547658,0.9475614968374663,38.888888888888886,0.7777777777622222,0.39529411764699246,0.9825833439826965,0.48103744262384057,1
458,315.00555555555553,0.23333333333329165,0.6583333333333599,0.5652777777777658,0.4127764127763478,0.039334582271142414,1.2596385451454646,86.11111111111111,1.7222222221877779,1.1646191646192363,0.9080901145935059,0.5519954430488113,1
459,315.6638888888889,0.6583333333333599,0.5416666666666856,0.5652777777777658,1.1646191646192363,0.027816829741136372,0.8907975863109745,47.22222222222222,0.9444444444255556,0.9582309582310121,3.3816342087655826e-11,0.9967645144752221,0
460,316.2055555555556,0.5416666666666856,0.7249999999999659,0.5652777777777658,0.9582309582310121,0.045422090854120224,1.4545830446742756,100.0,1.9999999999600002,1.2825552825552495,0.9988413453102112,0.5159211153491988,1
461,316.93055555555554,0.7249999999999659,0.5305555555555657,0.601388888888863,1.2055427251732054,0.025628434422253397,0.8207170887813681,41.666666666666664,0.8333333333166667,0.8822170900693389,9.834456166091243e-12,0.9713296828436143,0
462,317.4611111111111,0.5305555555555657,0.6583333333333599,0.5972222222222285,0.8883720930232634,0.03493617800757202,1.1187854019918355,75.0,1.49999999997,1.1023255813953816,0.9989333748817444,0.5956003096626067,1
463,318.11944444444447,0.6583333333333599,0.5499999999999545,0.637500000000017,1.0326797385621056,0.024408594752458945,0.7816533189826,41.666666666666664,0.8333333333166667,0.8627450980391212,3.7786803850844985e-14,0.9838909174751578,0
464,318.6694444444444,0.5499999999999545,0.5888888888889028,0.5958333333333314,0.9230769230768497,0.02521275219351535,0.8074054091443236,41.666666666666664,0.8333333333166667,0.9883449883450148,2.068978938041255e-05,0.9581016648656184,0
465,319.2583333333333,0.5888888888889028,0.5861111111111086,0.5694444444444287,1.0341463414634677,0.030135625547678076,0.9650539888858775,41.666666666666664,0.8333333333166667,1.0292682926829508,0.00017746705270837992,0.9724523786349237,0
466,319.84444444444443,0.5861111111111086,0.6472222222222399,0.5680555555555316,1.0317848410758337,0.04297265942978719,1.376143207319144,88.88888888888889,1.7777777777422223,1.1393643031785634,0.9990743398666382,0.6068933401119229,1
467,320.4916666666667,0.6472222222222399,0.658333333333303,0.5875000000000057,1.1016548463357168,0.031177607599131178,0.998422101106126,44.44444444444444,0.8888888888711112,1.1205673758864623,8.662072445986269e-07,0.9873764256888808,0
468,321.15,0.658333333333303,0.6277777777777942,0.6180555555555713,1.0651685393257664,0.029820399116171067,0.9549592747527064,47.22222222222222,0.9444444444255556,1.0157303370786523,1.988504694239168e-09,0.9931776684187812,0
469,321.77777777777777,0.6277777777777942,0.5500000000000114,0.6083333333333485,1.031963470319636,0.028492440148805365,0.9124331258760063,50.0,0.9999999999800001,0.9041095890410921,4.71136658575233e-08,0.982600958665066,0
470,322.3277777777778,0.5500000000000114,0.6277777777777942,0.6083333333333485,0.9041095890410921,0.037132289260211275,1.189112992207064,97.22222222222223,1.9444444444055557,1.031963470319636,0.9984681010246277,0.6158091147673314,1
471,322.9555555555556,0.6277777777777942,0.47222222222222854,0.6083333333333485,1.031963470319636,0.026641587190538964,0.8531619809186773,44.44444444444444,0.8888888888711112,0.7762557077625482,1.7076493214265853e-12,0.9917268113388018,0
472,323.4277777777778,0.47222222222222854,0.6361111111110631,0.6083333333333485,0.7762557077625482,0.042679777288666065,1.3667640398578549,83.33333333333333,1.6666666666333334,1.045662100456516,0.9988716244697571,0.5477772493273941,1
473,324.06388888888887,0.6361111111110631,0.5472222222222172,0.6083333333333485,1.045662100456516,0.02667242850997118,0.8541496338311239,47.22222222222222,0.9444444444255556,0.899543378995403,6.16855871937716e-12,0.9934541107616066,0
474,324.6111111111111,0.5472222222222172,0.7305555555555543,0.6083333333333485,0.899543378995403,0.044114551264219114,1.4127107996510593,94.44444444444444,1.8888888888511113,1.2009132420091004,0.9990772008895874,0.5632663277376159,1
475,325.34166666666664,0.7305555555555543,0.5250000000000341,0.6277777777777942,1.1637168141592595,0.02729791015172767,0.8741798652393614,50.0,0.9999999999800001,0.8362831858407405,1.9303596264855227e-13,0.9982665999973099,0
476,325.8666666666667,0.5250000000000341,0.7444444444444116,0.6277777777777942,0.8362831858407405,0.04606667695627371,1.4752250714369006,100.0,1.9999999999600002,1.1858407079645183,0.998960018157959,0.5551277006772755,1
477,326.6111111111111,0.7444444444444116,0.6305555555555884,0.6277777777777942,1.1858407079645183,0.025513746552352497,0.8170443597666814,44.44444444444444,0.8888888888711112,1.004424778761088,5.807108808576766e-15,0.993897142662679,0
478,327.2416666666667,0.6305555555555884,0.5888888888889028,0.6277777777777942,1.004424778761088,0.025149224163325348,0.805371007076116,47.22222222222222,0.9444444444255556,0.9380530973451303,3.6404511133056316e-13,0.9950521879123156,0
479,327.8305555555556,0.5888888888889028,0.5305555555555088,0.6083333333333485,0.968036529680364,0.02745858171566957,0.8793251619061702,50.0,0.9999999999800001,0.8721461187213626,3.42232492345218e-11,0.9980852474734345,0
480,328.3611111111111,0.5305555555555088,0.6527777777778283,0.6083333333333485,0.8721461187213626,0.03865381730645487,1.2378379376343958,88.88888888888889,1.7777777777422223,1.07305936073065,0.999036431312561,0.5889682424988001,1
481,329.0138888888889,0.6527777777778283,0.4916666666666174,0.6097222222222456,1.0706150341686067,0.027566033639214758,0.8827661692038844,47.22222222222222,0.9444444444255556,0.8063781321183393,1.924941109288092e-12,0.9968450745019477,0
482,329.50555555555553,0.4916666666666174,0.7250000000000227,0.6097222222222456,0.8063781321183393,0.04204700274255906,1.3465002627273661,97.22222222222223,1.9444444444055557,1.1890660592255042,0.9987764954566956,0.5716658457168486,1
483,330.23055555555555,0.7250000000000227,0.5972222222222285,0.6097222222222456,1.1890660592255042,0.02517407417679241,0.8061667962520306,44.44444444444444,0.8888888888711112,0.9794988610478088,5.692182954776829e-15,0.9949535768369597,0
484,330.8277777777778,0.5972222222222285,0.6333333333333258,0.6138888888889085,0.9728506787330109,0.029241508490140834,0.9364210596791466,52.77777777777778,1.0555555555344445,1.0316742081447512,7.472443996903166e-09,0.9984812434108274,0
485,331.4611111111111,0.6333333333333258,0.591666666666697,0.6138888888889085,1.0316742081447512,0.02681566530258086,0.8587366047517869,47.22222222222222,0.9444444444255556,0.9638009049773942,8.701717298109646e-12,0.9958711417689825,0
486,332.0527777777778,0.591666666666697,0.6861111111110745,0.6138888888889085,0.9638009049773942,0.028196611849900154,0.90295961156544,50.0,0.9999999999800001,1.1176470588234342,6.266787266895335e-08,0.9924839542306334,0
487,332.7388888888889,0.6861111111110745,0.6388888888889142,0.6138888888889085,1.1176470588234342,0.028922025124574133,0.9261900228010491,52.77777777777778,1.0555555555344445,1.0407239819004606,4.666982911238904e-10,0.997544825183312,0
488,333.3777777777778,0.6388888888889142,0.6638888888888914,0.6152777777777771,1.0383747178329992,0.04026390273057242,1.2893988172495652,91.66666666666667,1.8333333332966668,1.0790067720090346,0.9982573390007019,0.5446759351764103,1
489,334.0416666666667,0.6638888888888914,0.5166666666666515,0.63611111111112,1.0436681222707318,0.027912842036947914,0.8938722544942656,50.0,0.9999999999800001,0.8122270742357728,3.34062270034019e-12,0.9976979556999328,0
490,334.55833333333334,0.5166666666666515,0.6499999999999773,0.63611111111112,0.8122270742357728,0.040600173277110706,1.3001674416395974,83.33333333333333,1.6666666666333334,1.0218340611353212,0.9989281296730042,0.5434633398821807,1
491,335.2083333333333,0.6499999999999773,0.5666666666666629,0.63611111111112,1.0218340611353212,0.02646375946050165,0.8474672804739987,47.22222222222222,0.9444444444255556,0.8908296943231258,4.3075699257544287e-13,0.9965713074638123,0
492,335.775,0.5666666666666629,0.6111111111111427,0.63611111111112,0.8908296943231258,0.028539074776980214,0.9139265388423025,50.0,0.9999999999800001,0.9606986899563682,5.46002409951285e-10,0.99887782599672,0
493,336.3861111111111,0.6111111111111427,0.5222222222222399,0.6222222222222342,0.982142857142889,0.024075616563563197,0.7709901280394608,41.666666666666664,0.8333333333166667,0.8392857142857265,5.308653636040134e-15,0.9932890130050965,0
494,336.90833333333336,0.5222222222222399,0.7277777777777601,0.6222222222222342,0.8392857142857265,0.043710206001340034,1.3997621715161894,111.11111111111111,2.222222222177778,1.1696428571428061,0.9988417029380798,0.5924236461500986,1
495,337.6361111111111,0.7277777777777601,0.5805555555555202,0.6250000000000284,1.1644444444443631,0.03205132316169752,1.0264016991228422,52.77777777777778,1.0555555555344445,0.9288888888887901,2.0261634148255325e-08,0.9944725710811808,0
496,338.21666666666664,0.5805555555555202,0.7916666666666856,0.6250000000000284,0.9288888888887901,0.04723906819084774,1.5127693671632485,102.77777777777777,2.0555555555144442,1.2666666666666393,0.999005138874054,0.5496008166850803,1
497,339.0083333333333,0.7916666666666856,0.6305555555555884,0.6250000000000284,1.2666666666666393,0.02776945367141204,0.889280429648908,47.22222222222222,0.9444444444255556,1.0088888888888956,2.4525685844191403e-13,0.9935321536756818,0
498,339.6388888888889,0.6305555555555884,0.5972222222221717,0.6208333333333655,1.015659955257271,0.02544339168610051,0.8147913372035164,44.44444444444444,0.8888888888711112,0.9619686800893542,1.5253350882718508e-12,0.9916909956997244,0
499,340.2361111111111,0.5972222222221717,0.591666666666697,0.6041666666666572,0.9885057471263686,0.027858906961243934,0.8921450542452899,36.111111111111114,0.7222222222077779,0.9793103448276518,3.288894134811926e-08,0.9733522570787937,0
500,340.8277777777778,0.591666666666697,0.6833333333333371,0.6041666666666572,0.9793103448276518,0.026838540336807392,0.8594691478009195,47.22222222222222,0.9444444444255556,1.1310344827586447,9.894074892713434e-09,0.9900804024994185,0
501,341.5111111111111,0.6833333333333371,0.5083333333333258,0.6041666666666572,1.1310344827586447,0.029735737727743166,0.9522481045306813,47.22222222222222,0.9444444444255556,0.8413793103448283,2.2388753351254564e-10,0.9923566343759278,0
502,342.01944444444445,0.5083333333333258,0.7333333333333485,0.6041666666666572,0.8413793103448283,0.04012955840898612,1.2850966160815187,105.55555555555556,2.111111111068889,1.21379310344832,0.9987433552742004,0.5664114213017385,1
503,342.7527777777778,0.7333333333333485,0.6194444444444116,0.61388888888888,1.1945701357466483,0.025720439110623394,0.8236634185785442,44.44444444444444,0.8888888888711112,1.0090497737556172,6.756740349514456e-13,0.9853983598674879,0
504,343.3722222222222,0.6194444444444116,0.625,0.625,0.9911111111110585,0.02676482814296646,0.8571086112133125,50.0,0.9999999999800001,1.0,2.016283320860346e-11,0.9979189732985647,0
505,343.9972222222222,0.625,0.6638888888888914,0.6222222222222058,1.0044642857143122,0.030300189702738577,0.9703239406915074,50.0,0.9999999999800001,1.066964285714318,7.961022951974428e-09,0.9986843415674312,0
506,344.6611111111111,0.6638888888888914,0.6805555555555429,0.6277777777777942,1.0575221238937818,0.027427038491487064,0.8783150314122307,44.44444444444444,0.8888888888711112,1.0840707964601286,3.1109670395323974e-11,0.9947382089194218,0
507,345.34166666666664,0.6805555555555429,0.6000000000000227,0.6277777777777942,1.0840707964601286,0.028792349097837577,0.922037317669145,50.0,0.9999999999800001,0.9557522123893918,4.405295225828887e-11,0.9971456626674632,0
508,345.94166666666666,0.6000000000000227,0.6916666666666629,0.6222222222222058,0.9642857142857763,0.045014779797629405,1.4415394408784328,88.88888888888889,1.7777777777422223,1.111607142857166,0.9992278814315796,0.547030887555545,1
509,346.6333333333333,0.6916666666666629,0.5194444444444457,0.6444444444444457,1.0732758620689575,0.029069203480933906,0.9309032171449976,97.22222222222223,1.9444444444055557,0.8060344827586211,1.3754779502050951e-06,0.9838658630308936,0
510,347.15277777777777,0.5194444444444457,0.6888888888888687,0.6444444444444457,0.8060344827586211,0.040620454585881774,1.3008169240237737,108.33333333333333,2.166666666623333,1.068965517241346,0.9982757568359375,0.6076672552891973,1
511,347.84166666666664,0.6888888888888687,0.6111111111111427,0.6444444444444457,1.068965517241346,0.026799941136614568,0.8582330589049066,44.44444444444444,0.8888888888711112,0.9482758620690127,0.0007724520983174443,0.9323119816952419,0
512,348.4527777777778,0.6111111111111427,0.6722222222222172,0.6444444444444457,0.9482758620690127,0.031045453098598377,0.9941900260928953,55.55555555555556,1.111111111088889,1.043103448275852,0.0006053849356248975,0.9790110712904299,0
513,349.125,0.6722222222222172,0.6666666666666856,0.6444444444444457,1.043103448275852,0.030723813390000746,0.9838899351498636,52.77777777777778,1.0555555555344445,1.034482758620717,5.772836431106043e-09,0.9971931816497105,0
514,349.7916666666667,0.6666666666666856,0.6749999999999545,0.6652777777777885,1.0020876826722462,0.027232486132033454,0.872084746587354,50.0,0.9999999999800001,1.014613778705552,2.370436069654147e-10,0.9887763390396949,0
515,350.46666666666664,0.6749999999999545,0.6750000000000114,0.6694444444444514,1.0082987551866436,0.028560484504981876,0.9146121573762956,58.333333333333336,1.1666666666433334,1.0082987551867284,2.1846350136911497e-05,0.9721840601196977,0
516,351.14166666666665,0.6750000000000114,0.6444444444444457,0.6736111111110858,1.0020618556701575,0.029876036944178664,0.9567410034168992,44.44444444444444,0.8888888888711112,0.9567010309278728,3.1961910895716983e-09,0.9838492185904446,0
517,351.7861111111111,0.6444444444444457,0.6000000000000227,0.6694444444444514,0.962655601659743,0.02471493654545814,0.79146351418922,44.44444444444444,0.8888888888711112,0.8962655601659998,4.337272186370755e-14,0.9897578563817249,0
518,352.3861111111111,0.6000000000000227,0.6111111111110858,0.6694444444444514,0.8962655601659998,0.035692439795434634,1.1430036965105308,80.55555555555556,1.611111111078889,0.9128630705393719,0.7223910093307495,0.9653927221943452,1
519,352.9972222222222,0.6111111111110858,0.5527777777778056,0.6555555555555657,0.9322033898304556,0.026280970376079252,0.8416136991448988,47.22222222222222,0.9444444444255556,0.8432203389830802,8.45976717497865e-13,0.9945157593788947,0
520,353.55,0.5527777777778056,0.73888888888888,0.6555555555555657,0.8432203389830802,0.04130051741429705,1.3225950465391612,94.44444444444444,1.8888888888511113,1.1271186440677659,0.998604953289032,0.43151885095730835,1
521,354.2888888888889,0.73888888888888,0.5194444444444457,0.6555555555555657,1.1271186440677659,0.029388230576079966,0.9411196425597043,52.77777777777778,1.0555555555344445,0.7923728813559219,6.011229847224797e-10,0.9876588246075233,0
522,354.80833333333334,0.5194444444444457,0.7722222222222399,0.6555555555555657,0.7923728813559219,0.04203048378898913,1.345971264847111,72.22222222222223,1.4444444444155558,1.177966101694924,0.999271810054779,0.5977724660816417,1
