beat_index,peak_time_s,rr_prev_s,rr_next_s,rr_baseline_s,prematurity_index,aa_ratio,morph_index,qrs_width_ms,width_index,pause_index,pvc_score,morphology_score,is_pvc_candidate
0,0.4444444444444444,,0.711111111111111,0.8888888888888573,,0.03134816348839878,0.9700534595842719,55.55555555555556,0.9999999999820001,0.8000000000000284,5.680234060889688e-10,0.99900052820584,0
1,1.1555555555555554,0.711111111111111,0.75,0.8888888888888573,0.8000000000000284,0.02666428173894331,0.8251130487361407,47.22222222222222,0.8499999999847,0.84375000000003,1.3901718318165557e-12,0.9954429806973273,0
2,1.9055555555555554,0.75,0.6111111111111112,0.8888888888888573,0.84375000000003,0.035661044211366164,1.1035134266294586,55.55555555555556,0.9999999999820001,0.6875000000000245,7.261783707690483e-07,0.998764061005403,0
3,2.5166666666666666,0.6111111111111112,0.786111111111111,0.8888888888888573,0.6875000000000245,0.03345100121349702,1.0351247359584295,58.333333333333336,1.0499999999811,0.8843750000000313,0.0002624862245284021,0.9977872845698297,0
4,3.3027777777777776,0.786111111111111,0.6500000000000004,0.8888888888888573,0.8843750000000313,0.033680182709497186,1.0422166443297105,55.55555555555556,0.9999999999820001,0.7312500000000264,7.588282358028664e-08,0.9951664943116303,0
5,3.952777777777778,0.6500000000000004,0.5527777777777776,0.711111111111111,0.9140625000000006,0.032437228552371584,1.0037540409089214,55.55555555555556,0.9999999999820001,0.7773437499999998,2.3004236737733663e-08,0.9986735924314285,0
6,4.5055555555555555,0.5527777777777776,0.9555555555555557,0.6805555555555557,0.8122448979591832,0.034110432708935226,1.0555305183815495,55.55555555555556,0.9999999999820001,1.4040816326530612,0.03365080803632736,0.99687503359399,0
7,5.461111111111111,0.9555555555555557,0.7527777777777773,0.711111111111111,1.3437500000000004,0.030119052444100586,0.9320192244630999,55.55555555555556,0.9999999999820001,1.0585937499999996,6.508049578846792e-14,0.997025677351054,0
8,6.213888888888889,0.7527777777777773,0.719444444444445,0.7305555555555555,1.0304182509505697,0.03189542640082978,0.9869882405229485,50.0,0.8999999999838,0.9847908745247156,1.7076184910536085e-10,0.9977143431862223,0
9,6.933333333333334,0.719444444444445,0.6277777777777773,0.719444444444445,1.0,0.03630312251208421,1.1233822229998116,58.333333333333336,1.0499999999811,0.8725868725868713,4.199684553896077e-06,0.9969561750362157,0
10,7.561111111111111,0.6277777777777773,0.647222222222223,0.715277777777778,0.8776699029126205,0.02856340053457251,0.8838803433032815,50.0,0.8999999999838,0.9048543689320396,8.835467774082062e-11,0.997993585277106,0
11,8.208333333333334,0.647222222222223,0.6749999999999989,0.6847222222222227,0.9452332657200817,0.03425351711068817,1.0599581946307293,55.55555555555556,0.9999999999820001,0.9858012170385373,9.056173553290137e-07,0.998472147123361,0
12,8.883333333333333,0.6749999999999989,0.7583333333333346,0.6624999999999996,1.0188679245283008,0.03423524848352248,1.0593928809723872,58.333333333333336,1.0499999999811,1.144654088050317,1.4140108760329895e-05,0.9969227950707567,0
13,9.641666666666667,0.7583333333333346,0.9111111111111097,0.697222222222222,1.0876494023904406,0.032520609287065814,1.0063342166242466,58.333333333333336,1.0499999999811,1.3067729083665323,2.349294163650484e-06,0.9972154429322473,0
14,10.552777777777777,0.9111111111111097,0.8666666666666671,0.697222222222222,1.3067729083665323,0.034696387439870094,1.0736625985626898,55.55555555555556,0.9999999999820001,1.2430278884462163,1.672638205718613e-08,0.9980924383591451,0
15,11.419444444444444,0.8666666666666671,0.6722222222222225,0.7361111111111112,1.1773584905660384,0.03187876723583452,0.9864727308777531,55.55555555555556,0.9999999999820001,0.9132075471698117,2.5998259101100984e-11,0.9969991544732111,0
16,12.091666666666667,0.6722222222222225,0.6638888888888896,0.7361111111111112,0.9132075471698117,0.03588343255438261,1.110395124231749,58.333333333333336,1.0499999999811,0.9018867924528311,1.6581127056269906e-05,0.9953815771746726,0
17,12.755555555555556,0.6638888888888896,0.7111111111111104,0.697222222222222,0.9521912350597623,0.029333154464479292,0.907699999054758,52.77777777777778,0.9499999999829001,1.019920318725099,1.2730191345511344e-09,0.9974931669374536,0
18,13.466666666666667,0.7111111111111104,0.39444444444444393,0.6930555555555546,1.0260521042084172,0.03071313728043726,0.9504028867464812,55.55555555555556,0.9999999999820001,0.5691382765531062,4.1129452621468943e-10,0.9973758955772947,0
19,13.86111111111111,0.39444444444444393,0.6416666666666675,0.6736111111111107,0.5855670103092779,0.03193782685817759,0.988300301765497,55.55555555555556,0.9999999999820001,0.9525773195876307,0.0008063909481279552,0.9989198663939738,0
20,14.502777777777778,0.6416666666666675,0.7138888888888886,0.6736111111111107,0.9525773195876307,0.03641100840099154,1.1267206986273748,58.333333333333336,1.0499999999811,1.05979381443299,0.00034548237454146147,0.9948164536208615,0
21,15.216666666666667,0.7138888888888886,0.5861111111111104,0.6930555555555546,1.0300601202404818,0.03470573092088196,1.0739517279747994,55.55555555555556,0.9999999999820001,0.8456913827655311,3.586051775528176e-07,0.9981283804055252,0
22,15.802777777777777,0.5861111111111104,0.6416666666666657,0.6916666666666664,0.8473895582329309,0.029776093086014047,0.9214065162598979,52.77777777777778,0.9499999999829001,0.927710843373493,8.139715568233896e-09,0.9978593763377224,0
23,16.444444444444443,0.6416666666666657,0.5055555555555564,0.6680555555555561,0.9604989604989583,0.0324424865741097,1.0039167477985773,55.55555555555556,0.9999999999820001,0.7567567567567575,5.2873204481329594e-08,0.9991121679504735,0
24,16.95,0.5055555555555564,0.8055555555555571,0.6527777777777786,0.7744680851063833,0.03540258405666918,1.0955155046037781,58.333333333333336,1.0499999999811,1.2340425531914903,0.0899590477347374,0.9960521583644377,0
25,17.755555555555556,0.8055555555555571,0.6805555555555536,0.6527777777777786,1.2340425531914903,0.030474612766952187,0.9430218633067037,52.77777777777778,0.9499999999829001,1.0425531914893573,2.4796181774533466e-10,0.9957310425543228,0
26,18.43611111111111,0.6805555555555536,0.5555555555555571,0.6527777777777786,1.0425531914893573,0.03435624825204128,1.0631371591373266,55.55555555555556,0.9999999999820001,0.8510638297872354,1.7300149011134636e-06,0.9975484773804304,0
27,18.991666666666667,0.5555555555555571,0.6472222222222221,0.6416666666666666,0.8658008658008683,0.02938189290340257,0.9092081860115396,52.77777777777778,0.9499999999829001,1.0086580086580086,4.965320243854876e-08,0.9979788922189619,0
28,19.63888888888889,0.6472222222222221,0.7083333333333321,0.6416666666666666,1.0086580086580086,0.0313706253408312,0.970748530530575,55.55555555555556,0.9999999999820001,1.1038961038961022,2.458725134601991e-07,0.9988588137026464,0
29,20.34722222222222,0.7083333333333321,0.8055555555555571,0.6444444444444448,1.0991379310344802,0.030248929318122494,0.9360382002800267,52.77777777777778,0.9499999999829001,1.2500000000000018,2.032056443113106e-07,0.9968898134744889,0
30,21.15277777777778,0.8055555555555571,0.5694444444444429,0.6638888888888879,1.2133891213389163,0.032726178666073365,1.0126954596796705,58.333333333333336,1.0499999999811,0.8577405857740575,1.1296845237040998e-08,0.9977869690258687,0
31,21.72222222222222,0.5694444444444429,0.6999999999999993,0.6444444444444439,0.8836206896551707,0.033534534137446496,1.0377096210952053,58.333333333333336,1.0499999999811,1.086206896551724,3.648925485322252e-05,0.9975575319034031,0
32,22.42222222222222,0.6999999999999993,0.6416666666666693,0.6638888888888879,1.054393305439331,0.030276359752265822,0.9368870215370831,52.77777777777778,0.9499999999829001,0.9665271966527251,5.60618218514719e-10,0.9991393060413026,0
33,23.06388888888889,0.6416666666666693,0.5888888888888886,0.6638888888888879,0.9665271966527251,0.032862293896264175,1.0169074783517553,50.0,0.8999999999838,0.8870292887029297,2.3608775379102553e-08,0.9984080116995864,0
34,23.65277777777778,0.5888888888888886,0.4250000000000007,0.6638888888888879,0.8870292887029297,0.0356408228173545,1.1028876855640886,58.333333333333336,1.0499999999811,0.6401673640167385,2.956636672024615e-05,0.9976868816219026,0
35,24.07777777777778,0.4250000000000007,0.7083333333333321,0.6444444444444457,0.6594827586206895,0.030360005391166553,0.9394753945824394,50.0,0.8999999999838,1.0991379310344789,0.0007704179733991623,0.9957194018044049,0
36,24.78611111111111,0.7083333333333321,0.5416666666666679,0.6444444444444457,1.0991379310344789,0.028315580441258585,0.8762116727298798,52.77777777777778,0.9499999999829001,0.8405172413793105,2.767890951160812e-11,0.9968695564595478,0
37,25.32777777777778,0.5416666666666679,0.6444444444444422,0.6444444444444457,0.8405172413793105,0.027537169409086317,0.8521241272181078,47.22222222222222,0.8499999999847,0.9999999999999944,2.324717529589293e-09,0.9960294103070053,0
38,25.97222222222222,0.6444444444444422,0.81388888888889,0.6430555555555557,1.002159827213819,0.03251392035722308,1.0061272309889553,55.55555555555556,0.9999999999820001,1.2656587473002174,1.3913404472987168e-05,0.9980159410094132,0
39,26.78611111111111,0.81388888888889,1.0166666666666657,0.6430555555555557,1.2656587473002174,0.03727117460619995,1.1533381176506194,61.111111111111114,1.0999999999802001,1.5809935205183567,0.0025711371563374996,0.9975719277227113,0
40,27.802777777777777,1.0166666666666657,0.719444444444445,0.6430555555555557,1.5809935205183567,0.030958235350717466,0.9579873256594891,55.55555555555556,0.9999999999820001,1.1187904967602598,1.8740151303594382e-13,0.9984640669120133,0
41,28.522222222222222,0.719444444444445,0.7055555555555557,0.6722222222222207,1.0702479338843007,0.0315081770685537,0.9750050009103594,55.55555555555556,0.9999999999820001,1.0495867768595066,1.0942597050700442e-08,0.9987132632770916,0
42,29.227777777777778,0.7055555555555557,0.6944444444444429,0.6749999999999989,1.045267489711936,0.03088447372616585,0.9557048085637959,55.55555555555556,0.9999999999820001,1.0288065843621392,4.174069090367993e-09,0.9992421728596432,0
43,29.92222222222222,0.6944444444444429,0.7555555555555564,0.6999999999999993,0.9920634920634908,0.025883767764453492,0.8009604287114327,50.0,0.8999999999838,1.0793650793650817,1.2138836810726694e-11,0.9948722456375445,0
44,30.677777777777777,0.7555555555555564,0.7138888888888886,0.7069444444444439,1.068762278978391,0.031196054181298744,0.9653465120898211,52.77777777777778,0.9499999999829001,1.0098231827111988,2.279239297298119e-10,0.9987744703665975,0
45,31.391666666666666,0.7138888888888886,0.4861111111111107,0.7111111111111104,1.0039062500000007,0.029257976528645632,0.9053736549049057,50.0,0.8999999999838,0.6835937500000001,1.4888530946305378e-12,0.9987334398647671,0
46,31.877777777777776,0.4861111111111107,0.9000000000000021,0.7097222222222221,0.6849315068493146,0.03257218356464694,1.0079301572097819,55.55555555555556,0.9999999999820001,1.2681017612524492,0.04217405244708061,0.9960394006456833,0
47,32.77777777777778,0.9000000000000021,0.5777777777777757,0.7166666666666668,1.2558139534883748,0.03834253047659402,1.1864906967133866,63.888888888888886,1.1499999999793,0.8062015503875939,1.1104048098786734e-05,0.9961977222001343,0
48,33.355555555555554,0.5777777777777757,0.6777777777777771,0.7166666666666668,0.8062015503875939,0.03875301211039847,1.1991928484396008,61.111111111111114,1.0999999999802001,0.9457364341085261,0.2542363703250885,0.9927897737435362,0
49,34.03333333333333,0.6777777777777771,0.56388888888889,0.7097222222222221,0.954990215264187,0.0364977627479109,1.1294052691092866,58.333333333333336,1.0499999999811,0.7945205479452071,0.00016554714238736778,0.9929669487318573,0
50,34.59722222222222,0.56388888888889,0.6555555555555586,0.6999999999999993,0.8055555555555579,0.029535750082643183,0.9139692205474055,50.0,0.8999999999838,0.9365079365079417,2.545448474222667e-08,0.9973345286963817,0
51,35.25277777777778,0.6555555555555586,0.6611111111111114,0.68611111111111,0.9554655870445403,0.03429381666079075,1.0612052443346511,58.333333333333336,1.0499999999811,0.9635627530364392,3.3923424780368805e-06,0.996643920241715,0
52,35.91388888888889,0.6611111111111114,0.8166666666666629,0.6694444444444443,0.9875518672199177,0.03211059228449361,0.9936464426823781,58.333333333333336,1.0499999999811,1.2199170124481273,3.054391982004745e-06,0.9979386555095406,0
53,36.730555555555554,0.8166666666666629,0.9083333333333314,0.6694444444444443,1.2199170124481273,0.027413900821018387,0.8483096415511048,50.0,0.8999999999838,1.356846473029043,1.5833032107614997e-10,0.9949767944400295,0
54,37.638888888888886,0.9083333333333314,0.7000000000000028,0.6694444444444443,1.356846473029043,0.034137831188225366,1.0563783508114328,58.333333333333336,1.0499999999811,1.0456431535269755,5.457684082443848e-09,0.9981330961556,0
55,38.33888888888889,0.7000000000000028,0.6111111111111143,0.6694444444444443,1.0456431535269755,0.03344933344895393,1.035073127807113,58.333333333333336,1.0499999999811,0.9128630705394241,4.7469873720729083e-07,0.9975416223653404,0
56,38.95,0.6111111111111143,0.9111111111111114,0.6694444444444443,0.9128630705394241,0.0347235664178592,1.0745036386330613,55.55555555555556,0.9999999999820001,1.3609958506224074,0.0015262310625985265,0.9977054228136937,0
57,39.861111111111114,0.9111111111111114,0.7388888888888872,0.6694444444444443,1.3609958506224074,0.031395587166189946,0.9715209619062041,55.55555555555556,0.9999999999820001,1.1037344398340225,1.3920989361260183e-11,0.9988324046353977,0
58,40.6,0.7388888888888872,0.6972222222222229,0.68888888888889,1.072580645161286,0.03663814984769715,1.1337494786793,58.333333333333336,1.0499999999811,1.0120967741935476,8.110836461128201e-06,0.9973338927114899,0
59,41.297222222222224,0.6972222222222229,0.4111111111111114,0.6986111111111128,0.9980119284294219,0.03029311808008055,0.9374055997268244,52.77777777777778,0.9499999999829001,0.588469184890655,4.283928073389731e-11,0.9986178327444483,0
60,41.708333333333336,0.4111111111111114,0.6305555555555529,0.6986111111111128,0.588469184890655,0.028342208872155626,0.8770356763919933,47.22222222222222,0.8499999999847,0.9025844930417434,8.186643754015677e-06,0.9976990596521588,0
61,42.33888888888889,0.6305555555555529,0.6361111111111128,0.6986111111111128,0.9025844930417434,0.033591459663342496,1.039471153420839,52.77777777777778,0.9499999999829001,0.9105367793240559,3.702681112827122e-07,0.9966211343040742,0
62,42.975,0.6361111111111128,0.6166666666666671,0.6986111111111128,0.9105367793240559,0.030233205077056593,0.935551621394761,55.55555555555556,0.9999999999820001,0.8827037773359826,1.6789725165722302e-09,0.9989236741359943,0
63,43.59166666666667,0.6166666666666671,0.56388888888889,0.6666666666666679,0.924999999999999,0.030564045807280164,0.9457893246351289,52.77777777777778,0.9499999999829001,0.8458333333333334,2.514760177874109e-09,0.998981110788417,0
64,44.15555555555556,0.56388888888889,0.7111111111111086,0.6333333333333329,0.8903508771929849,0.030001857381859183,0.9283926810575974,50.0,0.8999999999838,1.1228070175438565,1.0258141855956637e-06,0.9958463816027107,0
65,44.86666666666667,0.7111111111111086,0.7111111111111086,0.6333333333333329,1.1228070175438565,0.032127844086069376,0.9941802911742946,58.333333333333336,1.0499999999811,1.1228070175438565,5.074307409813628e-07,0.9989301845987206,0
66,45.577777777777776,0.7111111111111086,0.45000000000000284,0.6666666666666679,1.0666666666666609,0.031191381602094444,0.9652019214306589,55.55555555555556,0.9999999999820001,0.675000000000003,7.759148878960787e-10,0.9994306959947252,0
67,46.02777777777778,0.45000000000000284,0.6777777777777771,0.6333333333333329,0.7105263157894787,0.03250244387699377,1.005772096967965,58.333333333333336,1.0499999999811,1.070175438596491,0.001097411965020001,0.9978965192137215,0
68,46.705555555555556,0.6777777777777771,0.6361111111111128,0.6333333333333329,1.070175438596491,0.030217299051386745,0.9350594172745744,52.77777777777778,0.9499999999829001,1.0043859649122842,7.81742848232625e-09,0.9969420219707067,0
69,47.34166666666667,0.6361111111111128,0.6333333333333329,0.6333333333333329,1.0043859649122842,0.03296344327841935,1.020037496100028,55.55555555555556,0.9999999999820001,1.0,2.7365827008907218e-06,0.9975272971338042,0
70,47.975,0.6333333333333329,0.43055555555555713,0.6347222222222229,0.9978118161925584,0.03387448112226222,1.0482291128931147,55.55555555555556,0.9999999999820001,0.6783369803063476,9.656559996074066e-07,0.9981296610717887,0
71,48.40555555555556,0.43055555555555713,0.3138888888888829,0.6347222222222229,0.6783369803063476,0.029407091861112122,0.909987955330821,50.0,0.8999999999838,0.4945295404813905,1.406956613436705e-07,0.9953685689776697,0
72,48.71944444444444,0.3138888888888829,0.6583333333333385,0.625,0.5022222222222126,0.05490152631300588,1.6989006566875158,97.22222222222223,1.7499999999685,1.0533333333333417,0.9130773544311523,0.8905515139244916,1
73,49.37777777777778,0.6583333333333385,0.5083333333333329,0.6347222222222229,1.0371991247264842,0.032625331074437706,1.0095747806901942,61.111111111111114,1.0999999999802001,0.8008752735229744,1.7154569604826975e-06,0.997196601458707,0
74,49.88611111111111,0.5083333333333329,0.8416666666666615,0.6347222222222229,0.8008752735229744,0.03494518651695247,1.0813615633060136,52.77777777777778,0.9499999999829001,1.3260393873085243,0.09045933932065964,0.993910603903928,0
75,50.727777777777774,0.8416666666666615,0.4638888888888957,0.6347222222222229,1.3260393873085243,0.02951147239652847,0.9132179595232949,55.55555555555556,0.9999999999820001,0.7308533916849115,3.2305636030877105e-12,0.9983534132854661,0
76,51.19166666666667,0.4638888888888957,0.7027777777777757,0.5708333333333329,0.8126520681265332,0.03671256667670551,1.1360522707537886,58.333333333333336,1.0499999999811,1.231143552311433,0.187908336520195,0.9948421308822302,0
77,51.894444444444446,0.7027777777777757,0.6749999999999972,0.6347222222222229,1.1072210065645471,0.031639325524163556,0.9790633251924358,58.333333333333336,1.0499999999811,1.0634573304157493,2.277981963061393e-07,0.9981008926934347,0
78,52.56944444444444,0.6749999999999972,0.4194444444444443,0.6347222222222229,1.0634573304157493,0.02892261984703482,0.8949962077759325,52.77777777777778,0.9499999999829001,0.6608315098468263,9.537196726805419e-11,0.9959405803899766,0
79,52.98888888888889,0.4194444444444443,0.625,0.5708333333333329,0.7347931873479322,0.03221192803933198,0.9967822276414213,55.55555555555556,0.9999999999820001,1.094890510948906,0.0010630235774442554,0.9978034068032887,0
80,53.61388888888889,0.625,0.8083333333333371,0.5666666666666664,1.1029411764705888,0.03131760229945327,0.9691077586638154,55.55555555555556,0.9999999999820001,1.4264705882353015,4.9432968808105215e-05,0.9996701276480513,0
81,54.422222222222224,0.8083333333333371,0.6499999999999986,0.6416666666666693,1.2597402597402605,0.03482156514931604,1.0775361610492389,55.55555555555556,0.9999999999820001,1.0129870129870067,3.4635041856745374e-07,0.997175520353599,0
82,55.07222222222222,0.6499999999999986,0.625,0.6541666666666686,0.9936305732484025,0.027595729584129723,0.8539362429554695,47.22222222222222,0.8499999999847,0.9554140127388507,1.100241425744386e-11,0.997717146332445,0
83,55.69722222222222,0.625,0.6138888888888872,0.6374999999999993,0.9803921568627462,0.03407100772071466,1.0543105315637704,52.77777777777778,0.9499999999829001,0.9629629629629614,9.454000064579304e-06,0.9964983185316748,0
84,56.31111111111111,0.6138888888888872,0.8694444444444471,0.6374999999999993,0.9629629629629614,0.02984092222076709,0.9234126218638934,52.77777777777778,0.9499999999829001,1.3638344226579577,5.698509539797669e-06,0.9986947365480725,0
85,57.18055555555556,0.8694444444444471,0.8972222222222186,0.6374999999999993,1.3638344226579577,0.029374365834014766,0.9089752645613606,52.77777777777778,0.9499999999829001,1.4074074074074032,1.13635079124208e-09,0.9989015541045786,0
86,58.077777777777776,0.8972222222222186,0.7222222222222214,0.6624999999999979,1.3542976939203344,0.031484596937854756,0.9742753253945854,52.77777777777778,0.9499999999829001,1.0901467505241114,6.030205848550629e-12,0.9987197114527742,0
87,58.8,0.7222222222222214,0.6666666666666714,0.6624999999999979,1.0901467505241114,0.0321145937469893,0.9937702659659583,58.333333333333336,1.0499999999811,1.006289308176111,9.659465405320589e-08,0.9974470571434735,0
88,59.46666666666667,0.6666666666666714,0.42777777777777715,0.658333333333335,1.012658227848106,0.03045635165086099,0.9424567820748576,52.77777777777778,0.9499999999829001,0.6497890295358624,3.933668113464961e-10,0.9975860789406776,0
89,59.894444444444446,0.42777777777777715,0.5083333333333329,0.658333333333335,0.6497890295358624,0.036779942694097074,1.1381371883850202,58.333333333333336,1.0499999999811,0.7721518987341746,0.02655082754790783,0.9963459446440281,0
90,60.40277777777778,0.5083333333333329,0.6083333333333343,0.658333333333335,0.7721518987341746,0.0339584553776139,1.050827654812486,55.55555555555556,0.9999999999820001,0.9240506329113916,9.097495785681531e-05,0.9978346918666783,0
91,61.01111111111111,0.6083333333333343,0.9222222222222172,0.6374999999999993,0.9542483660130745,0.030132898372864283,0.9324476799004767,52.77777777777778,0.9499999999829001,1.4466230936819109,5.250901813269593e-05,0.9967663334665617,0
92,61.93333333333333,0.9222222222222172,0.8388888888888957,0.6458333333333357,1.4279569892472987,0.03336698798016268,1.032524987884607,55.55555555555556,0.9999999999820001,1.2989247311828014,2.991529512996749e-08,0.9970346811191879,0
93,62.772222222222226,0.8388888888888957,0.43611111111111,0.6944444444444464,1.2080000000000064,0.03191224516031797,0.9875086887410229,55.55555555555556,0.9999999999820001,0.6279999999999967,3.369029014099745e-11,0.9988041395791093,0
94,63.208333333333336,0.43611111111111,0.44722222222222285,0.6944444444444464,0.6279999999999967,0.033001785223570154,1.0212239686841234,58.333333333333336,1.0499999999811,0.6439999999999991,0.0008846880518831313,0.9956939202483432,0
95,63.65555555555556,0.44722222222222285,0.6611111111111043,0.6375000000000028,0.7015250544662288,0.03283783858070399,1.016150720672054,55.55555555555556,0.9999999999820001,1.0370370370370217,0.0010493346489965916,0.9969515945321847,0
96,64.31666666666666,0.6611111111111043,0.9694444444444485,0.6347222222222193,1.0415754923413507,0.030423513903352444,0.9414406341723686,52.77777777777778,0.9499999999829001,1.5273522975930114,2.0228588255122304e-05,0.999038101580366,0
97,65.28611111111111,0.9694444444444485,0.4333333333333371,0.6347222222222193,1.5273522975930114,0.03375074566454388,1.0444001801750196,55.55555555555556,0.9999999999820001,0.6827133479212345,1.524908324612717e-11,0.9982149129154281,0
98,65.71944444444445,0.4333333333333371,0.5944444444444343,0.5583333333333336,0.7761194029850811,0.030601200845862667,0.9469390689807994,52.77777777777778,0.9499999999829001,1.0646766169154043,3.4699347452260554e-05,0.9985530987659812,0
99,66.31388888888888,0.5944444444444343,0.88333333333334,0.6013888888888843,0.9884526558891362,0.03046285714693579,0.9426580914426618,52.77777777777778,0.9499999999829001,1.468822170900715,4.839642861043103e-05,0.9984437601564209,0
100,67.19722222222222,0.88333333333334,0.5694444444444429,0.6347222222222193,1.3916849015317456,0.03354294751075471,1.0379699687831145,55.55555555555556,0.9999999999820001,0.8971553610503299,1.91421656303703e-09,0.9982916131643329,0
101,67.76666666666667,0.5694444444444429,0.6833333333333371,0.6277777777777693,0.9070796460177089,0.03710713260603989,1.1482619188541165,58.333333333333336,1.0499999999811,1.0884955752212597,0.00856506172567606,0.9956200335382539,0
102,68.45,0.6833333333333371,0.6416666666666657,0.6277777777777693,1.0884955752212597,0.02961865220613907,0.9165345858752285,52.77777777777778,0.9499999999829001,1.0221238938053219,2.034736823475214e-09,0.9987238469351516,0
103,69.09166666666667,0.6416666666666657,0.6861111111111029,0.61805555555555,1.038202247191019,0.030486005406422302,0.9433744029167472,52.77777777777778,0.9499999999829001,1.1101123595505584,2.127362250803344e-07,0.9973200417426304,0
104,69.77777777777777,0.6861111111111029,0.6694444444444514,0.651388888888885,1.0533049040511664,0.033115860862365856,1.0247539830694639,55.55555555555556,0.9999999999820001,1.0277185501066266,2.3020866137812845e-06,0.9953185240035305,0
105,70.44722222222222,0.6694444444444514,0.7333333333333343,0.6652777777777779,1.0062630480167118,0.03156263365199094,0.9766901330291828,52.77777777777778,0.9499999999829001,1.1022964509394586,2.390669351370889e-07,0.9958807978819113,0
106,71.18055555555556,0.7333333333333343,0.6444444444444457,0.6763888888888943,1.0841889117043049,0.031374684451515464,0.9708741377089208,52.77777777777778,0.9499999999829001,0.9527720739219656,1.5120331653406538e-09,0.9974329725730213,0
107,71.825,0.6444444444444457,0.7833333333333314,0.6569444444444485,0.9809725158562326,0.0347747243862338,1.0760866967355063,55.55555555555556,0.9999999999820001,1.1923890063424845,3.215079414076172e-05,0.9985615066796724,0
108,72.60833333333333,0.7833333333333314,0.62222222222222,0.6763888888888943,1.158110882956867,0.029829857781479636,0.9230702382466481,52.77777777777778,0.9499999999829001,0.9199178644763755,1.861473822306614e-11,0.9974487034594897,0
109,73.23055555555555,0.62222222222222,0.6888888888888971,0.6763888888888943,0.9199178644763755,0.0304402857795163,0.941959631609092,52.77777777777778,0.9499999999829001,1.0184804928131457,2.565437107193702e-08,0.9973222248215953,0
110,73.91944444444445,0.6888888888888971,0.5361111111110972,0.6763888888888943,1.0184804928131457,0.03447563538157436,1.0668315349841366,55.55555555555556,0.9999999999820001,0.7926078028747164,8.780575626587961e-07,0.9971125854823472,0
111,74.45555555555555,0.5361111111110972,0.6638888888888914,0.6763888888888943,0.7926078028747164,0.036080758458966626,1.116501277036463,55.55555555555556,0.9999999999820001,0.9815195071868542,0.0006697853677906096,0.9982573012565332,0
112,75.11944444444444,0.6638888888888914,0.5972222222222285,0.6666666666666714,0.99583333333333,0.03291854792724661,1.0186482315984413,58.333333333333336,1.0499999999811,0.8958333333333365,3.798452326009283e-07,0.9974543074848843,0
113,75.71666666666667,0.5972222222222285,0.5138888888888857,0.6666666666666714,0.8958333333333365,0.03159924509896694,0.9778230562006661,58.333333333333336,1.0499999999811,0.7708333333333232,6.069381441875521e-08,0.9985232348868986,0
114,76.23055555555555,0.5138888888888857,0.43055555555555713,0.6541666666666686,0.7855626326963836,0.03505558660685658,1.0847778396435261,55.55555555555556,0.9999999999820001,0.658174097664544,5.6825268984539434e-05,0.9979784151365421,0
115,76.66111111111111,0.43055555555555713,0.7805555555555515,0.6333333333333329,0.6798245614035118,0.03754321550765979,1.161756289187437,61.111111111111114,1.0999999999802001,1.2324561403508716,0.5919822454452515,0.9952794609388733,1
116,77.44166666666666,0.7805555555555515,0.6944444444444429,0.6333333333333329,1.2324561403508716,0.034839990570070874,1.0781063266078732,58.333333333333336,1.0499999999811,1.0964912280701737,6.339597803162178e-06,0.9975538470731262,0
117,78.1361111111111,0.6944444444444429,0.6916666666666771,0.6430555555555557,1.0799136069114443,0.02860200808057114,0.8850750347746301,47.22222222222222,0.8499999999847,1.0755939524838172,1.2239557978244164e-10,0.9970616403026926,0
118,78.82777777777778,0.6916666666666771,0.6638888888888772,0.6430555555555557,1.0755939524838172,0.03600219495131268,1.1140701680362504,55.55555555555556,0.9999999999820001,1.032397408207325,2.4574723283876665e-05,0.9983433281402703,0
119,79.49166666666666,0.6638888888888772,0.8305555555555628,0.6638888888888843,0.9999999999999893,0.03465957004326341,1.0725233023814502,55.55555555555556,0.9999999999820001,1.251046025104622,0.00014076197112444788,0.9962291648580923,0
120,80.32222222222222,0.8305555555555628,0.6583333333333314,0.6638888888888843,1.251046025104622,0.030101326972386704,0.9314707184823532,52.77777777777778,0.9499999999829001,0.9916317991631839,4.649110957322122e-12,0.9988193882066894,0
121,80.98055555555555,0.6583333333333314,0.8083333333333371,0.6638888888888843,0.9916317991631839,0.034370785306961055,1.0635870011327695,58.333333333333336,1.0499999999811,1.2175732217573363,3.972282138420269e-05,0.9980888280146991,0
122,81.78888888888889,0.8083333333333371,0.74722222222222,0.6777777777777771,1.1926229508196788,0.033713085674670865,1.0432348103606843,61.111111111111114,1.0999999999802001,1.1024590163934405,1.9770830306242715e-07,0.9980572102444822,0
123,82.53611111111111,0.74722222222222,0.62777777777778,0.69305555555556,1.0781563126252405,0.031899468681927515,0.9871133269180391,55.55555555555556,0.9999999999820001,0.9058116232464904,2.0184709459414307e-09,0.9992191075115164,0
124,83.16388888888889,0.62777777777778,0.6472222222222257,0.69305555555556,0.9058116232464904,0.03308761766122135,1.0238800111383777,50.0,0.8999999999838,0.9338677354709409,6.48972289241101e-08,0.9980751958665836,0
125,83.81111111111112,0.6472222222222257,0.3972222222222115,0.69305555555556,0.9338677354709409,0.029724966013874837,0.9198244142262203,52.77777777777778,0.9499999999829001,0.5731462925851512,8.035614534884772e-11,0.9979593170412961,0
126,84.20833333333333,0.3972222222222115,0.7305555555555543,0.6777777777777771,0.5860655737704765,0.03196447807349839,0.9891250104803676,52.77777777777778,0.9499999999829001,1.0778688524590154,0.003367331111803651,0.9968670144535294,0
127,84.93888888888888,0.7305555555555543,0.5638888888888971,0.6777777777777771,1.0778688524590154,0.028780894210359412,0.8906105778419926,52.77777777777778,0.9499999999829001,0.831967213114767,6.2952759324885754e-12,0.998968554421616,0
128,85.50277777777778,0.5638888888888971,0.6694444444444372,0.6611111111111043,0.8529411764706094,0.034644348091842796,1.0720522666015504,55.55555555555556,0.9999999999820001,1.0126050420168062,4.164611527812667e-05,0.9982119233475514,0
129,86.17222222222222,0.6694444444444372,0.7888888888888914,0.6638888888888843,1.008368200836816,0.03579915935155785,1.107787331530251,55.55555555555556,0.9999999999820001,1.1882845188284639,5.2780316764255986e-05,0.9981416111452925,0
130,86.96111111111111,0.7888888888888914,1.1527777777777857,0.6638888888888843,1.1882845188284639,0.030492537055311856,0.9435765215705065,52.77777777777778,0.9499999999829001,1.7364016736401913,6.721846148138866e-06,0.9988970337547047,0
131,88.1138888888889,1.1527777777777857,0.8611111111111001,0.6999999999999957,1.646825396825418,0.034735351099856863,1.0748683098057812,58.333333333333336,1.0499999999811,1.2301587301587218,4.593568906328949e-13,0.998394417258119,0
132,88.975,0.8611111111111001,0.63333333333334,0.6999999999999957,1.2301587301587218,0.03230344448019274,0.99961415877189,55.55555555555556,0.9999999999820001,0.9047619047619198,7.321689088346517e-11,0.998667749324919,0
133,89.60833333333333,0.63333333333334,0.4749999999999943,0.6583333333333314,0.962025316455709,0.030077734285093465,0.9307406544089613,52.77777777777778,0.9499999999829001,0.7215189873417656,1.0783200998787379e-09,0.9966375886739132,0
134,90.08333333333333,0.4749999999999943,0.5527777777777771,0.6583333333333314,0.7215189873417656,0.03180584498623609,0.9842161878260429,55.55555555555556,0.9999999999820001,0.8396624472573854,1.5274672477971762e-05,0.9973253333125156,0
135,90.6361111111111,0.5527777777777771,0.6472222222222257,0.6513888888888886,0.8486140724946689,0.027531462539318468,0.8519475309475242,47.22222222222222,0.8499999999847,0.9936034115138651,2.8855799971694296e-09,0.9938180756841046,0
136,91.28333333333333,0.6472222222222257,0.87777777777778,0.6583333333333314,0.9831223628692064,0.0313170039447945,0.9690892428739827,55.55555555555556,0.9999999999820001,1.3333333333333406,9.763042726262938e-06,0.9985135477109628,0
137,92.16111111111111,0.87777777777778,0.5138888888888857,0.6583333333333314,1.3333333333333406,0.030611477621852203,0.9472570787457323,55.55555555555556,0.9999999999820001,0.7805907172995755,3.999376784608044e-12,0.9980730791673236,0
138,92.675,0.5138888888888857,0.7944444444444514,0.6583333333333314,0.7805907172995755,0.035643255957062955,1.102962977872447,58.333333333333336,1.0499999999811,1.2067510548523348,0.050570711493492126,0.9965820518509438,0
139,93.46944444444445,0.7944444444444514,0.6833333333333229,0.7180555555555586,1.1063829787234094,0.033759794793896784,1.0446802010202045,58.333333333333336,1.0499999999811,0.9516441005802523,4.491708338605349e-08,0.9961296111098769,0
140,94.15277777777777,0.6833333333333229,0.8527777777777885,0.6652777777777743,1.0271398747390295,0.031754260975829375,0.9826199460630195,55.55555555555556,0.9999999999820001,1.2818371607515886,1.7151854763142182e-06,0.9992333839115433,0
141,95.00555555555556,0.8527777777777885,0.4166666666666572,0.6652777777777743,1.2818371607515886,0.03477904250640956,1.0762203188348343,55.55555555555556,0.9999999999820001,0.6263048016701351,5.54659118634504e-09,0.9980282574855699,0
142,95.42222222222222,0.4166666666666572,0.75833333333334,0.6402777777777828,0.6507592190889172,0.02863963132085478,0.8862392673910454,47.22222222222222,0.8499999999847,1.1843817787418665,0.00030507860356010497,0.9967084051378481,0
143,96.18055555555556,0.75833333333334,0.6861111111111029,0.6652777777777743,1.139874739039682,0.030906387838497192,0.9563829299627928,55.55555555555556,0.9999999999820001,1.0313152400835004,1.1253634690788772e-09,0.9990719034911137,0
144,96.86666666666666,0.6861111111111029,0.4111111111111114,0.6847222222222129,1.0020283975659245,0.02853230994533351,0.8829182603518204,50.0,0.8999999999838,0.6004056795131932,2.3581633607633323e-12,0.9969227687038986,0
145,97.27777777777777,0.4111111111111114,0.5638888888888971,0.6847222222222129,0.6004056795131932,0.031228662514313013,0.966355560873922,55.55555555555556,0.9999999999820001,0.823529411764729,0.00013344419130589813,0.998864769409421,0
146,97.84166666666667,0.5638888888888971,0.42499999999999716,0.6847222222222129,0.823529411764729,0.03279424301915462,1.0148016775193622,55.55555555555556,0.9999999999820001,0.6206896551724181,6.142764163996617e-07,0.9974689177817745,0
147,98.26666666666667,0.42499999999999716,0.6861111111111171,0.62361111111111,0.681514476614696,0.034998243847069684,1.0830033962209005,55.55555555555556,0.9999999999820001,1.100222717149232,0.042496033012866974,0.9944008432025961,0
148,98.95277777777778,0.6861111111111171,0.8305555555555486,0.6847222222222129,1.0020283975659454,0.030203272090852426,0.9346253598983327,52.77777777777778,0.9499999999829001,1.212981744421913,4.8360821125470466e-08,0.998833160422216,0
149,99.78333333333333,0.8305555555555486,0.9277777777777771,0.6847222222222129,1.212981744421913,0.03414813540666394,1.0566972097694178,55.55555555555556,0.9999999999820001,1.3549695740365286,2.9496477509383112e-06,0.998574179556507,0
150,100.71111111111111,0.9277777777777771,0.6472222222222257,0.68611111111111,1.3522267206477745,0.03181793894471076,0.984590429406822,58.333333333333336,1.0499999999811,0.9433198380566867,1.024095305085515e-11,0.9996968007083573,0
151,101.35833333333333,0.6472222222222257,0.5444444444444372,0.6666666666666643,0.970833333333342,0.034805797341900535,1.0770482340247698,55.55555555555556,0.9999999999820001,0.8166666666666587,1.954851995833451e-06,0.9985324133507665,0
152,101.90277777777777,0.5444444444444372,0.9694444444444485,0.6666666666666643,0.8166666666666587,0.027630057427883166,0.8549985011514056,47.22222222222222,0.8499999999847,1.454166666666678,6.162239151308313e-05,0.996680358363371,0
153,102.87222222222222,0.9694444444444485,0.4611111111111086,0.6666666666666643,1.454166666666678,0.03487234561824782,1.0791075376175925,55.55555555555556,0.9999999999820001,0.6916666666666653,6.250067130508796e-11,0.997823353979688,0
154,103.33333333333333,0.4611111111111086,0.3916666666666657,0.6055555555555614,0.7614678899082453,0.030610640582331254,0.9472311769705484,52.77777777777778,0.9499999999829001,0.6467889908256803,3.2091588764160406e-07,0.996840125915167,0
155,103.725,0.3916666666666657,0.6805555555555571,0.6055555555555614,0.6467889908256803,0.030129886975515083,0.9323544936945972,50.0,0.8999999999838,1.1238532110091661,0.0005484789726324379,0.9976695693537212,0
156,104.40555555555555,0.6805555555555571,0.6638888888888914,0.6638888888888914,1.0251046025104587,0.03263748247411226,1.0099507997605761,58.333333333333336,1.0499999999811,1.0,3.413972535781795e-07,0.9977899078445845,0
157,105.06944444444444,0.6638888888888914,0.6944444444444429,0.6722222222222243,0.9876033057851247,0.03205649785480267,0.9919725172326351,55.55555555555556,0.9999999999820001,1.033057851239664,1.0336442812786117e-07,0.9977698305719205,0
158,105.76388888888889,0.6944444444444429,0.6749999999999972,0.6722222222222243,1.033057851239664,0.03163993571871555,0.9790822073619256,55.55555555555556,0.9999999999820001,1.0041322314049514,2.578466329339335e-08,0.9979378985552496,0
159,106.43888888888888,0.6749999999999972,0.7388888888888943,0.6694444444444443,1.008298755186718,0.03524047222009594,1.090499033767596,55.55555555555556,0.9999999999820001,1.1037344398340332,5.612404947896721e-06,0.9985578406454401,0
160,107.17777777777778,0.7388888888888943,0.7833333333333314,0.6694444444444443,1.1037344398340332,0.035640629702788584,1.102881709729082,58.333333333333336,1.0499999999811,1.1701244813277982,5.825370317324996e-05,0.9950646448414744,0
161,107.96111111111111,0.7833333333333314,0.8250000000000028,0.6777777777777771,1.155737704918031,0.03182784203509464,0.9848968756549734,55.55555555555556,0.9999999999820001,1.2172131147541037,4.464028080519711e-08,0.9987419566037025,0
162,108.78611111111111,0.8250000000000028,0.7999999999999972,0.6875,1.2000000000000042,0.029198946240058983,0.9035469917357881,52.77777777777778,0.9499999999829001,1.1636363636363596,2.154743571070039e-11,0.9977557575727578,0
163,109.58611111111111,0.7999999999999972,0.9249999999999972,0.6875,1.1636363636363596,0.030926950364841246,0.9570192271999571,55.55555555555556,0.9999999999820001,1.3454545454545412,9.662597477699819e-08,0.9990001428899461,0
164,110.5111111111111,0.9249999999999972,0.8250000000000028,0.7166666666666686,1.2906976744185972,0.030047252252585668,0.9297974029454332,52.77777777777778,0.9499999999829001,1.1511627906976754,9.130224381441801e-14,0.9992383188246404,0
165,111.33611111111111,0.8250000000000028,0.625,0.7611111111111128,1.0839416058394173,0.0365906632059386,1.1322800279684486,58.333333333333336,1.0499999999811,0.821167883211677,1.9374306248209905e-07,0.9983150083857758,0
166,111.96111111111111,0.625,0.8388888888888886,0.7611111111111128,0.821167883211677,0.03307016250213443,1.0233398698485658,58.333333333333336,1.0499999999811,1.1021897810218948,4.8070724005810916e-05,0.9961055421646177,0
167,112.8,0.8388888888888886,0.5638888888888971,0.7916666666666643,1.0596491228070204,0.028731043299928965,0.8890679660030446,52.77777777777778,0.9499999999829001,0.7122807017543985,1.2632850969192082e-14,0.9979388281338624,0
168,113.3638888888889,0.5638888888888971,0.6361111111111057,0.7916666666666643,0.7122807017543985,0.03160352250968666,0.9779554185659532,52.77777777777778,0.9499999999829001,0.8035087719298202,3.6394476410350762e-06,0.9967938738473511,0
169,114.0,0.6361111111111057,0.6138888888888943,0.7916666666666643,0.8035087719298202,0.033818416251767486,1.0464942131244348,52.77777777777778,0.9499999999829001,0.7754385964912371,1.1734520057871123e-06,0.9968973337383096,0
170,114.6138888888889,0.6138888888888943,0.7249999999999943,0.7916666666666643,0.7754385964912371,0.03068835814441794,0.949636108602366,55.55555555555556,0.9999999999820001,0.915789473684206,2.2794704079842631e-07,0.9978139497795203,0
171,115.33888888888889,0.7249999999999943,0.4833333333333343,0.7624999999999957,0.9508196721311454,0.03331092905348139,1.030790272044303,50.0,0.8999999999838,0.6338797814207698,8.000474172042971e-10,0.9969937022965961,0
172,115.82222222222222,0.4833333333333343,0.6388888888888857,0.68055555555555,0.7102040816326602,0.028695490208095767,0.8879677931095201,52.77777777777778,0.9499999999829001,0.9387755102040846,1.8560861008154461e-06,0.9959635303336403,0
173,116.46111111111111,0.6388888888888857,0.6749999999999972,0.6374999999999957,1.0021786492374745,0.03374094162557627,1.0440967990240968,61.111111111111114,1.0999999999802001,1.0588235294117674,2.4623939680168405e-05,0.9977482047304811,0
174,117.1361111111111,0.6749999999999972,0.6861111111111171,0.6374999999999957,1.0588235294117674,0.031093526398516855,0.9621738404139226,52.77777777777778,0.9499999999829001,1.0762527233115635,3.0682834051276586e-08,0.99896269047629,0
175,117.82222222222222,0.6861111111111171,0.4138888888888914,0.6374999999999957,1.0762527233115635,0.03630653989745032,1.1234879723046587,58.333333333333336,1.0499999999811,0.6492374727668928,3.238379576941952e-05,0.9984312961161981,0
176,118.23611111111111,0.4138888888888914,0.37777777777778,0.6374999999999957,0.6492374727668928,0.03194459944628253,0.9885098761644556,52.77777777777778,0.9499999999829001,0.5925925925926,1.637016248423606e-05,0.9981113361498252,0
177,118.6138888888889,0.37777777777778,0.8944444444444457,0.625,0.604444444444448,0.03272622014609694,1.0126967432585439,55.55555555555556,0.9999999999820001,1.4311111111111132,0.027134455740451813,0.9953012206569594,0
178,119.50833333333334,0.8944444444444457,0.6111111111111001,0.6374999999999957,1.4030501089324732,0.030182178482674737,0.9339726285957334,52.77777777777778,0.9499999999829001,0.9586056644880065,7.041944067795458e-13,0.997888063131144,0
179,120.11944444444444,0.6111111111111001,0.6388888888888999,0.62638888888889,0.9756097560975416,0.027726442604405106,0.8579810929058589,47.22222222222222,0.8499999999847,1.0199556541020114,4.794508678962472e-10,0.9957378824382823,0
180,120.75833333333334,0.6388888888888999,0.3999999999999915,0.6388888888888928,1.000000000000011,0.03472379364221014,1.0745106699785438,55.55555555555556,0.9999999999820001,0.626086956521722,2.5524796001263894e-06,0.9977662236853794,0
181,121.15833333333333,0.3999999999999915,0.88333333333334,0.6249999999999929,0.6399999999999937,0.028835260707399665,0.8922929222816881,50.0,0.8999999999838,1.41333333333336,0.0035560722462832928,0.9940877706547739,0
182,122.04166666666667,0.88333333333334,1.1083333333333343,0.6388888888888928,1.3826086956521757,0.031407494947092524,0.9718894423138296,55.55555555555556,0.9999999999820001,1.734782608695643,2.919364760600729e-06,0.9984972369004763,0
183,123.15,1.1083333333333343,0.8777777777777658,0.6569444444444485,1.6871035940803292,0.03267572037995542,1.0111340528996045,58.333333333333336,1.0499999999811,1.3361522198731235,3.2002430219724154e-12,0.9988304605764882,0
184,124.02777777777777,0.8777777777777658,0.75,0.6625000000000085,1.3249475890984974,0.03299961313093112,1.0211567543485909,58.333333333333336,1.0499999999811,1.1320754716980987,1.3054849645754985e-08,0.9973361595402007,0
185,124.77777777777777,0.75,0.7805555555555657,0.69444444444445,1.0799999999999914,0.035467728221457114,1.0975313586568443,55.55555555555556,0.9999999999820001,1.1240000000000057,1.1166371223225724e-06,0.998058074483115,0
186,125.55833333333334,0.7805555555555657,0.5777777777777686,0.7652777777777828,1.019963702359353,0.03243023773366536,1.003537713471628,52.77777777777778,0.9499999999829001,0.7549909255898197,2.340488358676396e-10,0.9968743816113368,0
187,126.1361111111111,0.5777777777777686,0.5166666666666657,0.7652777777777828,0.7549909255898197,0.030230144924161102,0.9354569264725456,50.0,0.8999999999838,0.6751361161524444,8.085881297859032e-09,0.9989394034900553,0
188,126.65277777777777,0.5166666666666657,0.48888888888889426,0.69444444444445,0.7439999999999927,0.03143914161516166,0.9728687328504552,52.77777777777778,0.9499999999829001,0.7040000000000022,2.1385144464147743e-06,0.9954983144222611,0
189,127.14166666666667,0.48888888888889426,0.5999999999999943,0.69444444444445,0.7040000000000022,0.03175530655055976,0.9826523008574188,55.55555555555556,0.9999999999820001,0.8639999999999849,1.196887569676619e-05,0.9988343174836054,0
190,127.74166666666666,0.5999999999999943,0.5888888888888886,0.6749999999999972,0.8888888888888842,0.03035587625299674,0.9393476204380876,52.77777777777778,0.9499999999829001,0.8724279835390979,3.603183085232331e-09,0.9986806598454168,0
191,128.33055555555555,0.5888888888888886,0.7277777777777885,0.6749999999999972,0.8724279835390979,0.030849807602594436,0.9546320824657178,52.77777777777778,0.9499999999829001,1.078189300411543,5.929101121182612e-07,0.9963879351953455,0
192,129.05833333333334,0.7277777777777885,0.8111111111111029,0.6638888888888914,1.096234309623443,0.029477550491906434,0.9121682629135885,52.77777777777778,0.9499999999829001,1.2217573221757152,1.593308063263521e-08,0.9967976741288869,0
193,129.86944444444444,0.8111111111111029,0.6944444444444571,0.6638888888888914,1.2217573221757152,0.03139673809572071,0.9715565768529446,58.333333333333336,1.0499999999811,1.0460251046025255,2.2959472101291567e-09,0.9982448400931021,0
194,130.5638888888889,0.6944444444444571,0.7833333333333314,0.6472222222222257,1.0729613733905716,0.030562523380128426,0.9457422138777138,55.55555555555556,0.9999999999820001,1.2103004291845398,1.9410924778640037e-07,0.9985030589762203,0
195,131.34722222222223,0.7833333333333314,0.5999999999999943,0.6472222222222257,1.2103004291845398,0.030584911776867285,0.9464350117738047,52.77777777777778,0.9499999999829001,0.9270386266094283,8.696146580611241e-11,0.9987953794016327,0
196,131.94722222222222,0.5999999999999943,0.6916666666666629,0.5999999999999943,1.0,0.031836675348958794,0.9851702181962897,50.0,0.8999999999838,1.1527777777777823,1.097531094274018e-05,0.995894306457103,0
197,132.63888888888889,0.6916666666666629,0.5638888888888971,0.6458333333333286,1.070967741935486,0.031062825826373076,0.9612238263491335,55.55555555555556,0.9999999999820001,0.8731182795699116,4.643189388531255e-09,0.9994429953902433,0
198,133.20277777777778,0.5638888888888971,0.6805555555555429,0.6458333333333286,0.8731182795699116,0.03471798278393137,1.0743308558347724,55.55555555555556,0.9999999999820001,1.0537634408602032,9.414050873601809e-05,0.9972363079151244,0
199,133.88333333333333,0.6805555555555429,0.6055555555555543,0.6861111111111029,0.9919028340080907,0.029383505439833625,0.9092580851561651,52.77777777777778,0.9499999999829001,0.8825910931174177,6.358343018764145e-11,0.9991431419745742,0
200,134.48888888888888,0.6055555555555543,0.6944444444444571,0.6861111111111029,0.8825910931174177,0.03339941931984101,1.0335285596972128,55.55555555555556,0.9999999999820001,1.0121457489878847,3.576902145141503e-06,0.9966809335871691,0
201,135.18333333333334,0.6944444444444571,0.7027777777777828,0.69305555555556,1.002004008016044,0.03890082154262325,1.20376673842655,61.111111111111114,1.0999999999802001,1.0140280561122252,0.002114014932885766,0.9945572130823002,0
202,135.88611111111112,0.7027777777777828,0.6111111111111143,0.69305555555556,1.0140280561122252,0.03263224216030887,1.0097886408342274,58.333333333333336,1.0499999999811,0.8817635270541071,3.823773653266471e-08,0.9986706254371571,0
203,136.49722222222223,0.6111111111111143,0.6611111111110972,0.6861111111111029,0.890688259109327,0.031330222327191355,0.9694982791985163,55.55555555555556,0.9999999999820001,0.9635627530364286,1.0298698072119805e-07,0.9965785444728805,0
204,137.15833333333333,0.6611111111110972,0.5083333333333258,0.6708333333333201,0.9855072463768104,0.030532042081823713,0.9447989851337382,52.77777777777778,0.9499999999829001,0.7577639751552832,4.0566477954584457e-10,0.9990314963982159,0
205,137.66666666666666,0.5083333333333258,0.40555555555556566,0.6361111111111057,0.79912663755458,0.030298198344314728,0.9375628059981834,50.0,0.8999999999838,0.6375545851528597,5.386720047795279e-08,0.9927112586310561,0
206,138.07222222222222,0.40555555555556566,1.0444444444444514,0.6361111111111057,0.6375545851528597,0.02848622018475595,0.8814920354402328,50.0,0.8999999999838,1.6419213973799374,0.0014033352490514517,0.9973878412713029,0
207,139.11666666666667,1.0444444444444514,0.6972222222222229,0.6361111111111057,1.6419213973799374,0.030050807009407595,0.9299074031422347,52.77777777777778,0.9499999999829001,1.0960698689956434,1.744381980916111e-15,0.9982716962613083,0
208,139.8138888888889,0.6972222222222229,0.8527777777777601,0.6708333333333201,1.0393374741201042,0.03092374562952646,0.9569200582460786,55.55555555555556,0.9999999999820001,1.271221532091096,4.266924236162595e-07,0.9989540606354002,0
209,140.66666666666666,0.8527777777777601,0.8055555555555713,0.6777777777777771,1.2581967213114504,0.03472558731133643,1.0745661741850965,55.55555555555556,0.9999999999820001,1.1885245901639587,2.6833302513296076e-07,0.9953315034581056,0
210,141.47222222222223,0.8055555555555713,0.8916666666666515,0.69583333333334,1.1576846307385347,0.03075947235850502,0.951836702886823,52.77777777777778,0.9499999999829001,1.281437125748469,1.0441798536930946e-08,0.9971444869906343,0
211,142.36388888888888,0.8916666666666515,0.6972222222222229,0.7000000000000028,1.273809523809497,0.03301957755240777,1.021774543525593,58.333333333333336,1.0499999999811,0.9960317460317429,9.654077537391004e-10,0.9962247052793449,0
212,143.0611111111111,0.6972222222222229,0.51111111111112,0.6972222222222229,1.0,0.031195240044778003,0.9653213190366838,52.77777777777778,0.9499999999829001,0.7330677290836773,3.119048908040156e-10,0.9991497704158503,0
213,143.57222222222222,0.51111111111112,0.6333333333333258,0.6972222222222229,0.7330677290836773,0.02823668312371235,0.8737702341471708,50.0,0.8999999999838,0.9083665338645301,7.098248744341618e-08,0.9970213619628965,0
214,144.20555555555555,0.6333333333333258,0.6333333333333542,0.6972222222222229,0.9083665338645301,0.030446458253478127,0.9421506357718424,52.77777777777778,0.9499999999829001,0.9083665338645709,1.4261707370621934e-09,0.9990578072210737,0
215,144.8388888888889,0.6333333333333542,0.7333333333333201,0.6972222222222229,0.9083665338645709,0.03012268058018631,0.9321314953450323,55.55555555555556,0.9999999999820001,1.051792828685239,1.5572899414451058e-08,0.9986532663406418,0
216,145.57222222222222,0.7333333333333201,0.7277777777777885,0.7152777777777715,1.0252427184465924,0.035425049996864175,1.0962107020438783,58.333333333333336,1.0499999999811,1.017475728155364,1.9776859971898375e-06,0.9957692087889682,0
217,146.3,0.7277777777777885,0.6777777777777771,0.7125000000000057,1.0214424951267125,0.030344161813046142,0.9389851228708738,52.77777777777778,0.9499999999829001,0.9512670565302059,2.3781121516464054e-10,0.9967164055237234,0
218,146.9777777777778,0.6777777777777771,0.9055555555555372,0.7125000000000057,0.9512670565302059,0.031784222553118274,0.9835470922964649,52.77777777777778,0.9499999999829001,1.270955165691972,1.3046084177403827e-06,0.999185066489529,0
219,147.88333333333333,0.9055555555555372,0.5944444444444628,0.7125000000000057,1.270955165691972,0.031589977644129325,0.9775362793810258,58.333333333333336,1.0499999999811,0.8343079922027481,2.2342797750818377e-11,0.997257357760865,0
220,148.4777777777778,0.5944444444444628,0.46944444444443434,0.6875,0.8646464646464913,0.029844747856264224,0.9235310042677135,52.77777777777778,0.9499999999829001,0.6828282828282681,1.061075893815655e-09,0.9972103963544501,0
221,148.94722222222222,0.46944444444443434,0.6277777777777658,0.6555555555555657,0.7161016949152278,0.03276378732059635,1.0138592409469154,58.333333333333336,1.0499999999811,0.9576271186440347,0.0001937984343385324,0.9984543826177128,0
222,149.575,0.6277777777777658,0.6638888888888914,0.63333333333334,0.9912280701754093,0.03701640158515264,1.1454542921573927,61.111111111111114,1.0999999999802001,1.0482456140350807,0.003685450181365013,0.9954486669282825,0
223,150.23888888888888,0.6638888888888914,0.9000000000000057,0.6486111111111228,1.0235546038543752,0.03328361595526865,1.0299450816897535,55.55555555555556,0.9999999999820001,1.387580299785851,0.00016499447519890964,0.9971915562373866,0
224,151.13888888888889,0.9000000000000057,0.6916666666666629,0.6708333333333343,1.3416149068323047,0.028329190661699862,0.8766328342894605,50.0,0.8999999999838,1.0310559006211109,3.5194496361706405e-15,0.9977107083093891,0
225,151.83055555555555,0.6916666666666629,0.63055555555556,0.68472222222222,1.0101419878296123,0.03048582975642429,0.9433689675141818,52.77777777777778,0.9499999999829001,0.9208924949290155,8.127036821292677e-10,0.9972381319444774,0
226,152.4611111111111,0.63055555555556,0.6277777777777942,0.6708333333333343,0.9399585921325104,0.03738958176359352,1.1570021687428527,61.111111111111114,1.0999999999802001,0.9358178053830459,0.0014610076323151588,0.9953958398458417,0
227,153.0888888888889,0.6277777777777942,0.4166666666666572,0.6472222222222257,0.9699570815450845,0.02852441401044647,0.882673924540676,52.77777777777778,0.9499999999829001,0.6437768240343167,4.908129458414123e-11,0.9979906888720371,0
228,153.50555555555556,0.4166666666666572,0.7166666666666686,0.6291666666666771,0.662251655629113,0.034365289167713226,1.0634169258142045,58.333333333333336,1.0499999999811,1.1390728476821033,0.03336578607559204,0.9962060913705042,0
229,154.22222222222223,0.7166666666666686,0.44722222222222285,0.6291666666666771,1.1390728476821033,0.036817232525421184,1.139291103825606,61.111111111111114,1.0999999999802001,0.7108167770419318,0.0013485599774867296,0.9952098969979704,0
230,154.66944444444445,0.44722222222222285,1.0138888888888857,0.6291666666666771,0.7108167770419318,0.032230991707963216,0.9973721434658345,52.77777777777778,0.9499999999829001,1.61147902869754,0.012346306815743446,0.9968656372288738,0
231,155.68333333333334,1.0138888888888857,0.5555555555555429,0.6472222222222257,1.5665236051502014,0.029467550228800845,0.9118588097034852,52.77777777777778,0.9499999999829001,0.8583690987124222,7.653356136399982e-16,0.9967203367076432,0
232,156.23888888888888,0.5555555555555429,0.5611111111111313,0.6472222222222257,0.8583690987124222,0.03328317879171376,1.0299315538791376,50.0,0.8999999999838,0.8669527896995974,1.6832946130307391e-06,0.9961829774893705,0
233,156.8,0.5611111111111313,0.674999999999983,0.6291666666666771,0.8918322295805913,0.0298591880678574,0.9239778494941738,55.55555555555556,0.9999999999820001,1.0728476821191604,3.3354223205606104e-07,0.9983839573082047,0
234,157.475,0.674999999999983,0.7277777777777885,0.6291666666666771,1.0728476821191604,0.035699942169352,1.1047171047565327,58.333333333333336,1.0499999999811,1.1567328918322275,0.0004270022618584335,0.9956887907694691,0
235,158.20277777777778,0.7277777777777885,0.5833333333333144,0.6291666666666771,1.1567328918322275,0.03600162300969614,1.1140524695849836,55.55555555555556,0.9999999999820001,0.9271523178807493,1.660709676798433e-05,0.9979821430124183,0
236,158.7861111111111,0.5833333333333144,0.4416666666666913,0.6055555555555543,0.9633027522935487,0.03347422585434949,1.0358434110162165,52.77777777777778,0.9499999999829001,0.7293577981651798,1.1415214657972683e-06,0.9979280241451298,0
237,159.2277777777778,0.4416666666666913,1.1416666666666515,0.5722222222222229,0.7718446601942169,0.03388458893547665,1.048541894188297,58.333333333333336,1.0499999999811,1.9951456310679325,0.015808772295713425,0.9961370731964239,0
238,160.36944444444444,1.1416666666666515,0.8388888888889028,0.6291666666666487,1.814569536423869,0.0336635938950732,1.041703311648249,58.333333333333336,1.0499999999811,1.3333333333333937,3.083238525602994e-11,0.9957243354340851,0
239,161.20833333333334,0.8388888888889028,0.63055555555556,0.6291666666666487,1.3333333333333937,0.03062041055559415,0.9475335039750387,52.77777777777778,0.9499999999829001,1.0022075055187996,2.0228780456266193e-11,0.9992369695927981,0
240,161.8388888888889,0.63055555555556,0.5166666666666515,0.6527777777777715,0.9659574468085268,0.03649913744813419,1.1294478085297532,58.333333333333336,1.0499999999811,0.7914893617021121,0.0003560750337783247,0.995982995022657,0
241,162.35555555555555,0.5166666666666515,0.36111111111111427,0.6069444444444372,0.8512585812356831,0.03154787702730359,0.9762334965555647,50.0,0.8999999999838,0.5949656750572205,1.158779809884436e-07,0.9941869659597614,0
242,162.71666666666667,0.36111111111111427,0.6444444444444457,0.6069444444444372,0.5949656750572205,0.0342329993692703,1.0593232832410198,55.55555555555556,0.9999999999820001,1.0617848970251864,0.008667008951306343,0.9964802773415316,0
243,163.36111111111111,0.6444444444444457,0.76111111111112,0.6375000000000028,1.0108932461873612,0.03209785317826209,0.9932522373224223,50.0,0.8999999999838,1.1938997821350847,1.7718164144753246e-06,0.9977126971373731,0
244,164.12222222222223,0.76111111111112,0.6916666666666629,0.6375000000000028,1.1938997821350847,0.030340017672010274,0.9388568844702306,55.55555555555556,0.9999999999820001,1.0849673202614272,1.8844961147124195e-09,0.9991827861399971,0
245,164.8138888888889,0.6916666666666629,0.7222222222222001,0.6375000000000028,1.0849673202614272,0.03177043846665228,0.9831205505384925,55.55555555555556,0.9999999999820001,1.1328976034857992,2.636053864080168e-07,0.999215051311205,0
246,165.5361111111111,0.7222222222222001,0.7138888888889028,0.6680555555555543,1.08108108108105,0.035576576325579874,1.1008996095597257,55.55555555555556,0.9999999999820001,1.0686070686070914,5.062092441221466e-06,0.9975279241927697,0
247,166.25,0.7138888888889028,0.6388888888888857,0.7027777777777828,1.0158102766798545,0.032799799588873454,1.0149736228290505,58.333333333333336,1.0499999999811,0.9090909090908981,4.440928691451518e-08,0.9978800776795244,0
248,166.88888888888889,0.6388888888888857,0.7166666666666686,0.6680555555555543,0.9563409563409534,0.036539321081648424,1.1306912712520136,55.55555555555556,0.9999999999820001,1.0727650727650777,0.0001831095723900944,0.9956451816784546,0
249,167.60555555555555,0.7166666666666686,0.6944444444444571,0.6680555555555543,1.0727650727650777,0.034063183534944086,1.0540684159936515,52.77777777777778,0.9499999999829001,1.0395010395010604,2.8110707717132755e-07,0.9975462601970084,0
250,168.3,0.6944444444444571,0.8583333333333201,0.69305555555556,1.002004008016044,0.031132268725293146,0.9633727026099679,52.77777777777778,0.9499999999829001,1.2384769539077887,1.2779555618180893e-06,0.9948975232141799,0
251,169.15833333333333,0.8583333333333201,0.6888888888888971,0.7041666666666799,1.2189349112425618,0.027806208335674473,0.8604494041229659,50.0,0.8999999999838,0.97830374753451,5.984821403108402e-15,0.9955104373733556,0
252,169.84722222222223,0.6888888888888971,0.6972222222222229,0.7041666666666799,0.97830374753451,0.03393627958234714,1.0501414357641035,55.55555555555556,0.9999999999820001,0.9901380670611263,1.9380755134079664e-07,0.9976934716328301,0
253,170.54444444444445,0.6972222222222229,0.6472222222222115,0.7055555555555628,0.9881889763779435,0.03113183740071037,0.9633593554834645,52.77777777777778,0.9499999999829001,0.9173228346456447,4.422370802892317e-10,0.9997060820683501,0
254,171.19166666666666,0.6472222222222115,0.6388888888888857,0.69583333333334,0.930139720558858,0.03235696574574917,1.0012703479401506,55.55555555555556,0.9999999999820001,0.9181636726546774,2.5799815617233435e-08,0.999222495772833,0
255,171.83055555555555,0.6388888888888857,0.5999999999999943,0.69583333333334,0.9181636726546774,0.03076601737548989,0.9520392352096992,52.77777777777778,0.9499999999829001,0.86227544910178,2.5165067807364494e-09,0.997756643224365,0
256,172.43055555555554,0.5999999999999943,0.6666666666666856,0.6916666666666771,0.867469879518051,0.03307290789987312,1.0234248248276776,58.333333333333336,1.0499999999811,0.9638554216867599,1.2353727470326703e-05,0.9948874985903908,0
257,173.09722222222223,0.6666666666666856,0.4194444444444514,0.6777777777777914,0.9836065573770574,0.03431296674016773,1.0617978340969774,55.55555555555556,0.9999999999820001,0.6188524590163913,3.267411443630408e-07,0.9983247216050569,0
258,173.51666666666668,0.4194444444444514,0.6583333333333314,0.6777777777777914,0.6188524590163913,0.02937944166549632,0.9091323336633758,50.0,0.8999999999838,0.9713114754098138,0.00019439139578025788,0.9945072686299612,0
259,174.175,0.6583333333333314,0.6083333333333201,0.6625000000000085,0.9937106918238837,0.03025907910291377,0.936352280364956,52.77777777777778,0.9499999999829001,0.91823899371066,1.6884814657558422e-09,0.9979102767939027,0
260,174.78333333333333,0.6083333333333201,0.6805555555555713,0.6527777777777715,0.93191489361701,0.03396682142992116,1.0510865381753576,47.22222222222222,0.8499999999847,1.042553191489396,5.138494543643901e-06,0.994365317631388,0
261,175.4638888888889,0.6805555555555713,0.5,0.6527777777777715,1.042553191489396,0.0362862430312915,1.1228598957909144,55.55555555555556,0.9999999999820001,0.7659574468085181,1.5715306290076114e-05,0.9980573438906954,0
262,175.9638888888889,0.5,0.7472222222222058,0.6430555555555486,0.7775377969762503,0.03212264731403927,0.9940194796266473,55.55555555555556,0.9999999999820001,1.1619870410367041,0.0004916309262625873,0.99651083167326,0
263,176.7111111111111,0.7472222222222058,0.5944444444444343,0.6430555555555486,1.1619870410367041,0.03220975888155562,0.996715104123767,55.55555555555556,0.9999999999820001,0.9244060475161929,4.1875157563708854e-08,0.9960467565141942,0
264,177.30555555555554,0.5944444444444343,0.7083333333333428,0.6236111111111029,0.9532293986636935,0.031725887807939286,0.9817419523750852,58.333333333333336,1.0499999999811,1.1358574610245291,3.609226405387744e-05,0.9945315631635531,0
265,178.01388888888889,0.7083333333333428,0.6222222222222342,0.6333333333333258,1.1184210526316072,0.03149408972533728,0.9745690750217981,55.55555555555556,0.9999999999820001,0.9824561403509079,2.450246050500482e-08,0.9992075152178956,0
266,178.63611111111112,0.6222222222222342,0.5916666666666686,0.6402777777777828,0.9718004338394904,0.03113384788442378,0.963421568910492,52.77777777777778,0.9499999999829001,0.9240780911062864,2.4426167755109418e-08,0.9985375144810407,0
267,179.2277777777778,0.5916666666666686,0.46388888888887436,0.6152777777777771,0.9616252821670469,0.03436148671499318,1.0632992607899887,55.55555555555556,0.9999999999820001,0.7539503386004286,4.6014920371817425e-05,0.9959842729274215,0
268,179.69166666666666,0.46388888888887436,0.6638888888888914,0.6152777777777771,0.7539503386004286,0.03440010641956781,1.0644943285024755,52.77777777777778,0.9499999999829001,1.0790067720090346,0.005962359718978405,0.9950101475827977,0
269,180.35555555555555,0.6638888888888914,0.5361111111111256,0.6152777777777771,1.0790067720090346,0.03037818236042142,0.9400378719319328,52.77777777777778,0.9499999999829001,0.8713318284424624,2.1618098422493404e-09,0.9990865506567848,0
270,180.89166666666668,0.5361111111111256,0.5972222222222001,0.6083333333333343,0.8812785388128079,0.031899571878232044,0.9871165202767909,52.77777777777778,0.9499999999829001,0.9817351598173137,2.240288949906244e-06,0.9982292839341826,0
271,181.48888888888888,0.5972222222222001,0.830555555555577,0.5958333333333172,1.0023310023309924,0.03435187855892814,1.063001941138885,52.77777777777778,0.9499999999829001,1.3939393939394678,0.002115220297127962,0.9967571499378424,0
272,182.31944444444446,0.830555555555577,0.875,0.6097222222222172,1.362186788154944,0.029803160777183778,0.9222441126145257,52.77777777777778,0.9499999999829001,1.4350797266514925,1.1114646980558973e-07,0.9964049262699838,0
273,183.19444444444446,0.875,0.6888888888888687,0.6097222222222172,1.4350797266514925,0.029924491664946738,0.9259986371011817,52.77777777777778,0.9499999999829001,1.129840546697015,1.0578820805462463e-11,0.9992206698907271,0
274,183.88333333333333,0.6888888888888687,1.2138888888889028,0.6430555555555628,1.071274298056112,0.03277048370680536,1.0140664573157838,58.333333333333336,1.0499999999811,1.8876889848812097,0.0004575359052978456,0.9989803573797678,0
275,185.09722222222223,1.2138888888889028,0.48333333333332007,0.6430555555555628,1.8876889848812097,0.030953283620169362,0.9578340967996583,52.77777777777778,0.9499999999829001,0.7516198704103381,2.494763544268919e-19,0.999490100777119,0
276,185.58055555555555,0.48333333333332007,0.6416666666666799,0.6305555555555458,0.7665198237885371,0.03146810438204125,0.9737649713883547,55.55555555555556,0.9999999999820001,1.0176211453744861,6.554796709679067e-05,0.9961872932940317,0
277,186.22222222222223,0.6416666666666799,0.5916666666666686,0.6527777777777857,0.9829787234042637,0.033784678824093695,1.0454502250629158,55.55555555555556,0.9999999999820001,0.9063829787233962,1.510750280431239e-06,0.9978637361082565,0
278,186.8138888888889,0.5916666666666686,0.7527777777777658,0.6527777777777857,0.9063829787233962,0.032149519406159184,0.9948510232651393,50.0,0.8999999999838,1.1531914893616697,4.054713372170227e-06,0.9970768361623372,0
279,187.56666666666666,0.7527777777777658,0.6916666666666629,0.6652777777777743,1.1315240083507185,0.03198954040375361,0.9899005519304533,55.55555555555556,0.9999999999820001,1.0396659707724423,9.734404393668683e-09,0.9985158591096199,0
280,188.25833333333333,0.6916666666666629,0.6555555555555657,0.6902777777777658,1.0020120724346195,0.032107278053100576,0.9935438854263569,55.55555555555556,0.9999999999820001,0.94969818913484,2.3178737151852147e-08,0.9976341250461332,0
281,188.9138888888889,0.6555555555555657,0.8055555555555429,0.6902777777777658,0.94969818913484,0.03205120087677751,0.991808604859888,55.55555555555556,0.9999999999820001,1.1670020120724367,1.2611579904842074e-06,0.9972111287607888,0
282,189.71944444444443,0.8055555555555429,0.7583333333333542,0.6902777777777658,1.1670020120724367,0.0350993478143385,1.0861320086279114,58.333333333333336,1.0499999999811,1.098591549295824,3.003748645369342e-07,0.9984054961649211,0
283,190.4777777777778,0.7583333333333542,1.044444444444423,0.6902777777777658,1.098591549295824,0.03471356063370038,1.0741940145766884,61.111111111111114,1.0999999999802001,1.513078470824945,0.0014510805485770106,0.9951322964428847,0
284,191.5222222222222,1.044444444444423,0.6388888888888857,0.7222222222222143,1.4461538461538321,0.03206534085559228,0.9922461595310825,55.55555555555556,0.9999999999820001,0.8846153846153899,8.817906901349964e-15,0.9981194773083009,0
285,192.1611111111111,0.6388888888888857,0.8333333333333428,0.6736111111111143,0.9484536082474135,0.033035864481154274,1.0222785345036418,50.0,0.8999999999838,1.237113402061864,1.4308696336229332e-05,0.9969729558853597,0
286,192.99444444444444,0.8333333333333428,0.48888888888888005,0.7222222222222143,1.1538461538461795,0.030066579413442988,0.9303954724068395,52.77777777777778,0.9499999999829001,0.6769230769230721,8.964777162799586e-13,0.9953890088859543,0
287,193.48333333333332,0.48888888888888005,0.6527777777777999,0.7222222222222143,0.6769230769230721,0.036356782735964085,1.125042712164863,58.333333333333336,1.0499999999811,0.9038461538461944,0.0415814109146595,0.996084203877618,0
288,194.13611111111112,0.6527777777777999,0.7861111111110972,0.7222222222222143,0.9038461538461944,0.03432562784533652,1.0621896257525136,52.77777777777778,0.9499999999829001,1.088461538461531,2.5543715764797525e-06,0.9968323023751431,0
289,194.92222222222222,0.7861111111110972,0.61388888888888,0.7250000000000085,1.0842911877394317,0.037040197152136994,1.1461906342427748,58.333333333333336,1.0499999999811,0.8467432950191349,2.1270632259984268e-06,0.9979193713090444,0
290,195.5361111111111,0.61388888888888,0.4000000000000057,0.7069444444444599,0.8683693516699096,0.03177182201297878,0.9831633636972607,55.55555555555556,0.9999999999820001,0.5658153241650251,1.3685801825147337e-08,0.9990171776606945,0
291,195.9361111111111,0.4000000000000057,0.3722222222222342,0.705555555555577,0.5669291338582585,0.035024186630884774,1.0838061828721945,55.55555555555556,0.9999999999820001,0.5275590551181112,0.013628903776407242,0.9927615395391769,0
292,196.30833333333334,0.3722222222222342,1.10277777777776,0.6458333333333428,0.5763440860215155,0.03177420510216258,0.9832371072168162,55.55555555555556,0.9999999999820001,1.7075268817203777,0.04503888636827469,0.9912252755744893,0
293,197.4111111111111,1.10277777777776,0.586111111111137,0.6458333333333428,1.7075268817203777,0.035079447013279724,1.0855161881533655,58.333333333333336,1.0499999999811,0.9075268817204569,1.7918699510288683e-11,0.9952247319203416,0
294,197.99722222222223,0.586111111111137,0.5583333333333087,0.6263888888888829,0.9356984478936201,0.03569650709981593,1.1046108082237673,52.77777777777778,0.9499999999829001,0.8913525498891045,0.0004987295833416283,0.9942242922148541,0
295,198.55555555555554,0.5583333333333087,0.9361111111111313,0.6000000000000085,0.9305555555555013,0.029234081568837313,0.9046342371576025,50.0,0.8999999999838,1.5601851851851967,4.362531763035804e-05,0.9987502308550139,0
296,199.49166666666667,0.9361111111111313,0.6527777777777715,0.6000000000000085,1.5601851851851967,0.030007216238031466,0.9285585082190916,52.77777777777778,0.9499999999829001,1.087962962962937,5.430861381265639e-13,0.9992007344058474,0
297,200.14444444444445,0.6527777777777715,0.42222222222221717,0.6333333333333258,1.0307017543859673,0.03164658782495276,0.9792880535089038,55.55555555555556,0.9999999999820001,0.6666666666666666,2.984610603107285e-08,0.9970992941011219,0
298,200.56666666666666,0.42222222222221717,0.7805555555555657,0.6000000000000085,0.7037037037036853,0.03239405530807201,1.0024180661552557,55.55555555555556,0.9999999999820001,1.3009259259259243,0.007029220461845398,0.997190800074597,0
299,201.34722222222223,0.7805555555555657,0.6805555555555429,0.6000000000000085,1.3009259259259243,0.031426176587922364,0.9724675364763282,55.55555555555556,0.9999999999820001,1.134259259259222,8.252712291323405e-08,0.9967851851281095,0
300,202.02777777777777,0.6805555555555429,0.6611111111111256,0.6194444444444542,1.0986547085201417,0.03116875181583927,0.9645016538550285,52.77777777777778,0.9499999999829001,1.067264573991038,6.363460158809175e-08,0.9976683048986088,0
301,202.6888888888889,0.6611111111111256,0.794444444444423,0.6569444444444485,1.0063424947146036,0.030711641082464755,0.9503565876380825,55.55555555555556,0.9999999999820001,1.209302325581355,4.4094548456996563e-07,0.9980500669304679,0
302,203.48333333333332,0.794444444444423,0.7583333333333542,0.6708333333333343,1.1842650103519332,0.02897579818715546,0.8966417852856984,52.77777777777778,0.9499999999829001,1.130434782608725,4.21542072082115e-11,0.9984483126224244,0
303,204.24166666666667,0.7583333333333542,0.544444444444423,0.6708333333333343,1.130434782608725,0.03176915632434898,0.9830808752772142,58.333333333333336,1.0499999999811,0.8115942028985176,4.167768352658641e-09,0.9989667324094608,0
304,204.7861111111111,0.544444444444423,0.9083333333333599,0.6708333333333343,0.8115942028985176,0.0280467015216823,0.8678913471630955,47.22222222222222,0.8499999999847,1.354037267080783,2.5102886866079643e-05,0.9970791705460864,0
305,205.69444444444446,0.9083333333333599,1.1944444444444287,0.7194444444444485,1.2625482625482922,0.03515380351210886,1.0878171133402101,58.333333333333336,1.0499999999811,1.6602316602316287,6.990802648942918e-05,0.9976851214797173,0
306,206.88888888888889,1.1944444444444287,0.61944444444444,0.7194444444444485,1.6602316602316287,0.032727506093734274,1.012736536274007,58.333333333333336,1.0499999999811,0.86100386100385,2.0563556503346578e-16,0.9982929158073992,0
307,207.50833333333333,0.61944444444444,0.7583333333333542,0.7194444444444485,0.86100386100385,0.029955521798454697,0.9269588492798599,52.77777777777778,0.9499999999829001,1.054054054054077,3.520757729802426e-08,0.9978824721427253,0
308,208.26666666666668,0.7583333333333542,0.6305555555555316,0.7583333333333542,1.0,0.030854733089034858,0.9547844992145789,55.55555555555556,0.9999999999820001,0.831501831501777,9.053365696010118e-11,0.9991156326715136,0
309,208.8972222222222,0.6305555555555316,0.625,0.7194444444444485,0.8764478764478381,0.03388897482315591,1.0486776133196007,61.111111111111114,1.0999999999802001,0.8687258687258638,1.9661956685013138e-06,0.9980962114965739,0
310,209.5222222222222,0.625,0.7861111111111256,0.7097222222222399,0.8806262230919546,0.027755835284044062,0.8588906348820825,50.0,0.8999999999838,1.1076320939334567,3.211400922964458e-09,0.9972243817985853,0
311,210.30833333333334,0.7861111111111256,0.6416666666666515,0.7583333333333542,1.0366300366300274,0.034349281977301825,1.0629215912009808,55.55555555555556,0.9999999999820001,0.846153846153803,1.3298198098254943e-08,0.9975125286301632,0
312,210.95,0.6416666666666515,0.375,0.7000000000000028,0.9166666666666413,0.03148509316655247,0.9742906809469176,55.55555555555556,0.9999999999820001,0.5357142857142836,3.5728524583333865e-09,0.9987166882693437,0
313,211.325,0.375,0.3944444444444457,0.6361111111110915,0.58951965065504,0.04011447014318081,1.2413224958515794,66.66666666666667,1.1999999999784001,0.6200873362445626,0.6204563975334167,0.9867898240431064,1
314,211.71944444444443,0.3944444444444457,0.6083333333333485,0.6361111111110915,0.6200873362445626,0.030342955390859065,0.9389477907312501,52.77777777777778,0.9499999999829001,0.9563318777293109,0.00025323120644316077,0.9972813773408438,0
315,212.32777777777778,0.6083333333333485,0.8388888888888744,0.6277777777777658,0.9690265486726091,0.030753820833951034,0.9516618192465884,55.55555555555556,0.9999999999820001,1.3362831858407103,1.1012762115569785e-05,0.999123896989031,0
316,213.16666666666666,0.8388888888888744,0.6388888888888857,0.6277777777777658,1.3362831858407103,0.0319582227091063,0.9889314413141308,61.111111111111114,1.0999999999802001,1.0176991150442622,3.129539649648905e-08,0.9975872270882171,0
317,213.80555555555554,0.6388888888888857,0.9944444444444684,0.6347222222222086,1.006564551422336,0.030629240259239448,0.9478067347999127,52.77777777777778,0.9499999999829001,1.566739606126986,5.243535997578874e-05,0.9988683616147316,0
318,214.8,0.9944444444444684,0.5249999999999773,0.6347222222222086,1.566739606126986,0.029807491091145243,0.9223781120445388,55.55555555555556,0.9999999999820001,0.8271334792122357,5.2395581092139903e-14,0.9950113682120956,0
319,215.325,0.5249999999999773,0.6027777777777885,0.6319444444444429,0.8307692307691968,0.03270432150231823,1.0120191005262797,58.333333333333336,1.0499999999811,0.9538461538461732,0.0004286486655473709,0.9925153433794756,0
320,215.92777777777778,0.6027777777777885,0.5944444444444343,0.6236111111111171,0.9665924276169344,0.029066263915128763,0.8994412026240312,52.77777777777778,0.9499999999829001,0.9532293986636717,6.928777551706844e-09,0.9969851361661657,0
321,216.5222222222222,0.5944444444444343,0.4194444444444514,0.6055555555555685,0.9816513761467514,0.03059870326361703,0.9468617825299082,50.0,0.8999999999838,0.6926605504587122,4.5686672223155256e-09,0.9961905134794744,0
322,216.94166666666666,0.4194444444444514,0.6694444444444514,0.5986111111111114,0.700696055684466,0.03405667521515443,1.0538670192473836,55.55555555555556,0.9999999999820001,1.1183294663573196,0.045228809118270874,0.9926559169809488,0
323,217.61111111111111,0.6694444444444514,0.42777777777777715,0.6055555555555685,1.1055045871559512,0.03218550542977698,0.9959645930192349,58.333333333333336,1.0499999999811,0.7064220183486077,2.2590413095713302e-07,0.9986913177925394,0
324,218.0388888888889,0.42777777777777715,0.61944444444444,0.6055555555555685,0.7064220183486077,0.031449979525430105,0.9732041066389215,52.77777777777778,0.9499999999829001,1.0229357798164846,0.0001755676930770278,0.997796852203907,0
325,218.65833333333333,0.61944444444444,0.6583333333333314,0.6111111111111143,1.0136363636363512,0.03135489737398529,0.9702618363528841,55.55555555555556,0.9999999999820001,1.0772727272727185,8.964890412244131e-07,0.9988612968727981,0
326,219.31666666666666,0.6583333333333314,0.6500000000000057,0.6111111111111143,1.0772727272727185,0.02790695567247218,0.863566980775923,52.77777777777778,0.9499999999829001,1.0636363636363675,6.748923642163618e-09,0.9941588434343918,0
327,219.96666666666667,0.6500000000000057,0.6750000000000114,0.6111111111111143,1.0636363636363675,0.03320594745507698,1.0275416682540819,55.55555555555556,0.9999999999820001,1.1045454545454674,1.3813980331178755e-05,0.9978266991354412,0
328,220.64166666666668,0.6750000000000114,0.6416666666666515,0.6111111111111143,1.1045454545454674,0.031777058436165496,0.9833254022303951,58.333333333333336,1.0499999999811,1.0499999999999698,8.934939614846371e-07,0.9989227003384902,0
329,221.28333333333333,0.6416666666666515,0.6027777777777885,0.6305555555555458,1.017621145374441,0.03163496604900866,0.9789284233836729,52.77777777777778,0.9499999999829001,0.9559471365639085,6.910764938083958e-08,0.9981312926644315,0
330,221.88611111111112,0.6027777777777885,1.0277777777777715,0.6305555555555458,0.9559471365639085,0.0359404680612412,1.1121600598640324,58.333333333333336,1.0499999999811,1.6299559471365792,0.014079801738262177,0.9980256460349151,0
331,222.9138888888889,1.0277777777777715,0.8499999999999943,0.6458333333333286,1.5913978494623675,0.03182722832979858,0.98487788484724,61.111111111111114,1.0999999999802001,1.3161290322580654,6.996569434924993e-10,0.995946096537782,0
332,223.76388888888889,0.8499999999999943,0.7944444444444514,0.6541666666666686,1.2993630573248283,0.035151330203308455,1.087740578019111,55.55555555555556,0.9999999999820001,1.2144373673036164,5.476795763570408e-07,0.9980203756879523,0
333,224.55833333333334,0.7944444444444514,0.7666666666666515,0.6541666666666686,1.2144373673036164,0.03426013978383668,1.0601631299852927,55.55555555555556,0.9999999999820001,1.1719745222929672,5.469389066092845e-07,0.9982812092194369,0
334,225.325,0.7666666666666515,0.76111111111112,0.6666666666666714,1.149999999999969,0.03230127867583306,0.9995471390240611,58.333333333333336,1.0499999999811,1.1416666666666717,1.1050344994600891e-07,0.998151257616787,0
335,226.0861111111111,0.76111111111112,0.8000000000000114,0.7180555555555657,1.0599613152804617,0.03144492054241371,0.9730475589043519,58.333333333333336,1.0499999999811,1.1141199226305611,4.59854021528372e-09,0.9987753611863973,0
336,226.88611111111112,0.8000000000000114,0.6944444444444287,0.7638888888888857,1.0472727272727465,0.03304005949086154,1.022408347010235,55.55555555555556,0.9999999999820001,0.9090909090908922,9.735773298658046e-10,0.9982079016623352,0
337,227.58055555555555,0.6944444444444287,0.6611111111111256,0.7638888888888857,0.9090909090908922,0.036510212165602504,1.1297905102002366,61.111111111111114,1.0999999999802001,0.865454545454568,1.5538709703832865e-05,0.9972658686332833,0
338,228.24166666666667,0.6611111111111256,0.6944444444444287,0.7638888888888857,0.865454545454568,0.028552795636528572,0.8835521799631908,50.0,0.8999999999838,0.9090909090908922,9.636375031263356e-11,0.9976325846185545,0
339,228.9361111111111,0.6944444444444287,0.8888888888888857,0.7638888888888857,0.9090909090908922,0.034930837788251935,1.0809175489725507,52.77777777777778,0.9499999999829001,1.1636363636363642,1.203085503220791e-05,0.9966860334454272,0
340,229.825,0.8888888888888857,0.830555555555577,0.7805555555555515,1.1387900355871905,0.03188078934359939,0.9865353040053206,55.55555555555556,0.9999999999820001,1.0640569395018125,3.861894311285585e-12,0.9986220515963169,0
341,230.65555555555557,0.830555555555577,0.7583333333333258,0.7805555555555515,1.0640569395018125,0.03051718539723776,0.9443392523559028,55.55555555555556,0.9999999999820001,0.9715302491103157,1.1799433825843142e-11,0.9957851138435134,0
342,231.4138888888889,0.7583333333333258,0.8555555555555543,0.7638888888888857,0.9927272727272669,0.030996717039292816,0.9591781225349416,52.77777777777778,0.9499999999829001,1.120000000000003,1.7037348198911673e-09,0.9981900024330511,0
343,232.26944444444445,0.8555555555555543,0.6416666666666515,0.7638888888888857,1.120000000000003,0.030789432705102378,0.9527638110371255,55.55555555555556,0.9999999999820001,0.8399999999999836,2.2503897616904522e-12,0.9982604011883955,0
344,232.9111111111111,0.6416666666666515,0.8527777777777885,0.7597222222222229,0.844606946983526,0.03466285006469452,1.072624801027071,55.55555555555556,0.9999999999820001,1.1224862888482765,3.627310798037797e-05,0.9979968782690052,0
345,233.76388888888889,0.8527777777777885,0.8277777777777828,0.7791666666666686,1.0944741532976938,0.028024386881713385,0.8672008316338768,50.0,0.8999999999838,1.0623885918003604,4.004247884740455e-15,0.9986653638284613,0
346,234.59166666666667,0.8277777777777828,0.75,0.7930555555555543,1.043782837127854,0.031126862586931443,0.9632054123244396,55.55555555555556,0.9999999999820001,0.9457092819614726,1.0624094486100244e-11,0.9985600715514558,0
347,235.34166666666667,0.75,0.5694444444444287,0.7930555555555543,0.9457092819614726,0.026908587317567446,0.8326729643856741,50.0,0.8999999999838,0.7180385288966538,3.154922442814411e-15,0.9979939993673101,0
348,235.9111111111111,0.5694444444444287,0.5305555555555657,0.7930555555555543,0.7180385288966538,0.030216671625196766,0.935040001880545,55.55555555555556,0.9999999999820001,0.6690017513134989,3.1982972359401174e-07,0.9975415069388281,0
349,236.44166666666666,0.5305555555555657,0.575000000000017,0.7930555555555543,0.6690017513134989,0.031096621715809066,0.9622696234810529,55.55555555555556,0.9999999999820001,0.7250437828371505,7.755531441944186e-06,0.9982284365036098,0
350,237.01666666666668,0.575000000000017,0.7027777777777544,0.7541666666666629,0.7624309392265458,0.033724438008004634,1.043586102717216,61.111111111111114,1.0999999999802001,0.9318600368323863,0.00016670950572006404,0.9970731659906982,0
351,237.71944444444443,0.7027777777777544,0.7305555555555543,0.7263888888888772,0.9674952198852607,0.03195357883322805,0.9887877388652379,55.55555555555556,0.9999999999820001,1.0057361376673184,6.432220089891416e-09,0.9987440108601855,0
352,238.45,0.7305555555555543,0.45000000000001705,0.7166666666666544,1.019379844961256,0.031775197504415105,0.9832678166151106,55.55555555555556,0.9999999999820001,0.6279069767442206,1.4914417478806286e-09,0.9974863822279831,0
353,238.9,0.45000000000001705,0.5972222222222285,0.672222222222203,0.6694214876033503,0.03193138609035793,0.988100995381627,52.77777777777778,0.9499999999829001,0.8884297520661506,0.00011323762009851635,0.9960430131963267,0
354,239.49722222222223,0.5972222222222285,0.4777777777777601,0.6499999999999915,0.9188034188034405,0.03502799718771648,1.0839240986741492,55.55555555555556,0.9999999999820001,0.7350427350427174,8.793457709543873e-06,0.9983560063564343,0
355,239.975,0.4777777777777601,0.6222222222222342,0.5861111111111228,0.8151658767772048,0.032119249153451684,0.9939143252230909,55.55555555555556,0.9999999999820001,1.0616113744075824,0.00012374029029160738,0.9968920359462541,0
356,240.59722222222223,0.6222222222222342,0.6972222222222229,0.5861111111111228,1.0616113744075824,0.03245041522770282,1.004162096073946,55.55555555555556,0.9999999999820001,1.1895734597156171,3.907874270225875e-05,0.9979590946205932,0
357,241.29444444444445,0.6972222222222229,0.6805555555555429,0.5861111111111228,1.1895734597156171,0.03170675040666495,0.981149754930393,55.55555555555556,0.9999999999820001,1.161137440758249,1.6764698784754728e-06,0.9988357007280231,0
358,241.975,0.6805555555555429,0.6916666666666629,0.6097222222222314,1.1161731207288919,0.03213366024414042,0.9943602693175243,55.55555555555556,0.9999999999820001,1.1343963553530518,2.363656449233531e-06,0.9979644173434329,0
359,242.66666666666666,0.6916666666666629,0.51111111111112,0.6513888888888886,1.0618336886993551,0.032194288827852836,0.9962363909410986,55.55555555555556,0.9999999999820001,0.7846481876332763,6.271618957498504e-08,0.9963245910677321,0
360,243.17777777777778,0.51111111111112,0.6222222222222342,0.6513888888888886,0.7846481876332763,0.03245487063967676,1.0042999666002623,55.55555555555556,0.9999999999820001,0.9552238805970338,3.035643749171868e-05,0.9966498476937653,0
361,243.8,0.6222222222222342,0.625,0.6222222222222342,1.0,0.03268832411812425,1.0115240693616179,58.333333333333336,1.0499999999811,1.0044642857142663,5.36366587766679e-06,0.998236009682181,0
362,244.425,0.625,0.5916666666666686,0.6222222222222342,1.0044642857142663,0.032737698404269676,1.0130519322971165,58.333333333333336,1.0499999999811,0.9508928571428419,5.340518782759318e-06,0.9974191612973347,0
363,245.01666666666668,0.5916666666666686,0.4305555555555429,0.6222222222222342,0.9508928571428419,0.029616099489363532,0.9164555933134995,50.0,0.8999999999838,0.6919642857142521,9.971252712404066e-10,0.9955299305193395,0
364,245.44722222222222,0.4305555555555429,0.63055555555556,0.6222222222222342,0.6919642857142521,0.032108809584065104,0.9935912778967692,58.333333333333336,1.0499999999811,1.0133928571428448,0.006802033167332411,0.9928626598631864,0
365,246.07777777777778,0.63055555555556,0.38888888888888573,0.6236111111111171,1.0111358574610219,0.03179320947186817,0.9838251880652191,55.55555555555556,0.9999999999820001,0.6236080178173609,3.39045485020506e-08,0.9982431796022,0
366,246.46666666666667,0.38888888888888573,0.7805555555555657,0.6236111111111171,0.6236080178173609,0.02934550274659151,0.9080821105550796,50.0,0.8999999999838,1.2516703786191579,0.0013117378111928701,0.9975951910946117,0
367,247.24722222222223,0.7805555555555657,0.7333333333333201,0.6236111111111171,1.2516703786191579,0.034435564683125176,1.0655915669817695,55.55555555555556,0.9999999999820001,1.1759465478841544,4.9446316552348435e-06,0.9973992543175754,0
368,247.98055555555555,0.7333333333333201,0.625,0.6236111111111171,1.1759465478841544,0.030898727592710142,0.9561458874346159,55.55555555555556,0.9999999999820001,1.0022271714921953,6.197981683442322e-09,0.9993941192557035,0
369,248.60555555555555,0.625,0.7666666666666799,0.6236111111111171,1.0022271714921953,0.03462206716954833,1.0713627944491395,58.333333333333336,1.0499999999811,1.2293986636971141,0.00024328015570063144,0.99798475874462,0
370,249.37222222222223,0.7666666666666799,0.7666666666666515,0.625,1.2266666666666879,0.031024792768661054,0.9600469121345011,55.55555555555556,0.9999999999820001,1.2266666666666424,1.5156119559378567e-07,0.9970443659393772,0
371,250.13888888888889,0.7666666666666515,0.8000000000000114,0.62777777777778,1.2212389380530688,0.03480092276645354,1.076897392691493,55.55555555555556,0.9999999999820001,1.2743362831858542,3.367345198057592e-05,0.998233714993951,0
372,250.9388888888889,0.8000000000000114,0.7583333333333258,0.68194444444444,1.1731160896130588,0.032873705046034186,1.0172605907539007,58.333333333333336,1.0499999999811,1.1120162932790185,5.7922502350038485e-08,0.9973157539077333,0
373,251.69722222222222,0.7583333333333258,0.6416666666666799,0.7458333333333229,1.016759776536317,0.030047476318022088,0.9298043365398638,52.77777777777778,0.9499999999829001,0.8603351955307561,1.3766625860112125e-11,0.9977914489027132,0
374,252.3388888888889,0.6416666666666799,0.5694444444444287,0.7458333333333229,0.8603351955307561,0.027795205545654206,0.8601089282118909,50.0,0.8999999999838,0.763500931098686,5.498948952437077e-12,0.9980486572781535,0
375,252.90833333333333,0.5694444444444287,0.6583333333333314,0.7458333333333229,0.763500931098686,0.03148426343594678,0.9742650053425118,52.77777777777778,0.9499999999829001,0.8826815642458199,1.8452213907949044e-06,0.9954584207311006,0
376,253.56666666666666,0.6583333333333314,0.6555555555555657,0.7458333333333229,0.8826815642458199,0.03134924897433808,0.9700870494113487,52.77777777777778,0.9499999999829001,0.8789571694599886,1.0045438258998729e-08,0.9967775705233771,0
377,254.22222222222223,0.6555555555555657,0.6527777777777715,0.6958333333333258,0.9421157684630986,0.03054329943394123,0.9451473383433734,52.77777777777778,0.9499999999829001,0.9381237524950111,1.0060389188382146e-09,0.9991016882665313,0
378,254.875,0.6527777777777715,0.7416666666666742,0.6569444444444485,0.9936575052853964,0.03203271226128454,0.9912364837712471,52.77777777777778,0.9499999999829001,1.128964059196622,3.225211457902333e-07,0.9986020374213722,0
379,255.61666666666667,0.7416666666666742,1.033333333333303,0.7000000000000028,1.059523809523816,0.03271343089261457,1.0123009861166408,58.333333333333336,1.0499999999811,1.476190476190427,4.4566389988176525e-05,0.9984851836471147,0
380,256.65,1.033333333333303,0.5500000000000114,0.7000000000000028,1.476190476190427,0.03586889042829647,1.1099451253115638,55.55555555555556,0.9999999999820001,0.7857142857142988,1.0632973668212031e-11,0.9979677021723743,0
381,257.2,0.5500000000000114,0.6500000000000341,0.6569444444444485,0.8372093023255934,0.03152995248164319,0.9756788303297176,52.77777777777778,0.9499999999829001,0.9894291754757328,1.0574528914730763e-06,0.9971174446553719,0
382,257.85,0.6500000000000341,0.6222222222222058,0.6541666666666686,0.9936305732484569,0.03309256737145525,1.024033177480582,55.55555555555556,0.9999999999820001,0.9511677282377641,3.6166875361232087e-07,0.9989098374807323,0
383,258.47222222222223,0.6222222222222058,0.5249999999999773,0.6513888888889028,0.9552238805969694,0.028894912003165643,0.8941388022117162,52.77777777777778,0.9499999999829001,0.8059701492536793,2.8313590361150887e-10,0.9974983598573769,0
384,258.9972222222222,0.5249999999999773,0.38333333333332575,0.6513888888889028,0.8059701492536793,0.03403923485296401,1.0533273358402369,52.77777777777778,0.9499999999829001,0.5884861407249226,4.581629127642373e-06,0.996827175003274,0
385,259.38055555555553,0.38333333333332575,0.63611111111112,0.6513888888889028,0.5884861407249226,0.030600770783228405,0.9469257609046706,52.77777777777778,0.9499999999829001,0.9765458422174768,0.0009757041116245091,0.9952357184054912,0
386,260.01666666666665,0.63611111111112,0.9805555555555543,0.643055555555577,0.9892008639308663,0.031631458842247884,0.978819894600064,58.333333333333336,1.0499999999811,1.5248380129589103,0.0003148009127471596,0.9969174072740044,0
387,260.9972222222222,0.9805555555555543,0.5333333333333599,0.643055555555577,1.5248380129589103,0.03382042243785095,1.0465562935634232,55.55555555555556,0.9999999999820001,0.8293736501080049,1.7862872639384797e-11,0.9985633917491925,0
388,261.53055555555557,0.5333333333333599,0.6722222222222172,0.6291666666666629,0.8476821192053453,0.03298537920677761,1.0207162925852191,55.55555555555556,0.9999999999820001,1.068432671081676,5.9728910855483264e-05,0.9968277886492225,0
389,262.2027777777778,0.6722222222222172,0.705555555555577,0.6291666666666629,1.068432671081676,0.030655350660617916,0.9486147082940439,55.55555555555556,0.9999999999820001,1.1214128035320496,1.373667259940703e-07,0.9986187686477495,0
390,262.90833333333336,0.705555555555577,0.6361111111110631,0.6291666666666629,1.1214128035320496,0.03285662280052896,1.0167319890909692,58.333333333333336,1.0499999999811,1.0110375275937489,1.4551125104844687e-06,0.9979965086563025,0
391,263.5444444444444,0.6361111111110631,0.6583333333333599,0.6361111111110915,0.9999999999999554,0.02972780141454622,0.9199121543016986,50.0,0.8999999999838,1.0349344978166675,6.2784732968168555e-09,0.9971652307930485,0
392,264.2027777777778,0.6583333333333599,0.3777777777777942,0.6361111111110915,1.0349344978166675,0.034333852043098335,1.062444119496433,52.77777777777778,0.9499999999829001,0.5938864628821402,2.5567476313881343e-07,0.9972473452399979,0
393,264.5805555555556,0.3777777777777942,0.9777777777777601,0.6361111111110915,0.5938864628821402,0.0326004450506429,1.008804694956579,55.55555555555556,0.9999999999820001,1.5371179039301506,0.02925497479736805,0.9950279296157614,0
394,265.55833333333334,0.9777777777777601,0.6527777777777715,0.6472222222222399,1.510729613733837,0.03264055887606659,1.0100459975019038,58.333333333333336,1.0499999999811,1.0085836909870871,2.6560528082475443e-11,0.998921374760877,0
395,266.2111111111111,0.6527777777777715,0.9166666666666856,0.6555555555555657,0.9957627118643818,0.030945825411924976,0.9576033062236028,50.0,0.8999999999838,1.39830508474577,9.006056643556803e-06,0.9990284959416862,0
396,267.1277777777778,0.9166666666666856,0.8416666666666401,0.6652777777777885,1.3778705636743278,0.03397354523370332,1.0512946029675059,58.333333333333336,1.0499999999811,1.265135699373635,7.620510444894535e-08,0.9975857519364213,0
397,267.96944444444443,0.8416666666666401,0.7666666666666515,0.6652777777777885,1.265135699373635,0.03276396256246332,1.013864663720067,55.55555555555556,0.9999999999820001,1.1524008350730275,1.5369877814919164e-08,0.9966984266232229,0
398,268.7361111111111,0.7666666666666515,0.4444444444444571,0.6888888888888971,1.1129032258064164,0.02884468783614424,0.8925846401316352,50.0,0.8999999999838,0.6451612903225913,9.86693094850305e-14,0.9983592679630419,0
399,269.18055555555554,0.4444444444444571,0.6000000000000227,0.6819444444444684,0.6517311608961259,0.030449118108377683,0.9422329436699833,52.77777777777778,0.9499999999829001,0.8798370672097784,6.772005872335285e-05,0.9946926335992359,0
400,269.78055555555557,0.6000000000000227,0.6388888888888573,0.6555555555555657,0.9152542372881561,0.03442006540780623,1.0651119495506,58.333333333333336,1.0499999999811,0.9745762711863775,3.9499951526522636e-05,0.9968322875477911,0
401,270.4194444444444,0.6388888888888573,0.6027777777778169,0.6555555555555657,0.9745762711863775,0.03298867631559921,1.0208183199917114,52.77777777777778,0.9499999999829001,0.9194915254237743,2.8484495828706713e-07,0.9974848672936212,0
402,271.02222222222224,0.6027777777778169,0.658333333333303,0.6458333333333144,0.9333333333334214,0.03423927315577493,1.0595174224704442,52.77777777777778,0.9499999999829001,1.0193548387096605,1.742092899803538e-05,0.9961001553863869,0
403,271.68055555555554,0.658333333333303,1.1333333333333258,0.6555555555555372,1.004237288135575,0.03510154985023872,1.0862001495428943,55.55555555555556,0.9999999999820001,1.7288135593220706,0.005267519038170576,0.9969673053279959,0
404,272.81388888888887,1.1333333333333258,0.8500000000000227,0.6555555555555372,1.7288135593220706,0.03301245497575627,1.0215541389036604,52.77777777777778,0.9499999999829001,1.2966101694915964,3.17271369224513e-14,0.9977763194848981,0
405,273.6638888888889,0.8500000000000227,0.5722222222221944,0.7124999999999773,1.1929824561404208,0.030497399368629236,0.9437269834582293,52.77777777777778,0.9499999999829001,0.8031189083820529,3.6979070521837853e-13,0.9993059408753091,0
406,274.2361111111111,0.5722222222221944,0.8027777777778056,0.6486111111110802,0.8822269807280506,0.032970641570829184,1.0202602437087624,55.55555555555556,0.9999999999820001,1.2376873661671255,0.0001819620665628463,0.9969327281495755,0
407,275.0388888888889,0.8027777777778056,0.9111111111110972,0.6486111111110802,1.2376873661671255,0.029883025586983088,0.9247154897678804,52.77777777777778,0.9499999999829001,1.4047109207709236,6.609459290984887e-08,0.9982024203238488,0
408,275.95,0.9111111111110972,0.7527777777777942,0.6486111111110802,1.4047109207709236,0.030169039384154765,0.9335660456716703,55.55555555555556,0.9999999999820001,1.160599571734556,2.2932050355861655e-11,0.9967186501700416,0
409,276.7027777777778,0.7527777777777942,0.7916666666666856,0.7055555555555486,1.0669291338583016,0.02934638555793471,0.9081094287167304,55.55555555555556,0.9999999999820001,1.1220472440945262,4.269150033486824e-10,0.9987761656660064,0
410,277.49444444444447,0.7916666666666856,0.6833333333333371,0.7722222222222399,1.0251798561151089,0.029532394833420038,0.9138653940148597,50.0,0.8999999999838,0.8848920863309199,1.164117494891967e-13,0.998760927610294,0
411,278.1777777777778,0.6833333333333371,0.7555555555555316,0.7722222222222399,0.8848920863309199,0.03479991293502893,1.076866143956064,55.55555555555556,0.9999999999820001,0.9784172661869969,4.4835735479864525e-07,0.9990007915186931,0
412,278.93333333333334,0.7555555555555316,0.8888888888888573,0.7736111111111086,0.976660682226184,0.03489493258754728,1.0798064802436438,61.111111111111114,1.0999999999802001,1.149012567324918,3.0163498649926623e-06,0.9962899973342834,0
413,279.8222222222222,0.8888888888888573,0.922222222222274,0.7972222222222456,1.1149825783971403,0.03187882712096929,0.9864745839937158,58.333333333333336,1.0499999999811,1.1567944250871391,1.5749029858014296e-10,0.9981584715889774,0
414,280.74444444444447,0.922222222222274,0.7138888888888459,0.7972222222222456,1.1567944250871391,0.0291920855697569,0.9033346916766773,52.77777777777778,0.9499999999829001,0.8954703832751812,1.135064912781349e-15,0.9974937369330938,0
415,281.4583333333333,0.7138888888888459,0.5416666666666856,0.7736111111111086,0.9228007181328021,0.031043532314135567,0.9606267981276732,52.77777777777778,0.9499999999829001,0.7001795332136713,1.938006422008698e-10,0.9976015783882529,0
416,282.0,0.5416666666666856,0.6527777777777715,0.7736111111111086,0.7001795332136713,0.03427807430259074,1.060718104823605,52.77777777777778,0.9499999999829001,0.8438061041292585,0.000599367602262646,0.9946363663475367,0
417,282.65277777777777,0.6527777777777715,0.8138888888888687,0.7541666666666629,0.8655616942909721,0.030405146759886304,0.940872271975693,55.55555555555556,0.9999999999820001,1.0791896869244721,4.686254229113729e-08,0.9988734298092197,0
418,283.46666666666664,0.8138888888888687,0.7222222222222285,0.7541666666666629,1.0791896869244721,0.03508167721574958,1.0855852006689553,55.55555555555556,0.9999999999820001,0.9576427255985399,2.7212223585593165e-08,0.9964266577541319,0
419,284.18888888888887,0.7222222222222285,0.6000000000000227,0.73888888888888,0.9774436090225767,0.03422584971785374,1.0591020408038345,52.77777777777778,0.9499999999829001,0.8120300751880104,1.1397402488455555e-07,0.9943277666366885,0
420,284.7888888888889,0.6000000000000227,0.3916666666666515,0.7180555555555372,0.8355899419729736,0.03368857652100678,1.0424763866874083,52.77777777777778,0.9499999999829001,0.5454545454545383,3.093398959208571e-07,0.9970159987210161,0
421,285.18055555555554,0.3916666666666515,0.6750000000000114,0.7180555555555372,0.5454545454545383,0.03513486157933463,1.0872309645718572,55.55555555555556,0.9999999999820001,0.9400386847195756,0.005421091336756945,0.9979851119626826,0
422,285.85555555555555,0.6750000000000114,0.7833333333333599,0.6944444444444287,0.9720000000000385,0.03088297493662159,0.9556584292604873,55.55555555555556,0.9999999999820001,1.1280000000000638,3.982371765687276e-08,0.9985609083914921,0
423,286.6388888888889,0.7833333333333599,0.6888888888888687,0.6944444444444287,1.1280000000000638,0.032273617791028913,0.9986911865849539,58.333333333333336,1.0499999999811,0.9919999999999934,5.1370134812600554e-09,0.9983200954437097,0
424,287.3277777777778,0.6888888888888687,0.6194444444444116,0.68194444444444,1.010183299388979,0.03495182129111556,1.0815668731205055,55.55555555555556,0.9999999999820001,0.9083503054989394,8.130104447445774e-07,0.9985347289139059,0
425,287.9472222222222,0.6194444444444116,0.6083333333333485,0.6638888888888914,0.9330543933053863,0.02850327186488852,0.8820196912727808,47.22222222222222,0.8499999999847,0.9163179916318185,4.2303459346637595e-11,0.9976361133424531,0
426,288.55555555555554,0.6083333333333485,0.6500000000000341,0.6638888888888914,0.9163179916318185,0.0363572544547806,1.1250573092710086,58.333333333333336,1.0499999999811,0.9790794979079974,0.00029133117641322315,0.9965087635444585,0
427,289.2055555555556,0.6500000000000341,0.6194444444444116,0.6625000000000227,0.9811320754717159,0.03204833715661722,0.9917199884517914,55.55555555555556,0.9999999999820001,0.9350104821802119,4.967034783476265e-08,0.9990460102579684,0
428,289.825,0.6194444444444116,0.7250000000000227,0.6347222222222229,0.9759299781181092,0.03465664103341812,1.0724326656162493,55.55555555555556,0.9999999999820001,1.1422319474836233,4.425890801940113e-05,0.9979531720669246,0
429,290.55,0.7250000000000227,1.0,0.6347222222222229,1.1422319474836233,0.037364742968832194,1.1562335444883873,61.111111111111114,1.0999999999802001,1.5754923413566724,0.0238999854773283,0.9953796214300036,0
430,291.55,1.0,0.8722222222222058,0.6625000000000227,1.509433962264099,0.03185634321656391,0.9857788306599846,52.77777777777778,0.9499999999829001,1.3165618448636618,5.750716309399495e-12,0.9979850869615889,0
431,292.4222222222222,0.8722222222222058,0.5972222222222285,0.68194444444444,1.27902240325864,0.030588263328714664,0.9465387238928807,55.55555555555556,0.9999999999820001,0.8757637474541901,4.7922547007084315e-12,0.9981166264394965,0
432,293.01944444444445,0.5972222222222285,0.9444444444444571,0.6694444444444514,0.8921161825726143,0.030768946295808224,0.9521298692045327,52.77777777777778,0.9499999999829001,1.410788381742743,6.921747990418226e-05,0.9984419439551313,0
433,293.9638888888889,0.9444444444444571,0.6166666666666742,0.6694444444444514,1.410788381742743,0.031704316249154374,0.9810744311266499,55.55555555555556,0.9999999999820001,0.9211618257261428,3.4726978237475947e-12,0.9969007945661428,0
434,294.5805555555556,0.6166666666666742,0.375,0.6347222222222229,0.9715536105032933,0.02859927736057154,0.884990533990916,50.0,0.8999999999838,0.5908096280087521,1.9317832056220396e-11,0.9980483814639902,0
435,294.9555555555556,0.375,0.6916666666666629,0.6347222222222229,0.5908096280087521,0.03210746695352128,0.9935497308567179,52.77777777777778,0.9499999999829001,1.0897155361050257,0.002821472240611911,0.9974234440505513,0
436,295.64722222222224,0.6916666666666629,0.5666666666666629,0.6708333333333485,1.031055900621089,0.03559056823816924,1.1013325823945948,55.55555555555556,0.9999999999820001,0.8447204968943852,4.188652837910922e-06,0.997880338413379,0
437,296.2138888888889,0.5666666666666629,0.86388888888888,0.6555555555555372,0.8644067796610353,0.030340150527653303,0.9388609956225855,52.77777777777778,0.9499999999829001,1.3177966101695149,3.4599688660819083e-05,0.9981776769719982,0
438,297.0777777777778,0.86388888888888,0.9805555555555543,0.7083333333333428,1.2196078431372261,0.034522970202093835,1.0682962876616169,58.333333333333336,1.0499999999811,1.3843137254901758,2.6462046207598178e-06,0.998538540641903,0
439,298.05833333333334,0.9805555555555543,0.955555555555577,0.7777777777777715,1.2607142857142943,0.03409257220989109,1.0549778340466578,58.333333333333336,1.0499999999811,1.2285714285714662,2.1560150886834606e-10,0.9976917915506771,0
440,299.0138888888889,0.955555555555577,0.9166666666666288,0.7777777777777715,1.2285714285714662,0.03594385978052814,1.1122650149447166,55.55555555555556,0.9999999999820001,1.1785714285713895,6.351909553892199e-10,0.9973256703767313,0
441,299.93055555555554,0.9166666666666288,0.5500000000000114,0.7777777777777715,1.1785714285713895,0.03098217005250568,0.9587279732027612,52.77777777777778,0.9499999999829001,0.7071428571428775,1.4802605484681014e-14,0.9988071212916274,0
442,300.48055555555555,0.5500000000000114,0.7527777777777942,0.7777777777777715,0.7071428571428775,0.03078479931607457,0.952620433098648,52.77777777777778,0.9499999999829001,0.9678571428571718,9.251042683899868e-06,0.997999021813103,0
443,301.23333333333335,0.7527777777777942,0.6750000000000114,0.7222222222222285,1.042307692307706,0.034468661290861534,1.0666157251863495,55.55555555555556,0.9999999999820001,0.9346153846153922,4.959224142453422e-08,0.9982653260358048,0
444,301.90833333333336,0.6750000000000114,0.6999999999999886,0.7222222222222285,0.9346153846153922,0.030577173496358735,0.9461955544996543,52.77777777777778,0.9499999999829001,0.969230769230745,1.2285688022473096e-09,0.9984256877821437,0
445,302.60833333333335,0.6999999999999886,0.6833333333333371,0.7263888888888914,0.9636711281070556,0.03320642264813918,1.0275563728690469,61.111111111111114,1.0999999999802001,0.9407265774378605,1.2650954772652767e-07,0.9977142767317662,0
446,303.2916666666667,0.6833333333333371,0.7694444444444457,0.7263888888888914,0.9407265774378605,0.030856026310562355,0.9548245173169861,55.55555555555556,0.9999999999820001,1.0592734225621396,6.733365420785731e-09,0.9987789661356445,0
447,304.06111111111113,0.7694444444444457,0.41666666666662877,0.76111111111112,1.0109489051094789,0.034930490899666614,1.0809068146763483,55.55555555555556,0.9999999999820001,0.5474452554743964,1.3023016443014512e-08,0.9987145797213861,0
448,304.47777777777776,0.41666666666662877,0.61388888888888,0.7263888888888914,0.5736137667303474,0.03708491174391573,1.1475743052340568,61.111111111111114,1.0999999999802001,0.8451242829827764,0.6281372904777527,0.9872255707767414,1
449,305.09166666666664,0.61388888888888,0.8527777777778169,0.6916666666666629,0.8875502008032049,0.03163640211828504,0.978972861839223,58.333333333333336,1.0499999999811,1.2329317269076938,4.157770672463812e-05,0.9956206031863837,0
450,305.94444444444446,0.8527777777778169,0.5083333333333258,0.6916666666666629,1.2329317269076938,0.028093253899168873,0.8693318875267897,50.0,0.8999999999838,0.7349397590361376,1.105780654454163e-15,0.9983229635788775,0
451,306.4527777777778,0.5083333333333258,0.658333333333303,0.6791666666666742,0.7484662576686921,0.03474734242342632,1.0752393754000338,52.77777777777778,0.9499999999829001,0.9693251533741777,0.000641958205960691,0.996541392249917,0
452,307.1111111111111,0.658333333333303,0.6166666666666742,0.6791666666666742,0.9693251533741777,0.02909700251763965,0.9003923935197756,55.55555555555556,0.9999999999820001,0.9079754601227004,6.191503421071332e-10,0.9976612339250384,0
453,307.72777777777776,0.6166666666666742,0.88611111111112,0.6666666666666572,0.9250000000000245,0.02963474195593936,0.9170324752480269,52.77777777777778,0.9499999999829001,1.3291666666666988,3.78359982278198e-06,0.9976078523482097,0
454,308.6138888888889,0.88611111111112,0.7777777777777715,0.6708333333333201,1.3209109730849253,0.037740784487133715,1.1678699638247454,61.111111111111114,1.0999999999802001,1.159420289855086,1.607567901373841e-05,0.9971503709057237,0
455,309.39166666666665,0.7777777777777715,0.6999999999999886,0.6708333333333201,1.159420289855086,0.03378477289395566,1.045453136008403,58.333333333333336,1.0499999999811,1.043478260869569,1.786617644938815e-07,0.9981555902207788,0
456,310.09166666666664,0.6999999999999886,0.7250000000000227,0.6791666666666458,1.0306748466257818,0.03667181356162682,1.1347911857053599,61.111111111111114,1.0999999999802001,1.0674846625767533,6.448991189245135e-05,0.9972720147343442,0
457,310.81666666666666,0.7250000000000227,0.63611111111112,0.6791666666666458,1.0674846625767533,0.028489464315595944,0.8815924234692109,50.0,0.8999999999838,0.936605316973457,4.090612831103568e-12,0.9981295717866899,0
458,311.4527777777778,0.63611111111112,0.8944444444444457,0.6791666666666458,0.936605316973457,0.03038252337184137,0.9401722023895233,50.0,0.8999999999838,1.3169734151329666,1.438382241758518e-06,0.9996253037845431,0
459,312.34722222222223,0.8944444444444457,0.6527777777777715,0.7125000000000057,1.2553606237816681,0.028827969024393385,0.8920672847470029,52.77777777777778,0.9499999999829001,0.9161793372319527,7.0760412435619084e-15,0.9981190190102154,0
460,313.0,0.6527777777777715,1.194444444444457,0.6791666666666458,0.9611451942740489,0.030004690136306463,0.928480339246976,50.0,0.8999999999838,1.7586912065440399,0.00012956929276697338,0.9971340183594661,0
461,314.19444444444446,1.194444444444457,0.7194444444444343,0.7125000000000057,1.6764132553606281,0.03155181628247503,0.9763553948641739,55.55555555555556,0.9999999999820001,1.009746588693935,7.788772352468711e-18,0.9982408956215871,0
462,314.9138888888889,0.7194444444444343,0.4277777777777487,0.7222222222222285,0.9961538461538234,0.0331319345645207,1.025251375855788,61.111111111111114,1.0999999999802001,0.5923076923076469,8.612536817054206e-08,0.9980067901656402,0
463,315.34166666666664,0.4277777777777487,0.7000000000000455,0.7222222222222285,0.5923076923076469,0.03256493409868505,1.0077058260607157,52.77777777777778,0.9499999999829001,0.9692307692308237,0.0012876598630100489,0.9980736008133044,0
464,316.0416666666667,0.7000000000000455,0.8416666666666401,0.7097222222222399,0.9863013698630532,0.03061295522161167,0.9473028023416005,55.55555555555556,0.9999999999820001,1.1859099804304614,7.530277912337624e-08,0.997383017780382,0
465,316.8833333333333,0.8416666666666401,0.8694444444444684,0.7097222222222399,1.1859099804304614,0.032700391927338174,1.011897501766419,58.333333333333336,1.0499999999811,1.225048923679064,3.842827211997246e-08,0.9980997290730331,0
466,317.7527777777778,0.8694444444444684,0.8277777777777828,0.7222222222222285,1.2038461538461767,0.03029806217816978,0.9375585924039794,50.0,0.8999999999838,1.1461538461538432,4.62297897445979e-13,0.9987543543832502,0
467,318.5805555555556,0.8277777777777828,0.5861111111111086,0.7736111111111086,1.0700179533213745,0.029910136190222265,0.9255544140153348,50.0,0.8999999999838,0.7576301615798915,4.9408651540787385e-14,0.996593700863173,0
468,319.1666666666667,0.5861111111111086,0.6194444444444116,0.7736111111111086,0.7576301615798915,0.0335271600523708,1.0374814336691192,52.77777777777778,0.9499999999829001,0.8007181328545383,7.22835420674528e-06,0.9968587168330729,0
469,319.7861111111111,0.6194444444444116,0.7638888888889142,0.7097222222222399,0.8727984344422021,0.03258878133523726,1.0084437670353936,55.55555555555556,0.9999999999820001,1.0763209393346467,9.940295058186166e-07,0.9983334988697636,0
470,320.55,0.7638888888889142,0.5027777777777942,0.7416666666666742,1.029962546816503,0.03216440831743656,0.9953117532820479,55.55555555555556,0.9999999999820001,0.6779026217228616,9.032293246669099e-10,0.9975747453312294,0
471,321.0527777777778,0.5027777777777942,0.7444444444444116,0.7097222222222399,0.70841487279844,0.0318404972567632,0.9852884852484968,58.333333333333336,1.0499999999811,1.048923679060593,0.0005800718208774924,0.9969657427144252,0
472,321.7972222222222,0.7444444444444116,0.5888888888889028,0.7222222222222285,1.0307692307691763,0.03205748777381926,0.9920031497884182,58.333333333333336,1.0499999999811,0.8153846153846275,4.3520418380182946e-09,0.9989169817034893,0
473,322.3861111111111,0.5888888888889028,0.6555555555555657,0.7222222222222285,0.8153846153846275,0.03744374959361953,1.1586783655297666,58.333333333333336,1.0499999999811,0.9076923076923138,0.0022500406485050917,0.9962958488282398,0
474,323.0416666666667,0.6555555555555657,0.658333333333303,0.6999999999999886,0.9365079365079662,0.03169993193461589,0.9809387606754117,52.77777777777778,0.9499999999829001,0.9404761904761625,5.687240900442703e-09,0.9990518155335002,0
475,323.7,0.658333333333303,0.47777777777781694,0.6569444444444343,1.0021141649048317,0.03551546443957749,1.0990085323851322,52.77777777777778,0.9499999999829001,0.727272727272798,1.5562379758193856e-06,0.9980290601481232,0
476,324.1777777777778,0.47777777777781694,0.5194444444443889,0.6374999999999886,0.7494553376907066,0.031373719878735024,0.970844289479916,55.55555555555556,0.9999999999820001,0.8148148148147422,1.132076340581989e-05,0.9950880412842382,0
477,324.6972222222222,0.5194444444443889,0.7194444444444912,0.6041666666666572,0.8597701149424503,0.03072458206027278,0.9507570398144188,55.55555555555556,0.9999999999820001,1.1908045977012454,1.359769066766603e-05,0.9984939521976266,0
478,325.4166666666667,0.7194444444444912,0.4361111111110745,0.6374999999999886,1.1285403050109868,0.03078854741097262,0.9527364160468691,52.77777777777778,0.9499999999829001,0.6840958605664036,1.4229502298679364e-10,0.9992040858983693,0
479,325.85277777777776,0.4361111111110745,0.47500000000002274,0.6222222222222342,0.7008928571427847,0.028886146608374724,0.8938675613926264,50.0,0.8999999999838,0.763392857142879,1.5516275198024232e-07,0.9971754645439628,0
480,326.3277777777778,0.47500000000002274,1.1777777777777487,0.5541666666666458,0.8571428571429304,0.035591690559997585,1.1013673120900922,58.333333333333336,1.0499999999811,2.1253132832080475,0.017280325293540955,0.9933975463383395,0
481,327.50555555555553,1.1777777777777487,0.6694444444444798,0.6222222222222342,1.8928571428570597,0.03282318952868653,1.0156974129816552,61.111111111111114,1.0999999999802001,1.0758928571428932,3.296692888295205e-13,0.9972650299958137,0
482,328.175,0.6694444444444798,0.4444444444444571,0.6222222222222342,1.0758928571428932,0.03076374185830182,0.9519688204525014,52.77777777777778,0.9499999999829001,0.7142857142857209,1.1487265583198791e-09,0.998506578479476,0
483,328.61944444444447,0.4444444444444571,0.6722222222222172,0.5874999999999773,0.7565011820331478,0.03350460111041878,1.0367833583355124,58.333333333333336,1.0499999999811,1.1442080378250947,0.00543074868619442,0.9968625901326202,0
484,329.2916666666667,0.6722222222222172,0.5138888888888573,0.5888888888888459,1.1415094339623388,0.031025256747680675,0.9600612697364488,55.55555555555556,0.9999999999820001,0.8726415094339722,5.274718972714254e-08,0.9981131185576533,0
485,329.80555555555554,0.5138888888888573,0.6750000000000114,0.5166666666666231,0.9946236559140013,0.03067928002077433,0.9493551905431542,52.77777777777778,0.9499999999829001,1.306451612903358,0.0010508171981200576,0.9936785944333424,0
486,330.48055555555555,0.6750000000000114,0.8388888888889028,0.5944444444444343,1.1355140186916273,0.03197412625215329,0.9894235686107772,50.0,0.8999999999838,1.4112149532710754,4.0734492358751595e-05,0.9967494973153566,0
487,331.31944444444446,0.8388888888889028,0.6999999999999886,0.6708333333333485,1.2505175983436778,0.03439059259403857,1.0641999278632823,55.55555555555556,0.9999999999820001,1.0434782608695248,2.3443554653113097e-08,0.9977451631076284,0
488,332.01944444444445,0.6999999999999886,0.9666666666666401,0.6708333333333485,1.0434782608695248,0.031952404021420855,0.9887513848932308,58.333333333333336,1.0499999999811,1.4409937888198037,0.00011994989472441375,0.995343375301863,0
489,332.9861111111111,0.9666666666666401,1.5333333333333599,0.6736111111111143,1.4350515463917064,0.032252094889759456,0.9980251710193386,55.55555555555556,0.9999999999820001,2.276288659793843,2.1760475647170097e-05,0.9954471216868328,0
490,334.51944444444445,1.5333333333333599,0.6805555555555429,0.6875,2.230303030303069,0.03215836604470446,0.9951247781321418,52.77777777777778,0.9499999999829001,0.9898989898989715,5.3033059731046e-24,0.9968530027123741,0
491,335.2,0.6805555555555429,0.6861111111111313,0.6777777777777771,1.0040983606557201,0.0315059750459368,0.974936860406422,50.0,0.8999999999838,1.0122950819672438,8.76544792305367e-09,0.9960927809179007,0
492,335.8861111111111,0.6861111111111313,0.6222222222222058,0.6833333333333371,1.0040650406504306,0.03483546579750457,1.077966309752232,55.55555555555556,0.9999999999820001,0.9105691056910278,7.80549612500181e-07,0.9982814351229422,0
493,336.5083333333333,0.6222222222222058,0.8111111111111313,0.6833333333333371,0.9105691056910278,0.03557706202581347,1.1009146393139277,58.333333333333336,1.0499999999811,1.186991869918722,0.00021176337031647563,0.9975915215581248,0
494,337.31944444444446,0.8111111111111313,0.7222222222222285,0.69305555555556,1.170340681362747,0.029602039679959048,0.9160205194451703,52.77777777777778,0.9499999999829001,1.0420841683366757,7.239449924950625e-12,0.9974402084648597,0
495,338.0416666666667,0.7222222222222285,0.6499999999999773,0.7111111111111086,1.0156250000000124,0.030201410667391255,0.9345677590673007,52.77777777777778,0.9499999999829001,0.9140624999999712,6.45288267264732e-11,0.9990855256989417,0
496,338.69166666666666,0.6499999999999773,0.7638888888889142,0.7111111111111086,0.9140624999999712,0.032519992194890664,1.00631512101121,55.55555555555556,0.9999999999820001,1.0742187500000393,3.6917012380399683e-07,0.9970434587220176,0
497,339.4555555555556,0.7638888888889142,0.6194444444444116,0.7111111111111086,1.0742187500000393,0.032644307447428585,1.010161995194067,58.333333333333336,1.0499999999811,0.8710937499999569,2.9732586170894137e-08,0.9960296522744023,0
498,340.075,0.6194444444444116,0.5777777777777828,0.7041666666666799,0.8796844181458934,0.03444982670168885,1.066032898112809,55.55555555555556,0.9999999999820001,0.8205128205128123,8.25819086003321e-07,0.9988538184923277,0
499,340.65277777777777,0.5777777777777828,0.5861111111111086,0.6833333333333371,0.8455284552845556,0.03592460444099122,1.111669167958651,55.55555555555556,0.9999999999820001,0.8577235772357639,5.294213042361662e-05,0.997750990979448,0
500,341.2388888888889,0.5861111111111086,1.10277777777776,0.6652777777777601,0.8810020876826918,0.03447168873945352,1.0667094080900212,52.77777777777778,0.9499999999829001,1.6576200417536708,0.014254952780902386,0.9962113575110125,0
501,342.34166666666664,1.10277777777776,0.8555555555555543,0.6680555555555543,1.6507276507276274,0.03329958779922945,1.0304393225244948,52.77777777777778,0.9499999999829001,1.2806652806652812,1.3381160871191178e-13,0.9973453340369647,0
502,343.1972222222222,0.8555555555555543,0.6805555555555998,0.6861111111111029,1.2469635627530495,0.030988941041486615,0.958937498117616,55.55555555555556,0.9999999999820001,0.9919028340081735,1.3811627189164177e-11,0.9994432414658406,0
503,343.8777777777778,0.6805555555555998,0.6750000000000114,0.7013888888889142,0.9702970297029984,0.032438371176851576,1.0037893988599615,55.55555555555556,0.9999999999820001,0.9623762376237439,2.2552198331027284e-08,0.9985085588617952,0
504,344.5527777777778,0.6750000000000114,0.6111111111110858,0.6777777777778056,0.9959016393442383,0.031249815661477463,0.9670101345811047,52.77777777777778,0.9499999999829001,0.9016393442622208,1.670921734309161e-09,0.9992228323482033,0
505,345.1638888888889,0.6111111111110858,0.6833333333333371,0.6624999999999943,0.922431865828062,0.030276788790256418,0.9369002979061192,52.77777777777778,0.9499999999829001,1.0314465408805178,3.6250018098371584e-08,0.9978435638162694,0
506,345.84722222222223,0.6833333333333371,0.6472222222222399,0.6777777777778056,1.0081967213114396,0.03195001267657613,0.9886773859063189,55.55555555555556,0.9999999999820001,0.9549180327868722,2.4791100727838966e-08,0.9983475206543303,0
507,346.49444444444447,0.6472222222222399,0.40277777777777146,0.6611111111111256,0.9789915966386608,0.03229937680182081,0.9994882864706743,58.333333333333336,1.0499999999811,0.6092436974789687,3.612206569414411e-07,0.9959380800344844,0
508,346.89722222222224,0.40277777777777146,0.7333333333332916,0.6611111111111256,0.6092436974789687,0.033411112894795585,1.0338904116074146,58.333333333333336,1.0499999999811,1.1092436974789042,0.08121559023857117,0.9915509908486122,0
509,347.63055555555553,0.7333333333332916,0.7527777777777942,0.6777777777778056,1.0819672131146483,0.028697315933246897,0.8880242892739528,50.0,0.8999999999838,1.1106557377048967,9.406364576136639e-11,0.9979308508456792,0
510,348.3833333333333,0.7527777777777942,1.0,0.6819444444444684,1.103869653767806,0.029226506365966284,0.9043998262405223,55.55555555555556,0.9999999999820001,1.4663951120162417,8.085505669441773e-07,0.9973948112161422,0
511,349.3833333333333,1.0,0.6527777777777715,0.6819444444444684,1.4663951120162417,0.02864512449378861,0.8864092509184864,52.77777777777778,0.9499999999829001,0.9572301425661485,2.429596748075325e-16,0.9961436025256349,0
512,350.0361111111111,0.6527777777777715,0.5444444444444798,0.6777777777778056,0.9631147540983118,0.03432951139596541,1.0623098003115248,55.55555555555556,0.9999999999820001,0.8032786885246094,7.971562467901094e-07,0.998100150348018,0
513,350.5805555555556,0.5444444444444798,0.7305555555555543,0.6638888888888914,0.8200836820084183,0.03436235307646692,1.0633260699185414,61.111111111111114,1.0999999999802001,1.1004184100418348,0.003787436056882143,0.9946525458417899,0
514,351.31111111111113,0.7305555555555543,0.8166666666666629,0.6680555555555543,1.0935550935550937,0.033785408900490456,1.0454728169169714,55.55555555555556,0.9999999999820001,1.2224532224532192,9.762418812897522e-06,0.9958214661783702,0
515,352.1277777777778,0.8166666666666629,0.5583333333333371,0.7069444444444457,1.1552062868369277,0.028710463856359815,0.8884311452706926,52.77777777777778,0.9499999999829001,0.7897838899803575,1.4714280954699482e-13,0.9976755347925798,0
516,352.68611111111113,0.5583333333333371,0.7666666666666515,0.6916666666666629,0.8072289156626605,0.034844903152170294,1.0782583440382658,58.333333333333336,1.0499999999811,1.1084337349397433,0.002171423751860857,0.9954269132196638,0
