beat_index,peak_time_s,rr_prev_s,rr_next_s,rr_baseline_s,prematurity_index,aa_ratio,morph_index,qrs_width_ms,width_index,pause_index,pvc_score,morphology_score,is_pvc_candidate
0,0.9694444444444444,,1.0944444444444446,0.8944444444443889,,0.03612882568232821,1.0675984541378056,61.111111111111114,0.9999999999836364,1.2236024844721258,0.0005612513632513583,0.9986626056861485,0
1,2.063888888888889,1.0944444444444446,1.1472222222222221,0.8944444444443889,1.2236024844721258,0.03429419767008707,1.013385620125196,61.111111111111114,0.9999999999836364,1.2826086956522535,1.0418486386110093e-11,0.9993845147682721,0
2,3.2111111111111112,1.1472222222222221,1.1694444444444443,0.8944444444443889,1.2826086956522535,0.03505633426889963,1.0359065805873051,63.888888888888886,1.045454545437438,1.3074534161491493,1.880802805165338e-11,0.9989354578636624,0
3,4.3805555555555555,1.1694444444444443,1.1222222222222227,0.8944444444443889,1.3074534161491493,0.032244049806342434,0.9528042242798759,61.111111111111114,0.9999999999836364,1.2546583850932462,1.4342361662460917e-14,0.9995968798344432,0
4,5.502777777777778,1.1222222222222227,1.0694444444444438,0.8944444444443889,1.2546583850932462,0.033300039783884634,0.9840084842113164,58.333333333333336,0.9545454545298347,1.195652173913117,2.3528998099376676e-14,0.9995622854935988,0
5,6.572222222222222,1.0694444444444438,1.0888888888888895,1.1222222222222227,0.9529702970297019,0.031139970506615162,0.9201789359851907,55.55555555555556,0.9090909090760331,0.9702970297029704,4.512310104964846e-15,0.9984862917953228,0
6,7.661111111111111,1.0888888888888895,1.1388888888888893,1.1083333333333336,0.9824561403508775,0.03372908471669771,0.9966866628782455,63.888888888888886,1.045454545437438,1.0275689223057645,8.845124285783434e-12,0.9985439650196409,0
7,8.8,1.1388888888888893,1.1722222222222207,1.1222222222222227,1.0148514851485149,0.03357038743462733,0.9919971948478168,61.111111111111114,0.9999999999836364,1.0445544554455428,8.80219969178267e-14,0.9996978908029075,0
8,9.972222222222221,1.1722222222222207,1.158333333333335,1.130555555555556,1.036855036855035,0.033119597549932996,0.9786764578752882,61.111111111111114,0.9999999999836364,1.0245700245700256,6.02182911960689e-15,0.9997287315900214,0
9,11.130555555555556,1.158333333333335,1.091666666666665,1.1388888888888893,1.0170731707317084,0.033694399912220306,0.9956617349171837,61.111111111111114,0.9999999999836364,0.9585365853658518,1.3280414433631572e-14,0.9995085890153949,0
10,12.222222222222221,1.091666666666665,1.1111111111111125,1.130555555555556,0.9656019656019638,0.035740616091383584,1.056126950391237,58.333333333333336,0.9545454545298347,0.9828009828009836,3.189164861014393e-12,0.9978031941306595,0
11,13.333333333333334,1.1111111111111125,1.113888888888889,1.130555555555556,0.9828009828009836,0.03767634239819186,1.113327215657352,61.111111111111114,0.9999999999836364,0.9852579852579849,4.1915047821472484e-11,0.9987726329560078,0
12,14.447222222222223,1.113888888888889,1.1472222222222221,1.1180555555555558,0.9962732919254657,0.03392467491422925,1.0024663080392926,63.888888888888886,1.045454545437438,1.0260869565217388,2.4285129029272268e-12,0.999179164316558,0
13,15.594444444444445,1.1472222222222221,1.1166666666666671,1.1180555555555558,1.0260869565217388,0.034689530695667166,1.0250676197199236,63.888888888888886,1.045454545437438,0.9987577639751555,5.59675027676787e-13,0.999037733391859,0
14,16.711111111111112,1.1166666666666671,1.0861111111111086,1.115277777777778,1.0012453300124535,0.034501306239581364,1.0195056305173122,63.888888888888886,1.045454545437438,0.9738480697384783,1.466894748031189e-12,0.9996532500333033,0
15,17.79722222222222,1.0861111111111086,1.0888888888888921,1.115277777777778,0.9738480697384783,0.03527965004589218,1.0425055102175709,66.66666666666667,1.0909090908912398,0.97633872976339,2.6341132053353533e-10,0.9990844393489129,0
16,18.886111111111113,1.0888888888888921,1.091666666666665,1.115277777777778,0.97633872976339,0.033156721193785495,0.9797734529765787,61.111111111111114,0.9999999999836364,0.9788293897882921,2.8799106654119055e-13,0.9998453628002137,0
17,19.977777777777778,1.091666666666665,1.155555555555555,1.1125000000000007,0.9812734082396982,0.03440785381270864,1.0167441328881892,63.888888888888886,1.045454545437438,1.0387016229712847,2.2824051676417767e-11,0.9985316540631366,0
18,21.133333333333333,1.155555555555555,1.2055555555555557,1.1125000000000007,1.0387016229712847,0.03561034279273853,1.0522774045058603,66.66666666666667,1.0909090908912398,1.0836454431960045,2.4821722802159663e-11,0.9985606750824467,0
19,22.33888888888889,1.2055555555555557,1.1666666666666679,1.1125000000000007,1.0836454431960045,0.03601193202775884,1.064144273644532,66.66666666666667,1.0909090908912398,1.0486891385767794,9.673379718772024e-13,0.9987384990419637,0
20,23.505555555555556,1.1666666666666679,1.0999999999999979,1.115277777777778,1.046077210460773,0.034180767020056034,1.0100337706161706,63.888888888888886,1.045454545437438,0.9863013698630115,5.883402760201856e-14,0.9996452057237193,0
21,24.605555555555554,1.0999999999999979,1.1194444444444471,1.115277777777778,0.9863013698630115,0.03305895572014583,0.9768845058116891,58.333333333333336,0.9545454545298347,1.0037359900373621,4.2357651132245155e-14,0.9992706199820724,0
22,25.725,1.1194444444444471,1.1611111111111114,1.1180555555555571,1.0012422360248456,0.03413927884627816,1.008807804663673,63.888888888888886,1.045454545437438,1.038509316770185,3.363601714864717e-12,0.9987235441687277,0
23,26.886111111111113,1.1611111111111114,1.1972222222222193,1.1180555555555571,1.038509316770185,0.034973870793010335,1.033469803921594,63.888888888888886,1.045454545437438,1.070807453416145,1.3752737013442151e-12,0.998680172537902,0
24,28.083333333333332,1.1972222222222193,0.68888888888889,1.137500000000001,1.052503052503049,0.03521598009930669,1.0406240780019937,66.66666666666667,1.0909090908912398,0.605616605616606,4.37459245802678e-14,0.9994392701703809,0
25,28.772222222222222,0.68888888888889,1.5083333333333329,1.137500000000001,0.605616605616606,0.044102679682626246,1.3032239981034557,161.11111111111111,2.636363636320496,1.3260073260073244,0.9823421835899353,0.6421966547489741,1
26,30.280555555555555,1.5083333333333329,1.0833333333333321,1.1583333333333332,1.3021582733812946,0.033271628745507716,0.9831689445894547,61.111111111111114,0.9999999999836364,0.9352517985611501,1.6168810235493757e-23,0.9996409820172956,0
27,31.363888888888887,1.0833333333333321,1.0861111111111157,1.1583333333333332,0.9352517985611501,0.034066055144788956,1.0066440611973482,61.111111111111114,0.9999999999836364,0.9376498800959273,1.985409016011519e-12,0.9996062027790796,0
28,32.45,1.0861111111111157,1.1305555555555529,1.1402777777777793,0.9524969549330113,0.033864046520561304,1.000674753009913,61.111111111111114,0.9999999999836364,0.9914738124238697,1.8717620769298504e-12,0.999562701419245,0
29,33.580555555555556,1.1305555555555529,1.1333333333333329,1.125,1.004938271604936,0.03415525400361388,1.009279866873117,63.888888888888886,1.045454545437438,1.007407407407407,9.954780055831947e-13,0.9992874636780673,0
30,34.71388888888889,1.1333333333333329,1.0833333333333357,1.125,1.007407407407407,0.034320725751900885,1.0141695188155297,63.888888888888886,1.045454545437438,0.962962962962965,4.726520824033242e-13,0.9996954305712209,0
31,35.797222222222224,1.0833333333333357,1.0916666666666615,1.125,0.962962962962965,0.03613471697016385,1.0677725403326215,66.66666666666667,1.0909090908912398,0.9703703703703658,1.5768396588455857e-09,0.9985552018854581,0
32,36.888888888888886,1.0916666666666615,1.1000000000000014,1.1111111111111072,0.9824999999999988,0.03267898408082991,0.9656564316330062,58.333333333333336,0.9545454545298347,0.9900000000000048,2.7995043688278966e-14,0.9997169279623594,0
33,37.98888888888889,1.1000000000000014,1.1666666666666714,1.0958333333333314,1.0038022813688243,0.03395433970073958,1.0033428956289148,61.111111111111114,0.9999999999836364,1.0646387832699682,1.0427208142066435e-12,0.9997339216654433,0
34,39.15555555555556,1.1666666666666714,1.1916666666666629,1.0958333333333314,1.0646387832699682,0.037176514880426496,1.0985574279539323,61.111111111111114,0.9999999999836364,1.0874524714828881,2.377184603677418e-12,0.9986621232616786,0
35,40.34722222222222,1.1916666666666629,1.1805555555555571,1.1152777777777771,1.0684931506849287,0.03767992359251829,1.1134330391225393,66.66666666666667,1.0909090908912398,1.0585305105853071,2.024476072892689e-11,0.9989406102580308,0
36,41.52777777777778,1.1805555555555571,1.1194444444444471,1.1152777777777771,1.0585305105853071,0.03406688240155888,1.0066685064438259,63.888888888888886,1.045454545437438,1.0037359900373628,3.331850854243479e-14,0.9992378315121725,0
37,42.647222222222226,1.1194444444444471,1.12222222222222,1.125,0.9950617283950641,0.03296064710671655,0.9739795089914666,58.333333333333336,0.9545454545298347,0.9975308641975289,3.747057934658064e-14,0.9967043197862802,0
38,43.769444444444446,1.12222222222222,1.1666666666666643,1.1263888888888864,0.9963008631319361,0.03337045932470964,0.9860893653776988,61.111111111111114,0.9999999999836364,1.0357583230579532,1.7885560111945142e-13,0.9997038511404333,0
39,44.93611111111111,1.1666666666666643,1.2000000000000028,1.1277777777777764,1.0344827586206888,0.032921495687326705,0.9728225935914085,58.333333333333336,0.9545454545298347,1.0640394088669989,3.5190735535420596e-15,0.9987752923126412,0
40,46.13611111111111,1.2000000000000028,1.1527777777777786,1.1444444444444422,1.048543689320393,0.038903332156654695,1.1495844796187036,66.66666666666667,1.0909090908912398,1.007281553398061,1.3364601092469286e-10,0.9978281522455048,0
41,47.28888888888889,1.1527777777777786,1.0722222222222229,1.1597222222222214,0.9940119760479056,0.03623654335773468,1.0707814865662166,61.111111111111114,0.9999999999836364,0.924550898203594,5.215073707078022e-13,0.9987137730539087,0
42,48.361111111111114,1.0722222222222229,1.0638888888888829,1.1597222222222214,0.924550898203594,0.032582617201191065,0.9628088125978035,58.333333333333336,0.9545454545298347,0.9173652694610733,9.884486214554664e-14,0.9993071414446804,0
43,49.425,1.0638888888888829,1.1166666666666671,1.1597222222222214,0.9173652694610733,0.03299341040568288,0.9749476569084916,61.111111111111114,0.9999999999836364,0.962874251497007,3.4759382872007194e-12,0.9992655378964743,0
44,50.541666666666664,1.1166666666666671,1.1583333333333385,1.1374999999999993,0.9816849816849827,0.03331752344525657,0.9845251223666073,58.333333333333336,0.9545454545298347,1.0183150183150236,3.8974167860042486e-14,0.9998170082318103,0
45,51.7,1.1583333333333385,1.0972222222222214,1.1374999999999993,1.0183150183150236,0.037005510021806125,1.0935042738791665,61.111111111111114,0.9999999999836364,0.9645909645909645,8.333346491161409e-13,0.999243193283978,0
46,52.797222222222224,1.0972222222222214,1.0944444444444414,1.1208333333333336,0.9789343246592308,0.034092729132027384,1.007432271359279,58.333333333333336,0.9545454545298347,0.9764560099132561,1.2722010673659606e-13,0.9992198919279041,0
47,53.891666666666666,1.0944444444444414,1.0805555555555557,1.1194444444444436,0.9776674937965242,0.030960271839364534,0.9148688818734337,55.55555555555556,0.9090909090760331,0.9652605459057081,8.133695285898095e-16,0.9981190683670893,0
48,54.97222222222222,1.0805555555555557,1.1166666666666671,1.1069444444444443,0.9761606022584696,0.03308942453604665,0.9777848522840914,61.111111111111114,0.9999999999836364,1.0087829360100382,6.000052342990114e-13,0.9996902190362006,0
49,56.08888888888889,1.1166666666666671,1.1638888888888914,1.1069444444444443,1.0087829360100382,0.034083739483011515,1.0071666293072243,61.111111111111114,0.9999999999836364,1.0514429109159371,5.620745839249319e-13,0.9991979449990831,0
50,57.25277777777778,1.1638888888888914,1.18055555555555,1.1069444444444443,1.0514429109159371,0.033147898814505805,0.9795127537065933,58.333333333333336,0.9545454545298347,1.066499372647423,3.0715807535516924e-15,0.9990224921658593,0
51,58.43333333333333,1.18055555555555,1.1805555555555571,1.1069444444444443,1.066499372647423,0.03817734136700097,1.1281316194685407,63.888888888888886,1.045454545437438,1.0664993726474294,1.8803868184757988e-11,0.9981871967339384,0
52,59.61388888888889,1.1805555555555571,1.1083333333333343,1.1166666666666671,1.0572139303482597,0.0323699569270946,0.9565247506169858,58.333333333333336,0.9545454545298347,0.9925373134328362,1.9169390564747243e-16,0.998482566694515,0
53,60.72222222222222,1.1083333333333343,1.1027777777777814,1.1166666666666671,0.9925373134328362,0.033364163063435884,0.9859033123113241,61.111111111111114,0.9999999999836364,0.9875621890547293,1.605861710968215e-13,0.9994244750727175,0
54,61.825,1.1027777777777814,1.18055555555555,1.1125000000000007,0.9912609238451962,0.03395495742570699,1.0033611492590242,61.111111111111114,0.9999999999836364,1.0611735330836398,1.3862794375971155e-12,0.9995043713504874,0
55,63.00555555555555,1.18055555555555,1.18888888888889,1.1125000000000007,1.0611735330836398,0.032851130116392194,0.9707433072228246,58.333333333333336,0.9545454545298347,1.0686641697877657,9.370043633951785e-16,0.9991536692288663,0
56,64.19444444444444,1.18888888888889,1.1666666666666714,1.1402777777777793,1.0426309378806329,0.03484178237493343,1.0295666216762493,63.888888888888886,1.045454545437438,1.0231425091352038,1.233207600707248e-13,0.9993845653445248,0
57,65.36111111111111,1.1666666666666714,1.1111111111111143,1.1652777777777814,1.001191895113231,0.03307027436388073,0.9772189691197567,58.333333333333336,0.9545454545298347,0.9535160905840283,1.548221855826224e-15,0.9989674646113829,0
58,66.47222222222223,1.1111111111111143,1.11388888888888,1.1652777777777814,0.9535160905840283,0.030509821059608373,0.9015581653735042,55.55555555555556,0.9090909090760331,0.9558998808104782,4.545703425998281e-16,0.9983582788442721,0
59,67.58611111111111,1.11388888888888,1.1833333333333371,1.1652777777777814,0.9558998808104782,0.03298485849748519,0.974694949996508,58.333333333333336,0.9545454545298347,1.0154946364719906,9.41668956895049e-14,0.9986077330944887,0
60,68.76944444444445,1.1833333333333371,1.1777777777777771,1.1736111111111107,1.0082840236686426,0.03278137899189313,0.9686821776044879,61.111111111111114,0.9999999999836364,1.003550295857988,4.215219651462505e-15,0.9998451127689754,0
61,69.94722222222222,1.1777777777777771,1.1416666666666657,1.1722222222222243,1.0047393364928887,0.03866205730338983,1.1424548634326483,63.888888888888886,1.045454545437438,0.973933649289097,5.7986535711984644e-11,0.9980892112940554,0
62,71.08888888888889,1.1416666666666657,1.0916666666666686,1.1541666666666686,0.9891696750902502,0.032743433876959924,0.9675609082225,58.333333333333336,0.9545454545298347,0.9458483754512637,2.4786615021219448e-15,0.9995828189119178,0
63,72.18055555555556,1.0916666666666686,1.0833333333333286,1.1541666666666686,0.9458483754512637,0.03154025453629312,0.9320072366074627,55.55555555555556,0.9090909090760331,0.9386281588447597,1.875193302367092e-15,0.9993068003736822,0
64,73.26388888888889,1.0833333333333286,1.12222222222222,1.1541666666666686,0.9386281588447597,0.03227411269022314,0.9536925755548433,61.111111111111114,0.9999999999836364,0.97232250300842,3.834858320651835e-13,0.999674844586367,0
65,74.3861111111111,1.12222222222222,1.1722222222222314,1.1319444444444429,0.9914110429447847,0.032544180106659465,0.9616730053323169,61.111111111111114,0.9999999999836364,1.0355828220858991,9.344085970469998e-14,0.9992928130856831,0
66,75.55833333333334,1.1722222222222314,1.1583333333333314,1.1319444444444429,1.0355828220858991,0.035006837519231275,1.0344439630670066,66.66666666666667,1.0909090908912398,1.0233128834355825,2.10365991119843e-12,0.9988781130650026,0
67,76.71666666666667,1.1583333333333314,1.1472222222222257,1.1319444444444429,1.0233128834355825,0.03812660264576927,1.126632301975407,66.66666666666667,1.0909090908912398,1.013496932515342,2.9859059669234966e-10,0.9987325282868138,0
68,77.8638888888889,1.1472222222222257,1.0944444444444343,1.1444444444444457,1.0024271844660213,0.03320154459946006,0.9810979742612758,58.333333333333336,0.9545454545298347,0.9563106796116406,3.049573355274368e-15,0.9992995348161009,0
69,78.95833333333333,1.0944444444444343,1.1083333333333343,1.1444444444444457,0.9563106796116406,0.03177723197888612,0.9390098653007491,58.333333333333336,0.9545454545298347,0.9684466019417474,1.9474625769433027e-14,0.9988900485650244,0
70,80.06666666666666,1.1083333333333343,1.1722222222222314,1.1319444444444429,0.9791411042944808,0.034337988252803923,1.0146796217300469,63.888888888888886,1.045454545437438,1.0355828220858991,8.0082520476088e-12,0.9995986486770816,0
71,81.2388888888889,1.1722222222222314,1.1972222222222229,1.1319444444444429,1.0355828220858991,0.03459071577663159,1.022147661685978,63.888888888888886,1.045454545437438,1.0576687116564438,3.60510747773532e-13,0.9995867200856463,0
72,82.43611111111112,1.1972222222222229,1.1527777777777715,1.1347222222222229,1.0550795593635252,0.03517424294945917,1.0393907548641448,66.66666666666667,1.0909090908912398,1.0159118727050123,5.213492398209452e-13,0.9989957600385397,0
73,83.58888888888889,1.1527777777777715,1.1055555555555543,1.1499999999999986,1.0024154589371939,0.03297886342607812,0.9745177970211273,61.111111111111114,0.9999999999836364,0.961352657004831,1.051082337214914e-14,0.9997292711347142,0
74,84.69444444444444,1.1055555555555543,1.1027777777777743,1.1499999999999986,0.961352657004831,0.0341825696241312,1.0100870371502393,63.888888888888886,1.045454545437438,0.958937198067631,4.287628845717206e-12,0.9993645879927723,0
75,85.79722222222222,1.1027777777777743,1.2222222222222285,1.1499999999999986,0.958937198067631,0.03408581973267201,1.007228100204211,63.888888888888886,1.045454545437438,1.0628019323671565,2.2369064933691618e-11,0.9995523449816168,0
76,87.01944444444445,1.2222222222222285,1.1833333333333371,1.1499999999999986,1.0628019323671565,0.03576072579301718,1.0567211874297162,63.888888888888886,1.045454545437438,1.0289855072463814,8.757971697035197e-14,0.998871463157908,0
77,88.20277777777778,1.1833333333333371,1.1027777777777743,1.1499999999999986,1.0289855072463814,0.03737160287421259,1.1043222331102966,63.888888888888886,1.045454545437438,0.958937198067631,3.552027595665752e-12,0.9983207950284296,0
78,89.30555555555556,1.1027777777777743,1.0666666666666629,1.1305555555555529,0.9754299754299747,0.0332208112267593,0.9816672986479021,61.111111111111114,0.9999999999836364,0.9434889434889424,1.1546331653376068e-13,0.9998364993000866,0
79,90.37222222222222,1.0666666666666629,1.0666666666666629,1.1305555555555529,0.9434889434889424,0.03370965840391041,0.9961126198223301,63.888888888888886,1.045454545437438,0.9434889434889424,2.0890905325088305e-11,0.9987155572754602,0
80,91.43888888888888,1.0666666666666629,1.0833333333333428,1.1291666666666629,0.9446494464944648,0.03210171436088237,0.9485982447421433,61.111111111111114,0.9999999999836364,0.9594095940959526,3.848384555905221e-13,0.9996695862670915,0
81,92.52222222222223,1.0833333333333428,1.11666666666666,1.1041666666666643,0.9811320754717088,0.03879819132796516,1.1464775924155963,63.888888888888886,1.045454545437438,1.0113207547169774,1.0267823036258505e-08,0.9977170096591612,0
82,93.63888888888889,1.11666666666666,1.1027777777777743,1.1041666666666643,1.0113207547169774,0.035443090587223475,1.047335140463596,66.66666666666667,1.0909090908912398,0.9987421383647789,3.946547255662125e-11,0.9989578050893809,0
83,94.74166666666666,1.1027777777777743,1.1027777777777885,1.1027777777777743,1.0,0.0339582620062321,1.003458798850273,63.888888888888886,1.045454545437438,1.0000000000000129,1.8962836943053896e-12,0.9996346626000485,0
84,95.84444444444445,1.1027777777777885,1.0722222222222229,1.1027777777777743,1.0000000000000129,0.03374077921536503,0.9970322326127541,61.111111111111114,0.9999999999836364,0.972292191435772,1.7704349271341346e-13,0.9995869716312588,0
85,96.91666666666667,1.0722222222222229,1.0805555555555486,1.1027777777777743,0.972292191435772,0.03214428458561177,0.9498561850503343,58.333333333333336,0.9545454545298347,0.9798488664987374,3.4934948949525216e-14,0.9996301490227665,0
86,97.99722222222222,1.0805555555555486,1.1472222222222257,1.0930555555555586,0.9885641677255309,0.033697939870893576,0.9957663398783447,61.111111111111114,0.9999999999836364,1.049555273189327,1.650205579822872e-12,0.9998794927971364,0
87,99.14444444444445,1.1472222222222257,1.1694444444444372,1.0930555555555586,1.049555273189327,0.03481310550796295,1.0287192268808472,61.111111111111114,0.9999999999836364,1.0698856416772458,2.749183530565552e-13,0.998529111275906,0
88,100.31388888888888,1.1694444444444372,1.1416666666666657,1.0930555555555586,1.0698856416772458,0.033765662337642194,0.9977675231287205,61.111111111111114,0.9999999999836364,1.0444726810673406,1.4514304268555857e-14,0.9982073487467706,0
89,101.45555555555555,1.1416666666666657,1.0722222222222229,1.1027777777777814,1.0352644836271998,0.0377944197361863,1.1168163737224375,63.888888888888886,1.045454545437438,0.9722921914357656,3.208116064468136e-11,0.9984913395821474,0
90,102.52777777777777,1.0722222222222229,1.063888888888897,1.1027777777777814,0.9722921914357656,0.03259730854585867,0.9632429384394307,58.333333333333336,0.9545454545298347,0.9647355163728002,4.3930296547830747e-14,0.999717732366262,0
91,103.59166666666667,1.063888888888897,1.1361111111111057,1.1027777777777814,0.9647355163728002,0.03353360398827774,0.990910252504161,61.111111111111114,0.9999999999836364,1.030226700251881,4.1975589670784075e-12,0.9992366577763427,0
92,104.72777777777777,1.1361111111111057,1.1500000000000057,1.1027777777777814,1.030226700251881,0.035404075712185554,1.0461822599175992,66.66666666666667,1.0909090908912398,1.042821158690178,2.1595161422971465e-11,0.9986572325927441,0
93,105.87777777777778,1.1500000000000057,1.1333333333333258,1.1194444444444471,1.027295285359804,0.03768073274717239,1.1134569494556754,63.888888888888886,1.045454545437438,1.0124069478908098,3.725769692763947e-11,0.9980967082283623,0
94,107.0111111111111,1.1333333333333258,1.1138888888888943,1.1347222222222157,0.9987760097919207,0.03444710350893754,1.0179039523461422,63.888888888888886,1.045454545437438,0.9816401468788353,9.200944043122328e-13,0.9996959237237539,0
95,108.125,1.1138888888888943,1.0888888888888886,1.1347222222222157,0.9816401468788353,0.032861569876206344,0.9710517997140325,58.333333333333336,0.9545454545298347,0.9596083231334201,1.0651042053270564e-14,0.9996551227089714,0
96,109.21388888888889,1.0888888888888886,1.1472222222222257,1.1347222222222157,0.9596083231334201,0.03361161646488724,0.9932155031692137,61.111111111111114,0.9999999999836364,1.0110159118727138,1.468902256773763e-12,0.9994772004745764,0
97,110.36111111111111,1.1472222222222257,1.1833333333333371,1.1347222222222157,1.0110159118727138,0.034900486590075136,1.0313013176746115,63.888888888888886,1.045454545437438,1.042839657282751,2.3289211271287913e-12,0.9989932283138385,0
98,111.54444444444445,1.1833333333333371,1.1583333333333314,1.1347222222222157,1.042839657282751,0.0353929972846176,1.0458548949417812,66.66666666666667,1.0909090908912398,1.0208078335373358,1.8978252129542295e-12,0.99864695827714,0
99,112.70277777777778,1.1583333333333314,1.1277777777777658,1.1347222222222157,1.0208078335373358,0.03329613288742994,0.9838930363234668,58.333333333333336,0.9545454545298347,0.9938800489596035,2.447112912968511e-15,0.9993611858459106,0
100,113.83055555555555,1.1277777777777658,1.0861111111111228,1.1347222222222157,0.9938800489596035,0.03421021615704755,1.0109039858123212,61.111111111111114,0.9999999999836364,0.957160342717274,1.268464771154304e-13,0.9994678901697784,0
101,114.91666666666667,1.0861111111111228,1.0805555555555486,1.1347222222222157,0.957160342717274,0.0331051618282198,0.9782498856329219,58.333333333333336,0.9545454545298347,0.9522643818849442,7.536233735585401e-14,0.9991926805490695,0
102,115.99722222222222,1.0805555555555486,1.13611111111112,1.1305555555555458,0.9557739557739579,0.03251826213448672,0.9609071352409582,58.333333333333336,0.9545454545298347,1.0049140049140215,1.2225539591098622e-13,0.9989547174993348,0
103,117.13333333333334,1.13611111111112,1.1499999999999915,1.1305555555555458,1.0049140049140215,0.035773463411917165,1.0570975811261676,66.66666666666667,1.0909090908912398,1.0171990171990184,4.1334772410417386e-11,0.998890085498209,0
104,118.28333333333333,1.1499999999999915,1.1472222222222257,1.1319444444444429,1.0159509202453927,0.03425059833795455,1.012097269930939,63.888888888888886,1.045454545437438,1.013496932515342,4.589593136962444e-13,0.9992246994660556,0
105,119.43055555555556,1.1472222222222257,1.0888888888888886,1.1416666666666728,1.0048661800486594,0.03332658194258645,0.9847927988704389,61.111111111111114,0.9999999999836364,0.9537712895377075,2.2574679959023146e-14,0.9987329359052404,0
106,120.51944444444445,1.0888888888888886,1.0888888888888886,1.1416666666666728,0.9537712895377075,0.03364156140533374,0.994100369242942,61.111111111111114,0.9999999999836364,0.9537712895377075,6.442581928015056e-13,0.9998311165305978,0
107,121.60833333333333,1.0888888888888886,1.1416666666666657,1.1319444444444429,0.9619631901840502,0.03300768087645181,0.9753693460236235,61.111111111111114,0.9999999999836364,1.0085889570552153,6.149172967692684e-13,0.9997055686583782,0
108,122.75,1.1416666666666657,1.1888888888888829,1.1319444444444429,1.0085889570552153,0.035342456605672215,1.0443614295524657,63.888888888888886,1.045454545437438,1.0503067484662538,5.203173395612604e-12,0.9992981002688488,0
109,123.93888888888888,1.1888888888888829,1.1472222222222257,1.1319444444444429,1.0503067484662538,0.03433555881704826,1.0146078324646006,63.888888888888886,1.045454545437438,1.013496932515342,4.276884158242386e-14,0.9995858644565172,0
110,125.08611111111111,1.1472222222222257,1.0972222222222285,1.1388888888888928,1.0073170731707313,0.03221991221794804,0.9520909641179472,58.333333333333336,0.9545454545298347,0.9634146341463437,9.203965883983634e-16,0.999535898800947,0
111,126.18333333333334,1.0972222222222285,1.0944444444444343,1.1388888888888928,0.9634146341463437,0.03418208239356733,1.0100726395996138,63.888888888888886,1.045454545437438,0.9609756097560853,6.420823074615445e-12,0.999004434403651,0
112,127.27777777777777,1.0944444444444343,1.13611111111112,1.1388888888888928,0.9609756097560853,0.033215583305264036,0.9815128147752246,61.111111111111114,0.9999999999836364,0.9975609756097604,5.822786371990907e-13,0.9996063061184266,0
113,128.4138888888889,1.13611111111112,1.1972222222222229,1.1388888888888928,0.9975609756097604,0.034443405851707166,1.0177946874290429,63.888888888888886,1.045454545437438,1.0512195121951189,4.141422014353191e-12,0.9985246417118339,0
114,129.61111111111111,1.1972222222222229,1.1666666666666572,1.1388888888888928,1.0512195121951189,0.03352631992605564,0.990695010147918,61.111111111111114,0.9999999999836364,1.024390243902427,2.5830498425415648e-15,0.9998756777631431,0
115,130.77777777777777,1.1666666666666572,1.1388888888888857,1.1388888888888928,1.024390243902427,0.03492904876831408,1.0321453234444868,63.888888888888886,1.045454545437438,0.9999999999999938,3.361041100383849e-13,0.9995165963513377,0
116,131.91666666666666,1.1388888888888857,1.1138888888889085,1.1402777777777757,0.9987819732034096,0.03291799835940015,0.9727192483589665,58.333333333333336,0.9545454545298347,0.976857490864818,4.387166069205707e-15,0.9993725691529098,0
117,133.03055555555557,1.1138888888889085,1.1222222222222058,1.1402777777777757,0.976857490864818,0.033128849790687386,0.9789498594525647,58.333333333333336,0.9545454545298347,0.9841656516443236,2.717578325729924e-14,0.9993290950321458,0
118,134.15277777777777,1.1222222222222058,1.1527777777777715,1.1375000000000028,0.9865689865689696,0.03401748176266315,1.0052087289746594,63.888888888888886,1.045454545437438,1.0134310134310054,1.908981436468671e-12,0.9995162145557741,0
119,135.30555555555554,1.1527777777777715,1.1777777777777771,1.1375000000000028,1.0134310134310054,0.036018126963809606,1.0643273325739706,66.66666666666667,1.0909090908912398,1.0354090354090322,3.9111471006325615e-11,0.9983444084792991,0
120,136.48333333333332,1.1777777777777771,1.1333333333333542,1.1375000000000028,1.0354090354090322,0.036180160243153285,1.0691153785533007,69.44444444444444,1.1363636363450413,0.9963369963370122,4.3984611092229287e-11,0.9985638229134922,0
121,137.61666666666667,1.1333333333333542,1.0972222222222285,1.1375000000000028,0.9963369963370122,0.034797219584085,1.0282498014994694,61.111111111111114,0.9999999999836364,0.9645909645909677,2.36832200985887e-13,0.99922280042604,0
122,138.7138888888889,1.0972222222222285,1.0861111111111086,1.1375000000000028,0.9645909645909677,0.03333778061793832,0.9851237171404977,61.111111111111114,0.9999999999836364,0.9548229548229502,3.047500674122766e-13,0.9993988594308423,0
123,139.8,1.0861111111111086,1.1305555555555316,1.13611111111112,0.9559902200488901,0.03264454260600809,0.9646386940070643,58.333333333333336,0.9545454545298347,0.9951100244498489,8.078307039147484e-14,0.999518844050754,0
124,140.93055555555554,1.1305555555555316,1.1972222222222229,1.1319444444444429,0.9987730061349496,0.03484026100365063,1.029521665506238,66.66666666666667,1.0909090908912398,1.0576687116564438,4.68074433379595e-11,0.9984970955409731,0
125,142.12777777777777,1.1972222222222229,1.1444444444444457,1.1319444444444429,1.0576687116564438,0.033093331017079196,0.9779002878963123,58.333333333333336,0.9545454545298347,1.0110429447852787,1.9717551907029804e-16,0.9999083489808605,0
126,143.2722222222222,1.1444444444444457,1.0861111111111086,1.1319444444444429,1.0110429447852787,0.03381868226607291,0.9993342497676884,61.111111111111114,0.9999999999836364,0.9595092024539869,5.004257777477608e-14,0.9981133607075355,0
127,144.35833333333332,1.0861111111111086,1.0916666666666686,1.1319444444444429,0.9595092024539869,0.03683674240314342,1.088517229728408,61.111111111111114,0.9999999999836364,0.9644171779141134,4.838694722675285e-11,0.9987428486683836,0
128,145.45,1.0916666666666686,1.1388888888889142,1.1319444444444429,0.9644171779141134,0.03483779609460835,1.0294488280133656,63.888888888888886,1.045454545437438,1.006134969325177,3.360249578587826e-11,0.9988840639719698,0
129,146.5888888888889,1.1388888888889142,1.2138888888888744,1.1319444444444429,1.006134969325177,0.03555538173699886,1.0506533180032605,63.888888888888886,1.045454545437438,1.0723926380367985,1.6619568568576604e-11,0.9984358466804502,0
130,147.80277777777778,1.2138888888888744,1.186111111111103,1.1319444444444429,1.0723926380367985,0.03522426262437023,1.0408688247045834,66.66666666666667,1.0909090908912398,1.0478527607361905,3.814934479429155e-13,0.998806835666807,0
131,148.98888888888888,1.186111111111103,1.1333333333333542,1.1347222222222229,1.0452876376988907,0.03389881928023292,1.0017022800266484,63.888888888888886,1.045454545437438,0.9987760097919395,3.1440812681225033e-14,0.9991309738653804,0
132,150.12222222222223,1.1333333333333542,1.1444444444444457,1.1361111111111342,0.997555012224937,0.0345801682563078,1.0218359848966,63.888888888888886,1.045454545437438,1.007334963325164,2.34827088330114e-12,0.9986466099452834,0
133,151.26666666666668,1.1444444444444457,1.163888888888863,1.14166666666668,1.0024330900243204,0.033197404683076685,0.9809756406883551,61.111111111111114,0.9999999999836364,1.0194647201946128,4.2426457312616517e-14,0.9996986597725379,0
134,152.43055555555554,1.163888888888863,1.188888888888897,1.1444444444444457,1.0169902912621123,0.035266709514783424,1.0421231205122174,63.888888888888886,1.045454545437438,1.0388349514563167,2.5063286949317254e-12,0.9977406121239258,0
135,153.61944444444444,1.188888888888897,1.1750000000000114,1.1444444444444457,1.0388349514563167,0.03412250946751629,1.0083122733945296,66.66666666666667,1.0909090908912398,1.0266990291262224,3.4386794627028205e-13,0.9993815885007884,0
136,154.79444444444445,1.1750000000000114,1.10833333333332,1.1541666666666544,1.0180505415162662,0.034050481331498045,1.0061838586117287,63.888888888888886,1.045454545437438,0.9602888086642587,7.479026485580562e-14,0.9990381701082509,0
137,155.90277777777777,1.10833333333332,1.0888888888889028,1.1541666666666544,0.9602888086642587,0.03423319253405673,1.011582932446025,63.888888888888886,1.045454545437438,0.943441636582453,3.852433129447608e-12,0.9990636065116132,0
138,156.99166666666667,1.0888888888889028,1.0888888888888744,1.1541666666666544,0.943441636582453,0.036804901216548384,1.0875763300189718,63.888888888888886,1.045454545437438,0.9434416365824283,5.194343843939464e-10,0.9982717096844504,0
139,158.08055555555555,1.0888888888888744,1.1388888888888857,1.1541666666666544,0.9434416365824283,0.03432692098310134,1.0143525864665737,66.66666666666667,1.0909090908912398,0.9867629362214277,2.1912122116773958e-10,0.999069467043121,0
140,159.21944444444443,1.1388888888888857,1.1777777777777771,1.1416666666666657,0.9975669099756672,0.03398527680948638,1.0042570800467532,63.888888888888886,1.045454545437438,1.031630170316302,1.5107883477236128e-12,0.998536986951491,0
141,160.3972222222222,1.1777777777777771,1.1222222222222342,1.1416666666666657,1.031630170316302,0.03534062464979424,1.0443072956794035,63.888888888888886,1.045454545437438,0.982968369829695,3.142967385915546e-13,0.9987892467915097,0
142,161.51944444444445,1.1222222222222342,1.0777777777777828,1.1416666666666657,0.982968369829695,0.034474269588232444,1.018706703714682,63.888888888888886,1.045454545437438,0.9440389294403945,1.2463773502863207e-12,0.9996354137185512,0
143,162.59722222222223,1.0777777777777828,1.1055555555555543,1.13055555555556,0.9533169533169541,0.032680457225414856,0.965699962715235,61.111111111111114,0.9999999999836364,0.977886977886973,5.164787326115972e-13,0.9995826105228169,0
144,163.70277777777778,1.1055555555555543,1.1722222222222172,1.1152777777777771,0.9912826899128263,0.03547940072565442,1.048408096667577,63.888888888888886,1.045454545437438,1.0510585305105813,4.3326651294472995e-11,0.9987424046355011,0
145,164.875,1.1722222222222172,1.2055555555555486,1.1152777777777771,1.0510585305105813,0.03517776750722809,1.0394949047321393,66.66666666666667,1.0909090908912398,1.0809464508094588,6.590751382151705e-12,0.9981413652635664,0
146,166.08055555555555,1.2055555555555486,1.1611111111111256,1.1152777777777771,1.0809464508094588,0.03586086326430653,1.059680226577287,63.888888888888886,1.045454545437438,1.0410958904109726,1.6516720987864303e-13,0.9984245301108311,0
147,167.24166666666667,1.1611111111111256,1.0861111111111086,1.13055555555556,1.0270270270270359,0.03353664487778625,0.9910001100867748,61.111111111111114,0.9999999999836364,0.9606879606879547,7.647348025825989e-15,0.9995964528730452,0
148,168.32777777777778,1.0861111111111086,1.1111111111111143,1.13055555555556,0.9606879606879547,0.03386815180277084,1.0007960631509962,61.111111111111114,0.9999999999836364,0.9828009828009817,1.3221841156652037e-12,0.9995118953175357,0
149,169.4388888888889,1.1111111111111143,1.1333333333333258,1.13055555555556,0.9828009828009817,0.03478678244006588,1.0279413863044007,66.66666666666667,1.0909090908912398,1.0024570024569919,4.7303133632325967e-11,0.9990924069660597,0
150,170.57222222222222,1.1333333333333258,1.1694444444444514,1.12777777777778,1.0049261083743755,0.034216533949765385,1.0110906751278952,63.888888888888886,1.045454545437438,1.036945812807886,2.0258154962565778e-12,0.9986822660379904,0
151,171.74166666666667,1.1694444444444514,1.1583333333333314,1.12777777777778,1.036945812807886,0.035956983653040626,1.0625205618631872,66.66666666666667,1.0909090908912398,1.0270935960591097,1.2456055284437717e-11,0.9974411963530556,0
152,172.9,1.1583333333333314,1.1166666666666742,1.1458333333333286,1.0109090909090934,0.033185238167805435,0.9806161229722234,61.111111111111114,0.9999999999836364,0.9745454545454652,9.909020862685063e-15,0.9998631977967911,0
153,174.01666666666668,1.1166666666666742,1.1111111111110858,1.1458333333333286,0.9745454545454652,0.03454158380768809,1.0206958233518446,63.888888888888886,1.045454545437438,0.9696969696969516,3.1093875304394336e-12,0.9996060580342563,0
154,175.12777777777777,1.1111111111110858,1.13055555555556,1.1458333333333286,0.9696969696969516,0.03613943569295214,1.067911977501119,61.111111111111114,0.9999999999836364,0.9866666666666746,8.545284271854747e-12,0.9988202642398907,0
155,176.25833333333333,1.13055555555556,1.1666666666666856,1.1319444444444429,0.9987730061349747,0.034640145788150944,1.023608307109388,63.888888888888886,1.045454545437438,1.0306748466257851,2.8839469874697432e-12,0.9994615939998639,0
156,177.425,1.1666666666666856,1.1833333333333087,1.1319444444444429,1.0306748466257851,0.0350534115946033,1.0358202162369066,63.888888888888886,1.045454545437438,1.0453987730061147,7.151774832070412e-13,0.999453027984664,0
157,178.60833333333332,1.1833333333333087,1.125,1.1319444444444429,1.0453987730061147,0.03382812836468239,0.9996133797998069,61.111111111111114,0.9999999999836364,0.993865030674848,4.296963836586702e-15,0.9998093666274925,0
158,179.73333333333332,1.125,1.0666666666666913,1.1319444444444429,0.993865030674848,0.03260589399661481,0.9634966365262692,58.333333333333336,0.9545454545298347,0.9423312883435814,3.9249567070315065e-15,0.9989204055795788,0
159,180.8,1.0666666666666913,1.0666666666666629,1.1319444444444429,0.9423312883435814,0.03707709214380183,1.0956195090506184,63.888888888888886,1.045454545437438,0.9423312883435563,1.791977566334424e-09,0.9984525751466963,0
160,181.86666666666667,1.0666666666666629,1.1333333333333258,1.12777777777778,0.9458128078817681,0.03324389460126543,0.9823494070329273,61.111111111111114,0.9999999999836364,1.0049261083743755,2.675831561535502e-12,0.9996299096154435,0
161,183.0,1.1333333333333258,1.1916666666666629,1.12777777777778,1.0049261083743755,0.03653457371184201,1.0795882146931914,66.66666666666667,1.0909090908912398,1.0566502463054133,3.4913305579920006e-10,0.997964305330411,0
162,184.19166666666666,1.1916666666666629,1.1277777777777942,1.12777777777778,1.0566502463054133,0.03492438956124452,1.0320076449517313,61.111111111111114,0.9999999999836364,1.0000000000000127,1.925534079785015e-14,0.9980191293298875,0
163,185.31944444444446,1.1277777777777942,1.0777777777777544,1.129166666666677,0.9987699876998823,0.0324690860703191,0.9594539939031368,58.333333333333336,0.9545454545298347,0.9544895448954195,2.380552216940321e-15,0.9997446457422674,0
164,186.3972222222222,1.0777777777777544,1.1027777777777885,1.129166666666677,0.9544895448954195,0.03647090058525778,1.077706688509386,58.333333333333336,0.9545454545298347,0.9766297662976635,1.436658604581087e-11,0.9980176404367223,0
165,187.5,1.1027777777777885,1.180555555555543,1.126388888888897,0.9790382244143058,0.033258523626543475,0.982781691350987,58.333333333333336,0.9545454545298347,1.0480887792848146,1.1676286836275612e-13,0.9997549523806399,0
166,188.68055555555554,1.180555555555543,1.194444444444457,1.126388888888897,1.0480887792848146,0.0350119753437176,1.0345957845938798,63.888888888888886,1.045454545437438,1.0604192355117175,3.645280420832425e-13,0.999283470230593,0
167,189.875,1.194444444444457,1.1583333333333314,1.126388888888897,1.0604192355117175,0.03246742379751914,0.9594048741258379,58.333333333333336,0.9545454545298347,1.0283600493218157,1.6044815724246177e-16,0.9994558985123896,0
168,191.03333333333333,1.1583333333333314,1.1083333333333485,1.13055555555556,1.024570024570019,0.03440641139255902,1.0167015097059278,63.888888888888886,1.045454545437438,0.98034398034399,1.8447537334514985e-13,0.9995056379451115,0
169,192.14166666666668,1.1083333333333485,1.1055555555555543,1.13055555555556,0.98034398034399,0.033697306151577164,0.9957476136189166,61.111111111111114,0.9999999999836364,0.977886977886973,2.5524089677757267e-13,0.9997019387375523,0
170,193.24722222222223,1.1055555555555543,1.1416666666666515,1.13055555555556,0.977886977886973,0.03362939717269952,0.9937409189782074,58.333333333333336,0.9545454545298347,1.0098280098279924,9.650633970344907e-14,0.9991904349313873,0
171,194.38888888888889,1.1416666666666515,1.1694444444444514,1.1347222222222229,1.0061199510403778,0.03795176339130557,1.121465842389112,61.111111111111114,0.9999999999836364,1.030599755201964,9.982874249470086e-11,0.9949829926649172,0
172,195.55833333333334,1.1694444444444514,1.1638888888888914,1.1347222222222229,1.030599755201964,0.03375197320760849,0.9973630124980409,61.111111111111114,0.9999999999836364,1.0257037943696468,2.9813926663829066e-14,0.9981684455934855,0
173,196.72222222222223,1.1638888888888914,1.1361111111110915,1.1499999999999915,1.012077294686,0.03569926337400027,1.0549049871439118,66.66666666666667,1.0909090908912398,0.987922705314,7.705766580379247e-12,0.9989919735146355,0
174,197.85833333333332,1.1361111111110915,1.075000000000017,1.1499999999999915,0.987922705314,0.032965101118082915,0.9741111239985873,58.333333333333336,0.9545454545298347,0.934782608695674,4.8386202305321455e-15,0.9985732846089832,0
175,198.93333333333334,1.075000000000017,1.1055555555555543,1.1499999999999915,0.934782608695674,0.03815039167945563,1.1273352624262198,63.888888888888886,1.045454545437438,0.961352657004837,1.0486446377910852e-08,0.9981161118703621,0
176,200.0388888888889,1.1055555555555543,1.1611111111110972,1.1388888888888715,0.9707317073170869,0.03328351293253736,0.9835201195712571,61.111111111111114,0.9999999999836364,1.0195121951219546,5.031038519814901e-13,0.9993554694893545,0
177,201.2,1.1611111111110972,1.194444444444457,1.1388888888888715,1.0195121951219546,0.035658204036698705,1.0536916932102394,66.66666666666667,1.0909090908912398,1.0487804878049052,1.6481146308811034e-11,0.9989658204246487,0
178,202.39444444444445,1.194444444444457,1.1500000000000057,1.1388888888888715,1.0487804878049052,0.033531528827522035,0.9908489319831356,61.111111111111114,0.9999999999836364,1.009756097560996,2.338046197822969e-15,0.9998376176122248,0
179,203.54444444444445,1.1500000000000057,1.0944444444444343,1.1458333333333286,1.0036363636363728,0.034000221603701655,1.0046986952639738,61.111111111111114,0.9999999999836364,0.9551515151515103,3.1361272899346065e-14,0.9997527028290051,0
180,204.63888888888889,1.0944444444444343,1.11388888888888,1.1458333333333286,0.9551515151515103,0.03213428965708546,0.9495608372209382,58.333333333333336,0.9545454545298347,0.9721212121212084,3.215302847646255e-14,0.9988438404291091,0
181,205.75277777777777,1.11388888888888,1.2166666666666686,1.1430555555555486,0.974483596597811,0.03778703396751793,1.1165981259641986,63.888888888888886,1.045454545437438,1.0643985419198136,1.3005831966950154e-09,0.9986293562760018,0
182,206.96944444444443,1.2166666666666686,1.2083333333333428,1.1430555555555486,1.0643985419198136,0.0342433001915367,1.0118816113899645,63.888888888888886,1.045454545437438,1.057108140947767,2.62882265597824e-14,0.9992688860499847,0
183,208.17777777777778,1.2083333333333428,1.1722222222222172,1.1430555555555486,1.057108140947767,0.033393837768801525,0.98678019300083,61.111111111111114,0.9999999999836364,1.0255164034021889,1.640978528055911e-15,0.999298350462605,0
184,209.35,1.1722222222222172,1.11944444444444,1.1555555555555515,1.0144230769230762,0.034289751628608624,1.0132542406264227,63.888888888888886,1.045454545437438,0.9687499999999997,1.1025407068441032e-13,0.9996026451398636,0
185,210.46944444444443,1.11944444444444,1.1388888888888857,1.1555555555555515,0.9687499999999997,0.03318437422323763,0.9805905936097925,61.111111111111114,0.9999999999836364,0.9855769230769238,2.1022951175037052e-13,0.9989206448394091,0
186,211.60833333333332,1.1388888888888857,1.1861111111111313,1.1555555555555515,0.9855769230769238,0.035551443118757,1.0505369327439271,63.888888888888886,1.045454545437438,1.0264423076923288,1.2145113040262778e-11,0.9985043928085844,0
187,212.79444444444445,1.1861111111111313,1.1666666666666572,1.1611111111111114,1.021531100478486,0.03542958635968331,1.046936093658893,63.888888888888886,1.045454545437438,1.0047846889952068,4.642666459608868e-13,0.9988155870078261,0
188,213.9611111111111,1.1666666666666572,1.1666666666666572,1.1583333333333314,1.00719424460431,0.03400868893184242,1.0049489028548113,63.888888888888886,1.045454545437438,1.00719424460431,2.5294851391417794e-13,0.9989461155788742,0
189,215.12777777777777,1.1666666666666572,1.080555555555577,1.1666666666666572,1.0,0.035620538480680114,1.052578684729608,63.888888888888886,1.045454545437438,0.9261904761905021,9.409548877917229e-13,0.998364252088846,0
190,216.20833333333334,1.080555555555577,1.0666666666666629,1.1666666666666572,0.9261904761905021,0.03272582621181722,0.9670406057844244,58.333333333333336,0.9545454545298347,0.9142857142857185,7.061389098233714e-14,0.999565175379874,0
191,217.275,1.0666666666666629,1.10833333333332,1.1666666666666572,0.9142857142857185,0.03340020062402405,0.9869682139030093,61.111111111111114,0.9999999999836364,0.9499999999999963,4.099970796894725e-12,0.9995478323166129,0
192,218.38333333333333,1.10833333333332,1.1805555555555713,1.1527777777777715,0.9614457831325239,0.03463870638849703,1.023565773182077,66.66666666666667,1.0909090908912398,1.024096385542188,1.243296576802777e-10,0.9990469354290804,0
193,219.5638888888889,1.1805555555555713,1.169444444444423,1.1527777777777715,1.024096385542188,0.033572321942070736,0.992054359095951,63.888888888888886,1.045454545437438,1.014457831325288,5.972406271793906e-14,0.9991754004502911,0
194,220.73333333333332,1.169444444444423,1.1138888888889085,1.1527777777777715,1.014457831325288,0.0344185251895883,1.0170594696101858,66.66666666666667,1.0909090908912398,0.9662650602409861,7.763637280798485e-13,0.9995208646973165,0
195,221.84722222222223,1.1138888888889085,1.0638888888888687,1.1527777777777715,0.9662650602409861,0.03178936431570757,0.9393683730515836,55.55555555555556,0.9090909090760331,0.9228915662650478,8.963805573657438e-16,0.9977609143434389,0
196,222.9111111111111,1.0638888888888687,1.1027777777777885,1.1402777777777828,0.9330085261875543,0.032810517368000884,0.9695432098883006,58.333333333333336,0.9545454545298347,0.967113276492088,2.9365607710253594e-13,0.9991378983684474,0
197,224.01388888888889,1.1027777777777885,1.1666666666666572,1.1111111111111143,0.9925000000000068,0.03354322106983038,0.9911944350427576,63.888888888888886,1.045454545437438,1.0499999999999885,3.3625686870347726e-12,0.9996646365693193,0
198,225.18055555555554,1.1666666666666572,1.1527777777777999,1.1111111111111143,1.0499999999999885,0.03368354078772658,0.9953408502965563,61.111111111111114,0.9999999999836364,1.037500000000017,1.2479388927940337e-14,0.9996686446469669,0
199,226.33333333333334,1.1527777777777999,1.1222222222222058,1.1111111111111143,1.037500000000017,0.033943495969391016,1.0030224658721716,61.111111111111114,0.9999999999836364,1.0099999999999822,2.6246242524718792e-14,0.9993843318535108,0
200,227.45555555555555,1.1222222222222058,0.6972222222222229,1.1180555555555571,1.003726708074518,0.03276673823935718,0.9682495467486656,58.333333333333336,0.9545454545298347,0.6236024844720494,2.286909548247806e-16,0.9991504421837816,0
201,228.15277777777777,0.6972222222222229,1.4416666666666629,1.1180555555555571,0.6236024844720494,0.045614500838619204,1.3478979640735256,186.11111111111111,3.0454545454047106,1.2894409937888147,0.9821982979774475,0.2888360174938674,1
202,229.59444444444443,1.4416666666666629,1.14166666666668,1.1375000000000028,1.267399267399261,0.03326374545908086,0.9829359952963656,61.111111111111114,0.9999999999836364,1.0036630036630128,1.1299335635088375e-21,0.9997650786700103,0
203,230.73611111111111,1.14166666666668,1.1527777777777715,1.1319444444444429,1.0085889570552278,0.03583108016163358,1.0588001427723874,66.66666666666667,1.0909090908912398,1.018404907975456,4.565483061047537e-11,0.9980529390317585,0
204,231.88888888888889,1.1527777777777715,1.13611111111112,1.1319444444444429,1.018404907975456,0.03455203533318077,1.0210046635161354,63.888888888888886,1.045454545437438,1.0036809815951013,4.954041192030412e-13,0.9991721955826667,0
205,233.025,1.13611111111112,1.10277777777776,1.1388888888889,0.9975609756097542,0.03335925518324933,0.9857582855853981,61.111111111111114,0.9999999999836364,0.9682926829268044,4.0580091506059804e-14,0.9994115874897895,0
206,234.12777777777777,1.10277777777776,1.0833333333333428,1.1388888888889,0.9682926829268044,0.034593468210670546,1.0222289954760917,61.111111111111114,0.9999999999836364,0.951219512195121,8.883126981391876e-13,0.9993774765152084,0
207,235.2111111111111,1.0833333333333428,1.1277777777777942,1.1388888888889,0.951219512195121,0.03329030557683311,0.9837208406412805,61.111111111111114,0.9999999999836364,0.9902439024390292,1.2495477742791028e-12,0.9992294748387013,0
208,236.3388888888889,1.1277777777777942,1.180555555555543,1.131944444444457,0.9963190184049113,0.03300190659694911,0.9751987173980201,61.111111111111114,0.9999999999836364,1.0429447852760507,1.0384847550035797e-13,0.9999051505231956,0
209,237.51944444444445,1.180555555555543,1.180555555555543,1.131944444444457,1.0429447852760507,0.03428202183926691,1.0130258271367458,63.888888888888886,1.045454545437438,1.0429447852760507,1.3111786775679007e-13,0.9992427506731444,0
210,238.7,1.180555555555543,1.1277777777777942,1.1388888888889,1.0365853658536375,0.03344648475018159,0.9883358991405916,63.888888888888886,1.045454545437438,0.9902439024390292,2.308358921219479e-14,0.9994329764155896,0
211,239.82777777777778,1.1277777777777942,1.0916666666666686,1.1388888888889,0.9902439024390292,0.03306856598938523,0.9771684870480026,61.111111111111114,0.9999999999836364,0.9585365853658461,4.724778578904694e-14,0.99904183788076,0
212,240.91944444444445,1.0916666666666686,1.0916666666666686,1.131944444444457,0.9644171779141013,0.031660645489926434,0.9355647614802949,55.55555555555556,0.9090909090760331,0.9644171779141013,2.0540830609371745e-15,0.9991115647003583,0
213,242.01111111111112,1.0916666666666686,1.1972222222222229,1.1277777777777942,0.96798029556649,0.03314087252955806,0.9793051286092679,61.111111111111114,0.9999999999836364,1.061576354679788,1.5562979507541264e-12,0.9995262853600493,0
214,243.20833333333334,1.1972222222222229,1.1722222222222172,1.1277777777777942,1.061576354679788,0.03300038420346594,0.9751537310222237,61.111111111111114,0.9999999999836364,1.0394088669950543,1.702985574959662e-15,0.9994075378835605,0
215,244.38055555555556,1.1722222222222172,0.7249999999999943,1.1277777777777942,1.0394088669950543,0.03279975665734294,0.9692252333737895,55.55555555555556,0.9090909090760331,0.6428571428571285,1.6132562423240343e-18,0.9997430071811552,0
216,245.10555555555555,0.7249999999999943,1.4250000000000114,1.1277777777777942,0.6428571428571285,0.044636864701868055,1.3190090420398568,180.55555555555554,2.954545454497107,1.2635467980295483,0.9808494448661804,0.29111824419553156,1
217,246.53055555555557,1.4250000000000114,1.0583333333333371,1.1500000000000057,1.2391304347826124,0.03139577748012527,0.9277379729679689,58.333333333333336,0.9545454545298347,0.9202898550724625,2.0391240295508967e-23,0.9983620007344526,0
218,247.5888888888889,1.0583333333333371,1.1305555555555316,1.1500000000000057,0.9202898550724625,0.032185375788541415,0.9510704206059563,58.333333333333336,0.9545454545298347,0.9830917874395878,4.14240717465722e-13,0.9983627563186368,0
219,248.71944444444443,1.1305555555555316,1.1027777777777885,1.1291666666666629,1.001230012300105,0.03571342695222593,1.055323517609079,63.888888888888886,1.045454545437438,0.9766297662976757,5.094541108419115e-12,0.9989066078283511,0
220,249.82222222222222,1.1027777777777885,1.1027777777777885,1.1152777777777914,0.9887920298879179,0.03316441975368967,0.9800009436435893,61.111111111111114,0.9999999999836364,0.9887920298879179,1.6611755374040804e-13,0.9995693755187635,0
221,250.925,1.1027777777777885,1.0999999999999943,1.1027777777777885,1.0,0.03416588517060068,1.0095940154020668,61.111111111111114,0.9999999999836364,0.9974811083123277,4.219430523293849e-13,0.9996280418808741,0
222,252.025,1.0999999999999943,1.0749999999999886,1.1027777777777885,0.9974811083123277,0.03233574496874117,0.9555137951496728,58.333333333333336,0.9545454545298347,0.9748110831234059,1.2035052384469676e-14,0.998439635638597,0
223,253.1,1.0749999999999886,1.1138888888889085,1.1027777777777885,0.9748110831234059,0.03347326409878561,0.98912722270654,58.333333333333336,0.9545454545298347,1.0100755667506376,3.197446918779684e-13,0.9985421867843183,0
224,254.2138888888889,1.1138888888889085,1.1777777777777771,1.1027777777777885,1.0100755667506376,0.03363700457422386,0.993965715936149,61.111111111111114,0.9999999999836364,1.0680100755667397,3.965989049756896e-13,0.9997499888087807,0
225,255.39166666666668,1.1777777777777771,1.1777777777777771,1.1027777777777885,1.0680100755667397,0.03506508978494633,1.0361653040641992,66.66666666666667,1.0909090908912398,1.0680100755667397,2.106992965517085e-12,0.9984196235198062,0
226,256.56944444444446,1.1777777777777771,1.147222222222183,1.1083333333333485,1.0626566416039949,0.033403375956303015,0.9870620442384374,61.111111111111114,0.9999999999836364,1.0350877192981962,4.6381389668618406e-15,0.999406882587365,0
227,257.71666666666664,1.147222222222183,1.091666666666697,1.1083333333333485,1.0350877192981962,0.03312925613567496,0.9789618668530929,58.333333333333336,0.9545454545298347,0.9849624060150515,2.3825781079919164e-15,0.9985599935479752,0
228,258.80833333333334,1.091666666666697,1.069444444444457,1.1083333333333485,0.9849624060150515,0.032456166578549446,0.9590722259053944,61.111111111111114,0.9999999999836364,0.9649122807017526,7.888224036640967e-14,0.9997306198016727,0
229,259.8777777777778,1.069444444444457,1.1499999999999773,1.1027777777777885,0.9697732997481129,0.030506803095112858,0.9014689852197293,55.55555555555556,0.9090909090760331,1.0428211586901455,5.0932607808498905e-15,0.9984441751103303,0
230,261.02777777777777,1.1499999999999773,1.1916666666666629,1.1083333333333485,1.0375939849623712,0.034328593291924066,1.0144020028060272,63.888888888888886,1.045454545437438,1.075187969924794,7.222289172964524e-13,0.9997167266345343,0
231,262.21944444444443,1.1916666666666629,1.13611111111112,1.1305555555555458,1.0540540540540597,0.03724902414392424,1.100700059942625,61.111111111111114,0.9999999999836364,1.0049140049140215,3.0397678731780564e-13,0.9987876289507791,0
232,263.35555555555555,1.13611111111112,1.10277777777776,1.1416666666666515,0.9951338199513592,0.03800575353042566,1.1230612385298584,63.888888888888886,1.045454545437438,0.9659367396593648,1.2248853320517838e-10,0.998408922172371,0
233,264.4583333333333,1.10277777777776,1.080555555555577,1.1416666666666515,0.9659367396593648,0.032521415845692514,0.961000326678668,58.333333333333336,0.9545454545298347,0.9464720194647516,1.6035133290626113e-14,0.9992037109127969,0
234,265.5388888888889,1.080555555555577,0.6722222222222172,1.1416666666666515,0.9464720194647516,0.0335788078114655,0.9922460150385071,63.888888888888886,1.045454545437438,0.5888077858880812,2.360084783853411e-12,0.9987084989900299,0
235,266.2111111111111,0.6722222222222172,1.5666666666666629,1.11944444444444,0.6004962779156306,0.04141252648639947,1.2237305925070936,155.55555555555554,2.5454545454128925,1.3995037220843694,0.9864510297775269,0.686089443277223,1
236,267.77777777777777,1.5666666666666629,1.1166666666666742,1.11944444444444,1.3995037220843694,0.03726245084052584,1.101096815726001,61.111111111111114,0.9999999999836364,0.997518610421847,8.112475912643827e-22,0.9986696511084507,0
237,268.89444444444445,1.1166666666666742,1.0527777777777487,1.1097222222222172,1.0062578222778586,0.033891302612703685,1.001480164237305,61.111111111111114,0.9999999999836364,0.9486858573216302,7.306792161338588e-14,0.9996860064495962,0
238,269.9472222222222,1.0527777777777487,1.0500000000000114,1.1097222222222172,0.9486858573216302,0.03343361877752156,0.9879557126201771,61.111111111111114,0.9999999999836364,0.9461827284105276,2.052014808073821e-12,0.9996399630991062,0
239,270.9972222222222,1.0500000000000114,1.0777777777777828,1.1097222222222172,0.9461827284105276,0.03222788129225236,0.9523264484230007,58.333333333333336,0.9545454545298347,0.9712140175219114,2.4197774318134024e-13,0.9983074240595429,0
240,272.075,1.0777777777777828,1.1305555555555884,1.0916666666666686,0.9872773536895704,0.03386341703090778,1.0006561517360464,61.111111111111114,0.9999999999836364,1.0356234096692394,2.057650707806835e-12,0.999438618818586,0
241,273.2055555555556,1.1305555555555884,1.1333333333333258,1.0916666666666686,1.0356234096692394,0.0334290254353935,0.9878199804212299,61.111111111111114,0.9999999999836364,1.038167938931289,5.0874672448972605e-14,0.9995750730822127,0
242,274.3388888888889,1.1333333333333258,1.1305555555555316,1.0916666666666686,1.038167938931289,0.03348920566967585,0.9895982924442779,61.111111111111114,0.9999999999836364,1.0356234096691874,3.957214262761792e-14,0.9998525100290058,0
243,275.46944444444443,1.1305555555555316,1.1083333333333485,1.0986111111111256,1.0290771175726574,0.03402917266133513,1.005554192330137,63.888888888888886,1.045454545437438,1.0088495575221244,3.5841821047558065e-13,0.9998389432187069,0
244,276.5777777777778,1.1083333333333485,1.0861111111111086,1.1125000000000114,0.9962546816479435,0.03181247351210055,0.940051244467401,55.55555555555556,0.9090909090760331,0.9762796504369415,5.696720086758797e-16,0.9994684059966483,0
245,277.6638888888889,1.0861111111111086,1.1333333333333258,1.1125000000000114,0.9762796504369415,0.03388431733533851,1.001273750904573,61.111111111111114,0.9999999999836364,1.0187265917602824,1.3556471483572308e-12,0.9998253807615668,0
246,278.7972222222222,1.1333333333333258,1.194444444444457,1.1125000000000114,1.0187265917602824,0.034861684678959406,1.0301547301633265,66.66666666666667,1.0909090908912398,1.0736579275905123,2.6920708717792508e-11,0.9990743452722844,0
247,279.9916666666667,1.194444444444457,1.1722222222222172,1.11944444444444,1.0669975186104372,0.036723178667942925,1.0851614475833642,69.44444444444444,1.1363636363450413,1.0471464019851113,4.9006833313658404e-11,0.9977705512848836,0
248,281.1638888888889,1.1722222222222172,1.0916666666666401,1.13055555555556,1.0368550368550282,0.034169954749191905,1.0097142705094757,61.111111111111114,0.9999999999836364,0.9656019656019383,9.184259662465763e-15,0.9994643579368897,0
249,282.25555555555553,1.0916666666666401,1.1083333333333485,1.13055555555556,0.9656019656019383,0.033843004789791756,1.0000529747257396,61.111111111111114,0.9999999999836364,0.98034398034399,8.735721022425091e-13,0.9995691082474218,0
250,283.3638888888889,1.1083333333333485,1.1444444444444457,1.13055555555556,0.98034398034399,0.034603836129564074,1.0225353650846885,63.888888888888886,1.045454545437438,1.0122850122850093,7.908223555175287e-12,0.999307965677968,0
251,284.5083333333333,1.1444444444444457,1.2111111111111086,1.1319444444444287,1.0110429447852913,0.03398952556629871,1.0043826298292102,63.888888888888886,1.045454545437438,1.0699386503067612,1.2137835224759752e-12,0.999546231046736,0
252,285.71944444444443,1.2111111111111086,1.1750000000000114,1.1319444444444287,1.0699386503067612,0.03461269098699551,1.0227970240765565,66.66666666666667,1.0909090908912398,1.0380368098159753,1.519387643044573e-13,0.9993147377682554,0
253,286.89444444444445,1.1750000000000114,1.1111111111110858,1.1388888888888857,1.0317073170731836,0.033170030959539944,0.9801667534804291,61.111111111111114,0.9999999999836364,0.9756097560975415,3.5055678249563266e-15,0.9994662267813611,0
254,288.00555555555553,1.1111111111110858,1.1166666666666742,1.1388888888888857,0.9756097560975415,0.03322066407827284,0.9816629504441144,58.333333333333336,0.9545454545298347,0.9804878048780582,3.233198620942665e-14,0.9993273495174569,0
255,289.1222222222222,1.1166666666666742,1.1333333333333258,1.1388888888888857,0.9804878048780582,0.03386934793994771,1.0008314087282977,63.888888888888886,1.045454545437438,0.9951219512195083,2.1679754345915736e-12,0.9990276765635868,0
256,290.25555555555553,1.1333333333333258,1.1666666666666856,1.1388888888888857,0.9951219512195083,0.03376003070561659,0.9976011097031177,61.111111111111114,0.9999999999836364,1.0243902439024586,1.662789101287282e-13,0.999588162785553,0
257,291.4222222222222,1.1666666666666856,1.1722222222222172,1.1388888888888857,1.0243902439024586,0.03570820387499677,1.055169176883346,63.888888888888886,1.045454545437438,1.0292682926829253,1.9275349545655462e-12,0.9984959471518515,0
258,292.59444444444443,1.1722222222222172,1.1194444444444684,1.1388888888888857,1.0292682926829253,0.034966866106692286,1.0332628170587874,66.66666666666667,1.0909090908912398,0.9829268292683165,1.203922053195916e-12,0.9993210881886165,0
259,293.7138888888889,1.1194444444444684,1.1055555555555543,1.1388888888888857,0.9829268292683165,0.03406237465050838,1.0065353034414513,61.111111111111114,0.9999999999836364,0.9707317073170747,2.581136801689532e-13,0.9992792667668796,0
260,294.81944444444446,1.1055555555555543,1.0944444444444343,1.1388888888888857,0.9707317073170747,0.03534092247152178,1.0443160962426636,63.888888888888886,1.045454545437438,0.9609756097560913,1.1730273870302899e-11,0.9994726225588524,0
261,295.9138888888889,1.0944444444444343,1.1666666666666856,1.126388888888897,0.971639950678159,0.03800755296013893,1.1231144112622662,63.888888888888886,1.045454545437438,1.0357583230579623,2.7384032819099957e-09,0.9981336137182432,0
262,297.0805555555556,1.1666666666666856,1.2027777777777828,1.126388888888897,1.0357583230579623,0.03557852020427543,1.0513370543669274,63.888888888888886,1.045454545437438,1.0678175092478388,3.1633812323100807e-12,0.9978769577272568,0
263,298.28333333333336,1.2027777777777828,1.1638888888888346,1.126388888888897,1.0678175092478388,0.03848769973007439,1.137302637413029,66.66666666666667,1.0909090908912398,1.0332922318125213,4.328906330619553e-11,0.9981426588170264,0
264,299.4472222222222,1.1638888888888346,1.0944444444444912,1.1486111111110802,1.0133010882708386,0.03501266759332328,1.0346162404098367,63.888888888888886,1.045454545437438,0.9528415961306589,3.292978682702813e-13,0.9991490022601607,0
265,300.5416666666667,1.0944444444444912,1.0916666666666401,1.1486111111110802,0.9528415961306589,0.03178383647448959,0.939205026620373,58.333333333333336,0.9545454545298347,0.9504232164449844,1.7258729981175364e-14,0.9987492327751499,0
266,301.6333333333333,1.0916666666666401,1.1444444444444457,1.1416666666666515,0.9562043795620333,0.03459438179688459,1.0222559917377032,61.111111111111114,0.9999999999836364,1.0024330900243452,4.028769071823257e-12,0.9994180701678845,0
267,302.77777777777777,1.1444444444444457,1.169444444444423,1.131944444444457,1.011042944785266,0.03509340798112616,1.037002100220581,63.888888888888886,1.045454545437438,1.0331288343557978,2.3532792468167196e-12,0.9993187326144448,0
268,303.9472222222222,1.169444444444423,1.1277777777777942,1.131944444444457,1.0331288343557978,0.034694006088653126,1.0251998665489648,61.111111111111114,0.9999999999836364,0.9963190184049113,3.329074619055558e-14,0.9994340636065322,0
269,305.075,1.1277777777777942,1.0527777777778056,1.13611111111112,0.9926650366748233,0.03245242963602843,0.9589618001170304,58.333333333333336,0.9545454545298347,0.9266503667481835,2.5046285676694462e-15,0.9988589212411163,0
270,306.1277777777778,1.0527777777778056,1.0694444444444002,1.13611111111112,0.9266503667481835,0.035802272715212614,1.0579488893843834,61.111111111111114,0.9999999999836364,0.9413202933984868,9.582855342582519e-11,0.9987076977560694,0
271,307.1972222222222,1.0694444444444002,1.14722222222224,1.13611111111112,0.9413202933984868,0.033206879895249175,0.9812556310195362,61.111111111111114,0.9999999999836364,1.0097799511002523,2.6421664335585238e-12,0.9998555779151458,0
272,308.34444444444443,1.14722222222224,1.1694444444444798,1.13611111111112,1.0097799511002523,0.033807442108637495,0.9990021057116423,61.111111111111114,0.9999999999836364,1.0293398533007567,8.4235197213723e-14,0.9993958799673072,0
273,309.5138888888889,1.1694444444444798,1.1277777777777374,1.13611111111112,1.0293398533007567,0.0342687719816275,1.0126342969038575,61.111111111111114,0.9999999999836364,0.9926650366747733,2.2992323106194035e-14,0.9991915822344692,0
274,310.64166666666665,1.1277777777777374,1.125,1.1277777777777658,0.9999999999999748,0.03354846693353199,0.9913494491034883,61.111111111111114,0.9999999999836364,0.9975369458128185,9.862961413299037e-14,0.9993320325652492,0
275,311.76666666666665,1.125,1.11388888888888,1.1277777777777658,0.9975369458128185,0.031476337825545764,0.9301185125678981,55.55555555555556,0.9090909090760331,0.987684729064042,2.582999179383407e-16,0.9994600336265199,0
276,312.88055555555553,1.11388888888888,1.1444444444444457,1.1277777777777658,0.987684729064042,0.03825229879823709,1.1303465942484425,63.888888888888886,1.045454545437438,1.0147783251231646,9.266827305509651e-10,0.998008396070295,0
277,314.025,1.1444444444444457,1.1888888888889255,1.1277777777777658,1.0147783251231646,0.03349486361194592,0.9897654833315277,61.111111111111114,0.9999999999836364,1.0541871921182704,7.542560055261854e-14,0.9998798421960903,0
278,315.2138888888889,1.1888888888889255,1.2111111111111086,1.1277777777777658,1.0541871921182704,0.03350873785252899,0.9901754639361857,61.111111111111114,0.9999999999836364,1.0738916256157727,8.045505180045293e-15,0.9998614992594317,0
279,316.425,1.2111111111111086,1.169444444444423,1.1361111111110915,1.0660146699266666,0.03356868151542355,0.991946785329366,61.111111111111114,0.9999999999836364,1.0293398533007323,1.2855153283891315e-15,0.9997720007236153,0
280,317.59444444444443,1.169444444444423,1.1111111111111427,1.1458333333333428,1.0206060606060334,0.0314709507160153,0.9299593247255485,55.55555555555556,0.9090909090760331,0.9696969696969893,2.5103651115396158e-17,0.9985991059095973,0
281,318.7055555555556,1.1111111111111427,1.1194444444444116,1.1458333333333428,0.9696969696969893,0.032423421638215044,0.9581046204817024,55.55555555555556,0.9090909090760331,0.9769696969696602,2.2793074275461985e-15,0.9996104198949112,0
282,319.825,1.1194444444444116,1.1777777777778056,1.1361111111110915,0.9853300733496213,0.03346493256120071,0.9888810276952645,58.333333333333336,0.9545454545298347,1.0366748166259592,5.511144993597568e-14,0.9998081866554622,0
283,321.0027777777778,1.1777777777778056,1.2027777777777828,1.1361111111110915,1.0366748166259592,0.0345088572510703,1.0197287611627324,63.888888888888886,1.045454545437438,1.0586797066014897,2.5997043059944325e-13,0.9996610453389916,0
284,322.2055555555556,1.2027777777777828,1.147222222222183,1.1569444444444343,1.0396158463385488,0.03418124638750955,1.0100479358137013,63.888888888888886,1.045454545437438,0.991596638655437,2.1153785578135846e-14,0.9997148220031191,0
285,323.35277777777776,1.147222222222183,1.1000000000000227,1.158333333333303,0.9904076738609033,0.032304267337012624,0.9545836384025701,55.55555555555556,0.9090909090760331,0.9496402877698287,2.321310997307151e-16,0.9991965539227052,0
286,324.4527777777778,1.1000000000000227,1.1166666666666742,1.158333333333303,0.9496402877698287,0.03280303086116024,0.9693219853403386,58.333333333333336,0.9545454545298347,0.964028776978449,5.946717456569578e-14,0.9987718641990564,0
287,325.56944444444446,1.1166666666666742,1.1972222222221944,1.158333333333303,0.964028776978449,0.0325860331856068,0.9629097541482892,61.111111111111114,0.9999999999836364,1.0335731414868137,2.1432766043709417e-13,0.9997815749688062,0
288,326.76666666666665,1.1972222222221944,1.1888888888889255,1.158333333333303,1.0335731414868137,0.03496175643439937,1.0331118274227267,61.111111111111114,0.9999999999836364,1.0263788968825525,4.120058379750505e-14,0.9983303045511032,0
289,327.9555555555556,1.1888888888889255,1.1777777777777487,1.158333333333303,1.0263788968825525,0.03379465772698539,0.9986243301866665,58.333333333333336,0.9545454545298347,1.0167865707434067,1.808901962816129e-15,0.9994740416187469,0
290,329.1333333333333,1.1777777777777487,1.13611111111112,1.162499999999966,1.0131421744325018,0.035302985227300666,1.0431950594384,63.888888888888886,1.045454545437438,0.9772998805257233,5.143091356442364e-13,0.9985686389860456,0
291,330.26944444444445,1.13611111111112,1.13611111111112,1.162499999999966,0.9772998805257233,0.03407412564158353,1.006882542513563,63.888888888888886,1.045454545437438,0.9772998805257233,1.4455609018831916e-12,0.9985661310632897,0
292,331.40555555555557,1.13611111111112,1.180555555555543,1.162499999999966,0.9772998805257233,0.03416771881469936,1.0096481991616613,61.111111111111114,0.9999999999836364,1.0155316606929699,3.4878108973006305e-13,0.999561306961585,0
293,332.5861111111111,1.180555555555543,1.2027777777777828,1.162499999999966,1.0155316606929699,0.033534793087882445,0.9909453901228304,61.111111111111114,0.9999999999836364,1.0346475507766177,3.2898444575100647e-14,0.9978377242030724,0
294,333.7888888888889,1.2027777777777828,0.7805555555555657,1.162499999999966,1.0346475507766177,0.03539337110873657,1.0458659413581535,63.888888888888886,1.045454545437438,0.671445639187603,1.0814481295608018e-14,0.9993740444368375,0
295,334.56944444444446,0.7805555555555657,1.5611111111110745,1.1569444444444343,0.6746698679471935,0.04428819473301404,1.3087059249934898,172.22222222222223,2.818181818135703,1.3493397358943378,0.9819093942642212,0.3007351021077096,1
296,336.13055555555553,1.5611111111110745,1.1111111111111427,1.1791666666666458,1.323910482921076,0.033732305369753,0.9967818324321464,61.111111111111114,0.9999999999836364,0.942285041225014,3.1111658443501234e-24,0.9991916568695891,0
297,337.2416666666667,1.1111111111111427,1.14722222222224,1.1791666666666458,0.942285041225014,0.03252327466297138,0.9610552542999222,58.333333333333336,0.9545454545298347,0.9729093050648143,5.970811816973995e-14,0.9978067178253824,0
298,338.3888888888889,1.14722222222224,1.1972222222221944,1.1624999999999943,0.986857825567523,0.0352254370773548,1.040903529519011,63.888888888888886,1.045454545437438,1.0298685782556563,8.207252585878955e-12,0.9978551827551784,0
299,339.5861111111111,1.1972222222221944,1.1916666666666629,1.1624999999999943,1.0298685782556563,0.03430747931200466,1.0137780895761632,63.888888888888886,1.045454545437438,1.0250896057347687,1.1203582142961868e-13,0.9982986627992909,0
300,340.77777777777777,1.1916666666666629,1.1305555555555884,1.1638888888888914,1.0238663484486819,0.037359560806099486,1.1039663927789443,61.111111111111114,0.9999999999836364,0.9713603818616013,4.1783379057039327e-13,0.9989531798091849,0
301,341.90833333333336,1.1305555555555884,1.0916666666666401,1.1638888888888914,0.9713603818616013,0.03275623067449643,0.9679390506339919,58.333333333333336,0.9545454545298347,0.9379474940333881,7.593743545759e-15,0.9986573429485639,0
302,343.0,1.0916666666666401,1.1555555555555657,1.1638888888888914,0.9379474940333881,0.03692639386615879,1.0911664097534655,58.333333333333336,0.9545454545298347,0.9928400954654003,3.0966406522336953e-11,0.9979527858290134,0
303,344.15555555555557,1.1555555555555657,1.1999999999999886,1.1513888888889028,1.0036188178528314,0.034704098916590924,1.0254981072833582,63.888888888888886,1.045454545437438,1.0422195416163829,1.3465142629370819e-12,0.9996228487708116,0
304,345.35555555555555,1.1999999999999886,1.1638888888888914,1.1513888888889028,1.0422195416163829,0.03427379396273855,1.0127826952857484,63.888888888888886,1.045454545437438,1.0108564535584943,3.180080846007169e-14,0.9996595746745818,0
305,346.51944444444445,1.1638888888888914,1.1388888888889142,1.1597222222222285,1.0035928143712542,0.03424425494121519,1.0119098240224427,63.888888888888886,1.045454545437438,0.982035928143729,2.9500227673000257e-13,0.9989039786728895,0
306,347.65833333333336,1.1388888888889142,1.0861111111111086,1.1513888888889028,0.9891435464415058,0.03341067096080265,0.9872776099364541,61.111111111111114,0.9999999999836364,0.9433051869722422,4.722382153290322e-14,0.9985296908820691,0
307,348.74444444444447,1.0861111111111086,1.1166666666666174,1.1513888888889028,0.9433051869722422,0.03254261565619342,0.9616267761823909,61.111111111111114,0.9999999999836364,0.969843184559656,4.258774051729003e-13,0.999419302509718,0
308,349.8611111111111,1.1166666666666174,1.1583333333333599,1.14722222222224,0.9733656174333561,0.03333501823169892,0.9850420892651593,61.111111111111114,0.9999999999836364,1.0096852300242207,2.5424044922291167e-13,0.9996830709893164,0
309,351.01944444444445,1.1583333333333599,1.1611111111110972,1.14722222222224,1.0096852300242207,0.03340047974348407,0.9869764618185838,61.111111111111114,0.9999999999836364,1.0121065375302387,2.2227997844041433e-14,0.9998436857121538,0
310,352.18055555555554,1.1611111111110972,1.1638888888888914,1.14722222222224,1.0121065375302387,0.035730360939110875,1.0558239130102394,66.66666666666667,1.0909090908912398,1.0145278450363062,1.4351303999349252e-11,0.99850613087081,0
311,353.34444444444443,1.1638888888888914,1.10277777777776,1.1569444444444628,1.0060024009603703,0.03328923994796001,0.9836893515542117,61.111111111111114,0.9999999999836364,0.9531812725089732,7.603657219373665e-15,0.9999081469783778,0
312,354.4472222222222,1.10277777777776,1.0888888888889028,1.1569444444444628,0.9531812725089732,0.03412694614470181,1.0084433761806102,63.888888888888886,1.045454545437438,0.9411764705882324,6.94632676032092e-12,0.9983786373388872,0
313,355.5361111111111,1.0888888888889028,1.150000000000034,1.148611111111137,0.948004836759362,0.03327396959775479,0.9832381162326825,58.333333333333336,0.9545454545298347,1.0012091898428124,2.383548545169256e-13,0.9991190020959544,0
314,356.68611111111113,1.150000000000034,1.1888888888888687,1.1444444444444741,1.0048543689320426,0.035659613326368744,1.0537333373944815,66.66666666666667,1.0909090908912398,1.038834951456266,3.0510281801010564e-11,0.9989715426827501,0
315,357.875,1.1888888888888687,1.1777777777778056,1.1444444444444741,1.038834951456266,0.03450969561600664,1.0197535346529618,63.888888888888886,1.045454545437438,1.0291262135922306,1.8494357250081056e-13,0.9978709965018099,0
316,359.0527777777778,1.1777777777778056,1.0944444444444343,1.154166666666697,1.0204572803850755,0.03275300903686154,0.9678438519859915,58.333333333333336,0.9545454545298347,0.9482551143200626,3.809250100612438e-16,0.9990942758763304,0
317,360.14722222222224,1.0944444444444343,1.0638888888888687,1.154166666666697,0.9482551143200626,0.033512452388901805,0.9902852276280456,61.111111111111114,0.9999999999836364,0.9217809867628945,3.6278358789276766e-13,0.9996154413945539,0
318,361.2111111111111,1.0638888888888687,1.125,1.154166666666697,0.9217809867628945,0.031928355074017575,0.9434755178565636,58.333333333333336,0.9545454545298347,0.9747292418772308,2.043881150480889e-13,0.9985109031032713,0
319,362.3361111111111,1.125,1.1750000000000114,1.137500000000017,0.9890109890109742,0.0361623972893025,1.0685904873697687,66.66666666666667,1.0909090908912398,1.0329670329670275,2.591321879297226e-10,0.9983672328301954,0
320,363.5111111111111,1.1750000000000114,1.1388888888888573,1.137500000000017,1.0329670329670275,0.03489976449423815,1.031279979909413,63.888888888888886,1.045454545437438,1.0012210012209584,2.12898397370688e-13,0.9992537733585186,0
321,364.65,1.1388888888888573,1.1111111111111427,1.1319444444444287,1.0061349693251396,0.03451395375534648,1.0198793616869397,63.888888888888886,1.045454545437438,0.9815950920245815,7.762348706516486e-13,0.9992780209351305,0
322,365.7611111111111,1.1111111111111427,1.0777777777777828,1.1319444444444287,0.9815950920245815,0.0329711574453575,0.9742900870707047,61.111111111111114,0.9999999999836364,0.9521472392638214,6.964295405555848e-14,0.9995912878735198,0
323,366.8388888888889,1.0777777777777828,1.1333333333333258,1.1319444444444287,0.9521472392638214,0.033582146428207255,0.9923446703920963,61.111111111111114,0.9999999999836364,1.001226993865038,2.1532511017274825e-12,0.9995213873469334,0
324,367.97222222222223,1.1333333333333258,1.205555555555577,1.1291666666666629,1.0036900369003656,0.036206970814686254,1.069907624749588,66.66666666666667,1.0909090908912398,1.0676506765067877,2.712529645343409e-10,0.9981769903354202,0
325,369.1777777777778,1.205555555555577,1.180555555555543,1.1291666666666629,1.0676506765067877,0.03426396637431798,1.0124922923178257,61.111111111111114,0.9999999999836364,1.0455104551045433,9.110666898909468e-15,0.9979037818345069,0
326,370.35833333333335,1.180555555555543,1.1750000000000114,1.1291666666666629,1.0455104551045433,0.03840346713099388,1.1348135835656368,63.888888888888886,1.045454545437438,1.0405904059040727,2.958218392468126e-11,0.9979158438780114,0
327,371.53333333333336,1.1750000000000114,1.1166666666666174,1.1361111111110915,1.0342298288508835,0.03371818385979339,0.996364545074524,63.888888888888886,1.045454545437438,0.9828850855745457,3.809929802200962e-14,0.9993687944647458,0
328,372.65,1.1166666666666174,1.1111111111111427,1.1361111111110915,0.9828850855745457,0.0329737119393244,0.974365571777408,61.111111111111114,0.9999999999836364,0.9779951100244946,8.778123627289913e-14,0.9994642464381238,0
329,373.7611111111111,1.1111111111111427,1.169444444444423,1.1361111111110915,0.9779951100244946,0.03268510906401739,0.9658374234714919,61.111111111111114,0.9999999999836364,1.0293398533007323,1.7609377226789763e-13,0.9997785245305815,0
330,374.93055555555554,1.169444444444423,1.1916666666666629,1.1361111111110915,1.0293398533007323,0.03517352923163383,1.0393696646672552,63.888888888888886,1.045454545437438,1.0488997555012372,1.0550965483246966e-12,0.9988144241873012,0
331,376.1222222222222,1.1916666666666629,1.1583333333333599,1.1513888888888744,1.0349819059107457,0.03559726694718184,1.0518910162898245,66.66666666666667,1.0909090908912398,1.0060313630880937,1.6963521516297209e-12,0.9988708325447427,0
332,377.28055555555557,1.1583333333333599,1.0888888888889028,1.1638888888888914,0.9952267303102832,0.03289804450050144,0.9721296164373076,58.333333333333336,0.9545454545298347,0.935560859188554,1.2064005452914485e-15,0.9995856201001103,0
333,378.36944444444447,1.0888888888889028,1.055555555555543,1.1638888888888914,0.935560859188554,0.03215496297652538,0.9501717290354138,58.333333333333336,0.9545454545298347,0.9069212410501065,2.2831591828188953e-14,0.9991435189335982,0
334,379.425,1.055555555555543,1.13611111111112,1.1638888888888914,0.9069212410501065,0.032320370318282485,0.9550594777797443,58.333333333333336,0.9545454545298347,0.9761336515513181,5.564010623765325e-13,0.9989384864569963,0
335,380.56111111111113,1.13611111111112,1.1416666666666515,1.14722222222224,0.9903147699757794,0.03459635063845086,1.0223141705512377,61.111111111111114,0.9999999999836364,0.9951573849878649,3.706811604626409e-13,0.9989178284408045,0
336,381.7027777777778,1.1416666666666515,1.11388888888888,1.1388888888888857,1.0024390243902335,0.03321304008208974,0.9814376631178393,58.333333333333336,0.9545454545298347,0.9780487804877999,8.563578482673282e-15,0.9979862870505629,0
337,382.81666666666666,1.11388888888888,1.0611111111111313,1.1263888888888687,0.9889025893958175,0.03448134339774216,1.0189157331518368,63.888888888888886,1.045454545437438,0.942046855733697,1.4233098206972716e-12,0.9995778761779411,0
338,383.8777777777778,1.0611111111111313,1.0694444444444002,1.125,0.9432098765432279,0.03604987537686059,1.0652654908466084,58.333333333333336,0.9545454545298347,0.950617283950578,2.1003252956286467e-11,0.9970078463201633,0
339,384.9472222222222,1.0694444444444002,1.1222222222222626,1.125,0.950617283950578,0.034801093805268545,1.0283642838406035,66.66666666666667,1.0909090908912398,0.9975308641975668,6.781294970004126e-10,0.9993238249936676,0
340,386.06944444444446,1.1222222222222626,1.2083333333333144,1.1180555555555713,1.0037267080745562,0.035206352859927806,1.0403395953019778,63.888888888888886,1.045454545437438,1.0807453416148747,1.6891111773165157e-11,0.9994512254050301,0
341,387.27777777777777,1.2083333333333144,1.1999999999999886,1.1180555555555713,1.0807453416148747,0.03350781457055656,0.9901481811671533,61.111111111111114,0.9999999999836364,1.073291925465813,2.1651621146071562e-15,0.9996371966989839,0
342,388.47777777777776,1.1999999999999886,1.1777777777778056,1.1180555555555713,1.073291925465813,0.034486020321487766,1.0190539351682772,63.888888888888886,1.045454545437438,1.053416149068333,4.338703672051615e-14,0.9993724285779189,0
343,389.65555555555557,1.1777777777778056,1.1527777777777715,1.1291666666666913,1.043050430504307,0.038081978465061984,1.1253136677424775,63.888888888888886,1.045454545437438,1.0209102091020632,1.8133791343522e-11,0.997875601260787,0
344,390.80833333333334,1.1527777777777715,1.1305555555555316,1.1388888888888857,1.0121951219512169,0.03203432082191232,0.9466067812316509,58.333333333333336,0.9545454545298347,0.99268292682925,8.687753300982526e-16,0.999396344997221,0
345,391.93888888888887,1.1305555555555316,1.1694444444444798,1.1361111111110915,0.9951100244498737,0.03267925081549058,0.9656643135806204,58.333333333333336,0.9545454545298347,1.0293398533007823,1.0921858815298498e-14,0.999623050882098,0
346,393.10833333333335,1.1694444444444798,1.1833333333333371,1.1416666666666515,1.0243309002433536,0.033946566255904934,1.0031131921295051,61.111111111111114,0.9999999999836364,1.0364963503649807,3.11417998864489e-14,0.9996901738698012,0
347,394.2916666666667,1.1833333333333371,1.158333333333303,1.1611111111111256,1.0191387559808518,0.032739547762229176,0.9674460744297931,58.333333333333336,0.9545454545298347,0.9976076555023538,5.79089056285657e-16,0.9994781562418784,0
348,395.45,1.158333333333303,1.1000000000000227,1.1638888888888914,0.9952267303102343,0.033483926995017524,0.9894423088273544,61.111111111111114,0.9999999999836364,0.9451073985680366,1.3802495049133022e-14,0.9998862883778772,0
349,396.55,1.1000000000000227,1.0861111111111086,1.1638888888888914,0.9451073985680366,0.030885831608479,0.9126691902444326,55.55555555555556,0.9090909090760331,0.9331742243436713,8.365134862636716e-16,0.9985541726312134,0
350,397.6361111111111,1.0861111111111086,1.13611111111112,1.1638888888888914,0.9331742243436713,0.03267402297816018,0.9655098321949953,61.111111111111114,0.9999999999836364,0.9761336515513181,7.929379809007431e-13,0.9992716277014577,0
351,398.77222222222224,1.13611111111112,1.1944444444444002,1.1555555555555372,0.9831730769231002,0.034348429177649485,1.014988148647664,63.888888888888886,1.045454545437438,1.0336538461538243,2.8958805839418567e-12,0.9994057092332407,0
352,399.96666666666664,1.1944444444444002,1.150000000000034,1.1555555555555372,1.0336538461538243,0.03317750001103122,0.9803874622268489,58.333333333333336,0.9545454545298347,0.995192307692353,3.6021666915743184e-16,0.9998707618745446,0
353,401.1166666666667,1.150000000000034,1.099999999999966,1.1513888888889028,0.998793727382406,0.033344635155374884,0.9853262671385367,58.333333333333336,0.9545454545298347,0.9553679131483304,3.871616077727588e-15,0.9990738253436044,0
354,402.21666666666664,1.099999999999966,0.7527777777777942,1.143055555555577,0.9623329283110091,0.03138485458055363,0.9274152038085192,55.55555555555556,0.9090909090760331,0.6585662211421648,3.634158464247623e-17,0.9988661726098593,0
355,402.96944444444443,0.7527777777777942,1.1694444444444798,1.143055555555577,0.6585662211421648,0.03324505142476031,0.9823835909000062,55.55555555555556,0.9090909090760331,1.0230862697448477,0.00015015219105407596,0.9984607214344363,0
356,404.1388888888889,1.1694444444444798,1.2444444444444116,1.143055555555577,1.0230862697448477,0.03455710998848483,1.0211546184082632,61.111111111111114,0.9999999999836364,1.088699878493268,3.4895675758706e-13,0.9979042302108365,0
357,405.3833333333333,1.2444444444444116,1.2333333333333485,1.143055555555577,1.088699878493268,0.036348592993405246,1.074092527419867,66.66666666666667,1.0909090908912398,1.0789793438639055,1.048786491680831e-12,0.9972042386741728,0
358,406.6166666666667,1.2333333333333485,1.1777777777777487,1.143055555555577,1.0789793438639055,0.033563405748678915,0.9917908876406205,61.111111111111114,0.9999999999836364,1.0303766707168447,5.730525171683716e-16,0.9989858161575316,0
359,407.7944444444444,1.1777777777777487,1.194444444444457,1.159722222222257,1.0155688622753936,0.03197188476008509,0.9447618100256865,58.333333333333336,0.9545454545298347,1.0299401197604592,7.71862108377711e-16,0.9987102819104705,0
360,408.9888888888889,1.194444444444457,1.1916666666666629,1.1736111111111143,1.017751479289949,0.03352054955005363,0.9905244968698583,61.111111111111114,0.9999999999836364,1.0153846153846093,6.242083520397899e-15,0.9998636778548067,0
361,410.18055555555554,1.1916666666666629,1.2027777777777828,1.1847222222222058,1.0058616647127891,0.03292963938177711,0.9730632378814462,58.333333333333336,0.9545454545298347,1.0152403282532423,1.0243432011359903e-15,0.9996352695866865,0
362,411.3833333333333,1.2027777777777828,1.194444444444457,1.1847222222222058,1.0152403282532423,0.03528476483882582,1.042656651167382,63.888888888888886,1.045454545437438,1.0082063305979145,2.491190576308505e-13,0.9990664374808538,0
363,412.5777777777778,1.194444444444457,1.169444444444423,1.19305555555556,1.0011641443539068,0.03507018565069563,1.0363158857200847,63.888888888888886,1.045454545437438,0.9802095459836804,3.5340770566071045e-13,0.9983153608524802,0
364,413.7472222222222,1.169444444444423,1.0749999999999886,1.19305555555556,0.9802095459836804,0.03208946163898112,0.9482361796400065,58.333333333333336,0.9545454545298347,0.901047729918497,7.035798708237857e-16,0.9975133988792833,0
365,414.8222222222222,1.0749999999999886,1.02222222222224,1.19305555555556,0.901047729918497,0.03222193793320024,0.9521508235357646,58.333333333333336,0.9545454545298347,0.8568102444703259,7.968734857090667e-14,0.998572013250872,0
366,415.84444444444443,1.02222222222224,1.055555555555543,1.19305555555556,0.8568102444703259,0.03744803710100219,1.1065808468577043,63.888888888888886,1.045454545437438,0.8847497089638977,9.394311462074256e-08,0.9992044708828207,0
367,416.9,1.055555555555543,1.1083333333333485,1.1847222222222058,0.8909730363423229,0.03448311319890118,1.0189680303673099,63.888888888888886,1.045454545437438,0.935521688159463,3.360911549066259e-10,0.9988882957869827,0
368,418.0083333333333,1.1083333333333485,1.1222222222222058,1.1736111111110858,0.9443786982248853,0.03568664801429868,1.0545322061785343,66.66666666666667,1.0909090908912398,0.9562130177514859,7.965514359220549e-10,0.9974408096502042,0
369,419.13055555555553,1.1222222222222058,1.1000000000000227,1.1458333333333144,0.9793939393939413,0.03935880748065815,1.1630436702406077,69.44444444444444,1.1363636363450413,0.9600000000000357,2.5942924253286037e-07,0.9973382291982992,0
370,420.23055555555555,1.1000000000000227,1.10277777777776,1.1152777777777771,0.9863013698630346,0.03345366490338983,0.9885480710094753,61.111111111111114,0.9999999999836364,0.988792029887905,2.7383244326564804e-13,0.9995350146222574,0
371,421.3333333333333,1.10277777777776,1.1416666666667084,1.1055555555555543,0.9974874371859148,0.033696463733727394,0.9957227203660316,61.111111111111114,0.9999999999836364,1.0326633165829535,4.960281317634152e-13,0.9995004409337047,0
372,422.475,1.1416666666667084,1.2166666666666401,1.1055555555555543,1.0326633165829535,0.0348534421545362,1.0299111654704196,66.66666666666667,1.0909090908912398,1.1005025125627914,2.5888704374699145e-11,0.9987069130745728,0
373,423.69166666666666,1.2166666666666401,1.1777777777778056,1.1055555555555543,1.1005025125627914,0.0332039599184961,0.9811693463809178,61.111111111111114,0.9999999999836364,1.0653266331658555,6.927722598124128e-16,0.9991728233492253,0
374,424.86944444444447,1.1777777777778056,1.1111111111110858,1.1055555555555543,1.0653266331658555,0.033161069728928766,0.9799019511856691,61.111111111111114,0.9999999999836364,1.005025125628119,1.7031545580326393e-15,0.999691627214669,0
375,425.98055555555555,1.1111111111110858,1.1055555555555543,1.1097222222222172,1.0012515644555513,0.03318989940895558,0.9807538615715904,61.111111111111114,0.9999999999836364,0.996245306633295,1.0801767331069731e-13,0.999365526556913,0
376,427.0861111111111,1.1055555555555543,1.13611111111112,1.1097222222222172,0.996245306633295,0.03208677155182254,0.9481566881858073,58.333333333333336,0.9545454545298347,1.0237797246558324,1.2641383979102722e-14,0.9993157501550531,0
377,428.22222222222223,1.13611111111112,1.1777777777777487,1.1166666666666458,1.01741293532341,0.03345761285241697,0.9886647319913584,61.111111111111114,0.9999999999836364,1.0547263681591976,1.067018245677967e-13,0.9994135153390347,0
378,429.4,1.1777777777777487,1.1805555555555998,1.1291666666666629,1.043050430504283,0.03421468561167641,1.0110360571642818,63.888888888888886,1.045454545437438,1.0455104551045937,1.6353964623488926e-13,0.9988242264164116,0
379,430.5805555555556,1.1805555555555998,1.1333333333333258,1.1388888888889142,1.0365853658536743,0.03347424483621435,0.9891562032710356,58.333333333333336,0.9545454545298347,0.9951219512194834,1.0658231457168622e-15,0.99897540948491,0
380,431.7138888888889,1.1333333333333258,0.6416666666666515,1.1388888888889142,0.9951219512194834,0.032824056281615555,0.9699432816584936,58.333333333333336,0.9545454545298347,0.5634146341463157,1.5730759730205924e-16,0.9992385811738878,0
381,432.35555555555555,0.6416666666666515,1.5361111111110972,1.1388888888889142,0.5634146341463157,0.042702200656329556,1.2618401663489105,161.11111111111111,2.636363636320496,1.348780487804836,0.9785565137863159,0.6197724800208768,1
382,433.89166666666665,1.5361111111110972,1.1444444444444457,1.1569444444444343,1.3277310924369743,0.03410940989696884,1.0079251841104966,61.111111111111114,0.9999999999836364,0.9891956782713183,2.4834497766444506e-23,0.9993214276297173,0
383,435.0361111111111,1.1444444444444457,1.1333333333333258,1.1402777777777828,1.0036540803897653,0.03252534245126012,0.9611163569662518,58.333333333333336,0.9545454545298347,0.9939098660170413,2.8579323627163193e-15,0.9991856120494296,0
384,436.1694444444444,1.1333333333333258,1.1222222222222626,1.1347222222222229,0.9987760097919144,0.03450754254801324,1.0196899119910567,63.888888888888886,1.045454545437438,0.9889840881273301,1.6471238435677993e-12,0.9985991907827878,0
385,437.2916666666667,1.1222222222222626,1.0583333333333371,1.1347222222222229,0.9889840881273301,0.033788215130447316,0.9984339529470309,58.333333333333336,0.9545454545298347,0.9326805385556943,1.644711317551166e-14,0.9988976353636986,0
386,438.35,1.0583333333333371,1.0611111111110745,1.1347222222222229,0.9326805385556943,0.03188873733663422,0.942304822867504,58.333333333333336,0.9545454545298347,0.9351285189718154,1.565221883310583e-13,0.9974479942023047,0
387,439.4111111111111,1.0611111111110745,1.11388888888888,1.1333333333333258,0.9362745098038955,0.03338845689654125,0.9866211894683737,61.111111111111114,0.9999999999836364,0.9828431372549007,4.784966260024115e-12,0.9990736651065847,0
388,440.525,1.11388888888888,1.1777777777778056,1.1277777777777942,0.9876847290640172,0.034141546983471965,1.008874827593872,63.888888888888886,1.045454545437438,1.0443349753694675,7.616587048564494e-12,0.9984030408782327,0
389,441.7027777777778,1.1777777777778056,1.1611111111110972,1.1277777777777942,1.0443349753694675,0.03351214148868679,0.9902760405985014,58.333333333333336,0.9545454545298347,1.029556650246278,2.505679523798752e-15,0.9980671326960213,0
390,442.8638888888889,1.1611111111110972,1.10277777777776,1.1277777777777942,1.029556650246278,0.03412063255408116,1.0082568110360375,63.888888888888886,1.045454545437438,0.977832512315241,1.1083009374612471e-13,0.9992269088093064,0
391,443.96666666666664,1.10277777777776,1.0972222222222285,1.1277777777777942,0.977832512315241,0.032438702791916046,0.9585561750440367,58.333333333333336,0.9545454545298347,0.9729064039408781,2.3413987965798487e-14,0.9981311015678007,0
392,445.06388888888887,1.0972222222222285,1.14722222222224,1.1180555555555713,0.9813664596273209,0.0338589395874471,1.0005238443159508,61.111111111111114,0.9999999999836364,1.0260869565217405,9.318853197784471e-13,0.9997346784270623,0
393,446.2111111111111,1.14722222222224,1.180555555555543,1.1180555555555713,1.0260869565217405,0.034076839775012795,1.0069627445295066,61.111111111111114,0.9999999999836364,1.0559006211179862,1.3352350908962807e-13,0.9991129439675563,0
394,447.39166666666665,1.180555555555543,1.1583333333333599,1.1180555555555713,1.0559006211179862,0.03306512653906788,0.9770668520855444,58.333333333333336,0.9545454545298347,1.036024844720506,6.733379888101694e-16,0.9994315966198319,0
395,448.55,1.1583333333333599,1.1277777777777942,1.13055555555556,1.024570024570044,0.034055540357823516,1.006333351671149,63.888888888888886,1.045454545437438,0.9975429975430081,2.3609838585049447e-13,0.9983597984793039,0
396,449.6777777777778,1.1277777777777942,1.099999999999966,1.137500000000017,0.991452991452991,0.036720535933001286,1.0850833553762385,61.111111111111114,0.9999999999836364,0.9670329670329225,5.139064087472667e-12,0.9982466234709299,0
397,450.77777777777777,1.099999999999966,1.1055555555555543,1.137500000000017,0.9670329670329225,0.033708504244629615,0.996078514682162,58.333333333333336,0.9545454545298347,0.9719169719169563,1.3196061810546306e-13,0.9983482256830168,0
398,451.8833333333333,1.1055555555555543,1.1527777777777715,1.137500000000017,0.9719169719169563,0.033027792378309426,0.9759636362583066,61.111111111111114,0.9999999999836364,1.0134310134309927,3.3467629709238444e-13,0.999259858713571,0
399,453.0361111111111,1.1527777777777715,1.1750000000000114,1.137500000000017,1.0134310134309927,0.031137934873209094,0.9201187834882173,55.55555555555556,0.9090909090760331,1.0329670329670275,1.7236178152471191e-16,0.9981509556461005,0
400,454.2111111111111,1.1750000000000114,1.1444444444444457,1.137500000000017,1.0329670329670275,0.03332431476735504,0.9847258043660067,58.333333333333336,0.9545454545298347,1.006105006104992,1.1619467739118852e-15,0.9994554039387822,0
401,455.35555555555555,1.1444444444444457,1.0833333333333144,1.1458333333333428,0.9987878787878717,0.03263601127833226,0.9643865952447478,55.55555555555556,0.9090909090760331,0.9454545454545211,2.44842814337736e-16,0.9994829798373441,0
402,456.43888888888887,1.0833333333333144,1.0833333333333712,1.1458333333333428,0.9454545454545211,0.036298176296901054,1.0726027256830521,58.333333333333336,0.9545454545298347,0.9454545454545707,8.37995558361504e-12,0.9977331561259397,0
403,457.52222222222224,1.0833333333333712,1.1416666666666515,1.13611111111112,0.9535452322738646,0.03215128497875802,0.9500630450509059,58.333333333333336,0.9545454545298347,1.004889975550101,6.280218044826119e-14,0.9995829138439897,0
404,458.6638888888889,1.1416666666666515,1.1972222222221944,1.1347222222222229,1.0061199510403778,0.03454156074799082,1.0206951419431163,63.888888888888886,1.045454545437438,1.0550795593635,3.993834776783167e-12,0.9979544546935758,0
405,459.8611111111111,1.1972222222221944,1.1861111111111313,1.1347222222222229,1.0550795593635,0.033966341350468825,1.0036975416063598,66.66666666666667,1.0909090908912398,1.0452876376989155,2.1225858256365e-13,0.9991715233379885,0
406,461.0472222222222,1.1861111111111313,1.1111111111111427,1.1430555555555486,1.0376670716889669,0.03230060578876557,0.9544754404975876,58.333333333333336,0.9545454545298347,0.9720534629404952,2.181901153241016e-16,0.9980958382821251,0
407,462.15833333333336,1.1111111111111427,1.1083333333332916,1.1430555555555486,0.9720534629404952,0.03652998586670745,1.0794526449291324,58.333333333333336,0.9545454545298347,0.96962332928308,2.4433948787871973e-12,0.9983099848855821,0
408,463.26666666666665,1.1083333333332916,1.1750000000000114,1.1430555555555486,0.96962332928308,0.032984978207871475,0.9746984874107728,61.111111111111114,0.9999999999836364,1.0279465370595544,4.1901735987198707e-13,0.9992036771704986,0
409,464.44166666666666,1.1750000000000114,1.2027777777777828,1.1430555555555486,1.0279465370595544,0.03292013530138839,0.9727823945011435,58.333333333333336,0.9545454545298347,1.0522478736330607,2.161498061835571e-15,0.9992422434278025,0
410,465.64444444444445,1.2027777777777828,1.1499999999999773,1.1430555555555486,1.0522478736330607,0.03140255270654352,0.9279381793437352,55.55555555555556,0.9090909090760331,1.0060753341433641,4.644930986576183e-18,0.9988919333634138,0
411,466.7944444444444,1.1499999999999773,1.0972222222222285,1.1458333333333144,1.0036363636363603,0.03470265392820277,1.0254554082102412,63.888888888888886,1.045454545437438,0.957575757575779,5.762637545966842e-13,0.9989048474600115,0
412,467.89166666666665,1.0972222222222285,1.0777777777777828,1.1458333333333144,0.957575757575779,0.03155271941051364,0.9323755707616324,55.55555555555556,0.9090909090760331,0.9406060606060805,1.1211822545340879e-15,0.9994068702778491,0
413,468.96944444444443,1.0777777777777828,1.1000000000000227,1.1458333333333144,0.9406060606060805,0.034493456393946555,1.0192736693919042,63.888888888888886,1.045454545437438,0.9600000000000357,4.8945555941593e-11,0.9986683047706004,0
414,470.06944444444446,1.1000000000000227,1.13611111111112,1.13055555555556,0.9729729729729892,0.03315571551272088,0.9797437353334043,61.111111111111114,0.9999999999836364,1.0049140049140088,3.8238948682836615e-13,0.9994159827092137,0
415,471.2055555555556,1.13611111111112,1.125,1.1236111111111313,1.0111248454882469,0.03172272314846405,0.9373991419518326,55.55555555555556,0.9090909090760331,1.0012360939431217,8.822647003601917e-16,0.9955787034199934,0
416,472.3305555555556,1.125,0.7777777777777715,1.1180555555555713,1.0062111801242093,0.034587626164573254,1.0220563643632703,63.888888888888886,1.045454545437438,0.695652173913028,7.617512848799579e-13,0.9964635374127682,0
417,473.10833333333335,0.7777777777777715,1.3777777777777374,1.1166666666666458,0.6965174129353308,0.04197678274338159,1.2404042345730837,163.88888888888889,2.6818181817742976,1.2338308457711311,0.9729595184326172,0.29765582739714425,1
418,474.4861111111111,1.3777777777777374,1.0305555555555657,1.13055555555556,1.2186732186731781,0.03167370457554622,0.9359506544440663,58.333333333333336,0.9545454545298347,0.9115479115479169,2.4367363052909572e-22,0.9983377333576731,0
419,475.51666666666665,1.0305555555555657,1.0638888888889255,1.1125000000000114,0.9263420724094877,0.033380904596052315,0.9863980207333015,61.111111111111114,0.9999999999836364,0.9563046192259907,2.356941551651115e-11,0.9978222414453175,0
420,476.5805555555556,1.0638888888889255,1.0805555555555202,1.0986111111111256,0.9683944374210066,0.036026531303991464,1.0645756788851708,58.333333333333336,0.9545454545298347,0.9835651074588676,9.96137547448761e-12,0.9981695369055863,0
421,477.6611111111111,1.0805555555555202,1.0777777777777828,1.0888888888888744,0.992346938775491,0.03447912191767242,1.0188500889288772,61.111111111111114,0.9999999999836364,0.9897959183673648,1.3866126129247203e-12,0.9996588696069828,0
422,478.7388888888889,1.0777777777777828,1.0444444444444798,1.0791666666666515,0.9987129987130174,0.034159605615840895,1.0094084560093215,63.888888888888886,1.045454545437438,0.9678249678250141,5.901008414549436e-12,0.9984934383446067,0
423,479.78333333333336,1.0444444444444798,1.022222222222183,1.0791666666666515,0.9678249678250141,0.0340352388629125,1.005733447185621,61.111111111111114,0.9999999999836364,0.9472329472329243,3.166266511131499e-12,0.99952276310525,0
424,480.80555555555554,1.022222222222183,1.055555555555543,1.0708333333333542,0.954604409857273,0.03278831125505466,0.968887024379747,61.111111111111114,0.9999999999836364,0.9857328145265578,5.427209029407187e-12,0.9991259183326073,0
425,481.8611111111111,1.055555555555543,1.1388888888889142,1.0597222222222342,0.9960681520314316,0.03578673028491917,1.0574896141590904,66.66666666666667,1.0909090908912398,1.0747051114023707,5.564488869680417e-09,0.9976729324240707,0
426,483.0,1.1388888888889142,1.1194444444444684,1.0597222222222342,1.0747051114023707,0.034542670173391674,1.0207279252074646,63.888888888888886,1.045454545437438,1.056356487549159,3.6568819261791063e-13,0.9995010055934125,0
427,484.11944444444447,1.1194444444444684,1.11388888888888,1.0708333333333542,1.045395590142674,0.034753269897794085,1.0269510984207537,63.888888888888886,1.045454545437438,1.0402075226977665,1.5406946551888012e-12,0.9994437487831986,0
428,485.23333333333335,1.11388888888888,1.0583333333333371,1.0708333333333542,1.0402075226977665,0.03309243369624981,0.9778737722730607,58.333333333333336,0.9545454545298347,0.9883268482490115,4.0887737260634355e-15,0.9998686193091508,0
429,486.2916666666667,1.0583333333333371,1.0722222222221944,1.0708333333333542,0.9883268482490115,0.034177950723420336,1.0099505497010737,63.888888888888886,1.045454545437438,1.0012970168611737,2.5156021363215153e-11,0.998827217512547,0
430,487.3638888888889,1.0722222222221944,1.10277777777776,1.0749999999999886,0.9974160206718193,0.03401084881940304,1.0050127270333524,63.888888888888886,1.045454545437438,1.025839793281648,1.2090681754395316e-11,0.9988877747072524,0
431,488.46666666666664,1.10277777777776,1.1388888888889142,1.0749999999999886,1.025839793281648,0.034530739194231816,1.0203753675290221,66.66666666666667,1.0909090908912398,1.0594315245478383,3.161175141097594e-11,0.9992428765368504,0
432,489.60555555555555,1.1388888888889142,1.14722222222224,1.0874999999999773,1.0472541507024717,0.03482208089415411,1.028984447469726,63.888888888888886,1.045454545437438,1.054916985951507,1.2974469588977744e-12,0.9989395297640223,0
433,490.7527777777778,1.14722222222224,1.125,1.10833333333332,1.035087719298274,0.03510213014162852,1.0372598380488438,66.66666666666667,1.0909090908912398,1.0150375939849745,5.281665296091864e-12,0.998757814766317,0
434,491.8777777777778,1.125,1.0805555555555202,1.1166666666666742,1.0074626865671574,0.03700091250612071,1.0933684183525634,61.111111111111114,0.9999999999836364,0.9676616915422503,4.548358217837389e-12,0.9988042455709931,0
435,492.9583333333333,1.0805555555555202,1.0972222222222285,1.1166666666666742,0.9676616915422503,0.031511817998664655,0.9311669434886074,55.55555555555556,0.9090909090760331,0.9825870646766159,3.3932830198859284e-15,0.9988200382466272,0
436,494.05555555555554,1.0972222222222285,1.1555555555555657,1.10833333333332,0.9899749373433759,0.03398092902070778,1.0041286038925663,61.111111111111114,0.9999999999836364,1.0426065162907485,1.2040897792719996e-12,0.9996127652535335,0
437,495.2111111111111,1.1555555555555657,1.194444444444457,1.10833333333332,1.0426065162907485,0.03322318377159344,0.9817374067997576,61.111111111111114,0.9999999999836364,1.0776942355889967,2.70073270388152e-14,0.9998385217691182,0
438,496.40555555555557,1.194444444444457,1.1499999999999773,1.11388888888888,1.0723192019950323,0.034351386943763364,1.0150755499531656,63.888888888888886,1.045454545437438,1.0324189526184417,3.355223542576835e-14,0.9991442550763083,0
439,497.55555555555554,1.1499999999999773,1.0972222222222285,1.131944444444457,1.0159509202453674,0.03181357553034794,0.9400838088520752,58.333333333333336,0.9545454545298347,0.9693251533742279,5.294271969507821e-16,0.9991459076888345,0
440,498.65277777777777,1.0972222222222285,1.0972222222222285,1.131944444444457,0.9693251533742279,0.033487976506452834,0.9895619709549409,61.111111111111114,0.9999999999836364,0.9693251533742279,3.53534448894674e-13,0.999685744912465,0
441,499.75,1.0972222222222285,1.1722222222222172,1.131944444444457,0.9693251533742279,0.03288397427496093,0.9717138445224246,58.333333333333336,0.9545454545298347,1.0355828220858736,1.3063659041242376e-13,0.9989242272320138,0
442,500.9222222222222,1.1722222222222172,1.169444444444423,1.13611111111112,1.0317848410757822,0.03597795403651235,1.0631402318511889,66.66666666666667,1.0909090908912398,1.0293398533007065,1.0351437589040113e-11,0.9982398662970469,0
443,502.09166666666664,1.169444444444423,1.113888888888937,1.1374999999999886,1.0280830280830195,0.032176018257705025,0.9507939077310759,58.333333333333336,0.9545454545298347,0.9792429792430313,2.769219902232857e-16,0.9996460734592985,0
444,503.2055555555556,1.113888888888937,1.0805555555555202,1.131944444444457,0.9840490797546326,0.032881720876935396,0.9716472571312436,61.111111111111114,0.9999999999836364,0.9546012269938231,5.703585797016061e-14,0.9995253996487872,0
445,504.2861111111111,1.0805555555555202,1.080555555555577,1.131944444444457,0.9546012269938231,0.03205031302580869,0.947079347163025,55.55555555555556,0.9090909090760331,0.9546012269938734,5.394515671837408e-15,0.9990653238715375,0
446,505.3666666666667,1.080555555555577,1.13611111111112,1.131944444444457,0.9546012269938734,0.037703071989841845,1.114117068916801,63.888888888888886,1.045454545437438,1.0036809815950887,3.2624083434740214e-09,0.9981789505087086,0
447,506.5027777777778,1.13611111111112,1.1444444444444457,1.1250000000000284,1.0098765432098589,0.03730078575529058,1.1022296036029777,61.111111111111114,0.9999999999836364,1.0172839506172593,7.928899724285454e-12,0.9989863179475575,0
448,507.64722222222224,1.1444444444444457,1.1416666666666515,1.1250000000000284,1.0172839506172593,0.03456354026368562,1.021344631555228,61.111111111111114,0.9999999999836364,1.0148148148147758,1.261150336722902e-13,0.9996500067743683,0
449,508.7888888888889,1.1416666666666515,1.1277777777777942,1.1250000000000284,1.0148148148147758,0.03782910077580404,1.117841190432766,63.888888888888886,1.045454545437438,1.0024691358024584,5.20760413957877e-11,0.9990419725859563,0
450,509.9166666666667,1.1277777777777942,1.088888888888846,1.131944444444457,0.9963190184049113,0.03322369721690895,0.9817525789902392,58.333333333333336,0.9545454545298347,0.9619631901840004,7.072640829795156e-15,0.9995541227603948,0
451,511.00555555555553,1.088888888888846,1.0944444444444912,1.131944444444457,0.9619631901840004,0.03107693690345813,0.9183163075709464,55.55555555555556,0.9090909090760331,0.9668711656442023,1.4841130025429797e-15,0.9987091487653272,0
452,512.1,1.0944444444444912,1.1749999999999545,1.1208333333333655,0.9764560099132726,0.03382965616659594,0.9996585259934717,61.111111111111114,0.9999999999836364,1.0483271375463976,2.2845948223493284e-12,0.9990265016880613,0
453,513.275,1.1749999999999545,1.1777777777778056,1.1208333333333655,1.0483271375463976,0.03496111373790039,1.0330928358896272,66.66666666666667,1.0909090908912398,1.0508054522924357,1.7016213741880004e-12,0.9994837364200334,0
454,514.4527777777778,1.1777777777778056,1.161111111111154,1.131944444444457,1.0404907975460251,0.03348886608804596,0.9895882578855487,61.111111111111114,0.9999999999836364,1.0257668711656707,6.966549953151555e-15,0.9997348537784404,0
455,515.6138888888889,1.161111111111154,1.0916666666665833,1.1388888888888857,1.0195121951219916,0.03322689120168664,0.9818469605026964,61.111111111111114,0.9999999999836364,0.9585365853657831,5.91008938023805e-15,0.9998376714676456,0
456,516.7055555555555,1.0916666666665833,1.1000000000000227,1.1388888888888857,0.9585365853657831,0.03063836905495537,0.9053567289449211,52.77777777777778,0.8636363636222314,0.965853658536608,1.509065957894381e-16,0.9978189794989435,0
457,517.8055555555555,1.1000000000000227,1.1888888888888687,1.1347222222222229,0.9694002447980611,0.03364203156421435,0.9941142623292701,61.111111111111114,0.9999999999836364,1.0477356181150368,1.4763006355583697e-12,0.9996232855672549,0
458,518.9944444444444,1.1888888888888687,1.1861111111111313,1.1347222222222229,1.0477356181150368,0.033981566818694804,1.0041474506757688,61.111111111111114,0.9999999999836364,1.0452876376989155,1.1878063298025564e-14,0.9992542307473932,0
459,520.1805555555555,1.1861111111111313,1.1361111111111768,1.1444444444444741,1.036407766990282,0.03411932704807703,1.0082182336351517,61.111111111111114,0.9999999999836364,0.9927184466019734,8.623140992491257e-15,0.9992395371096271,0
460,521.3166666666667,1.1361111111111768,1.0972222222221717,1.1486111111111654,0.9891172914147626,0.03174731459007956,0.9381258133716175,58.333333333333336,0.9545454545298347,0.955259975816114,1.3912094759760624e-15,0.9990813580424744,0
461,522.4138888888889,1.0972222222221717,1.0805555555555202,1.1486111111111654,0.955259975816114,0.032613365606553514,0.9637174208742194,58.333333333333336,0.9545454545298347,0.940749697702464,2.487201457702752e-14,0.9993819154860402,0
462,523.4944444444444,1.0805555555555202,1.1333333333333258,1.1486111111111654,0.940749697702464,0.03174971948509991,0.9381968774640035,55.55555555555556,0.9090909090760331,0.9866989117290882,8.564395022434435e-15,0.9992971686687817,0
463,524.6277777777777,1.1333333333333258,1.127777777777851,1.1347222222222513,0.9987760097918894,0.033942823540058904,1.0030025957407205,61.111111111111114,0.9999999999836364,0.9938800489596474,2.270917286682772e-13,0.9977888831038833,0
464,525.7555555555556,1.127777777777851,1.125,1.1305555555555884,0.9975429975430333,0.03307147829059961,0.9772545448762253,58.333333333333336,0.9545454545298347,0.9950859950859662,1.1062749193547095e-14,0.9991992982266096,0
465,526.8805555555556,1.125,1.1083333333333485,1.1263888888889255,0.9987669543772795,0.033724370493329006,0.9965473586665576,61.111111111111114,0.9999999999836364,0.9839704069050369,1.0975009285705759e-13,0.9993995791038298,0
466,527.9888888888889,1.1083333333333485,1.066666666666606,1.1263888888889255,0.9839704069050369,0.033211300946768545,0.981386272070791,58.333333333333336,0.9545454545298347,0.9469790382243297,2.7593998998742472e-14,0.9979523270927034,0
467,529.0555555555555,1.066666666666606,1.0833333333333712,1.1263888888889255,0.9469790382243297,0.03403139931206754,1.0056199893449842,61.111111111111114,0.9999999999836364,0.9617755856966731,1.4545809869093151e-11,0.9960772803446373,0
468,530.1388888888889,1.0833333333333712,1.14722222222224,1.1166666666666742,0.9701492537313706,0.03333821740652352,0.9851366241423041,61.111111111111114,0.9999999999836364,1.027363184079611,1.4732964197586296e-12,0.9990947080875299,0
469,531.2861111111112,1.14722222222224,1.1722222222222172,1.1166666666666742,1.027363184079611,0.03442810995721016,1.0173426972795914,63.888888888888886,1.045454545437438,1.049751243781083,1.128080376507079e-12,0.9985629816120164,0
470,532.4583333333334,1.1722222222222172,1.1388888888888005,1.1166666666666742,1.049751243781083,0.03296439056291257,0.9740901272574225,58.333333333333336,0.9545454545298347,1.0199004975123518,9.552263714312234e-16,0.9985315807016198,0
471,533.5972222222222,1.1388888888888005,1.094444444444548,1.1263888888889255,1.0110974106040809,0.032156912344850595,0.9502293324191731,58.333333333333336,0.9545454545298347,0.9716399506782355,1.2622776147559202e-15,0.9993060890211243,0
472,534.6916666666667,1.094444444444548,1.0722222222221944,1.1263888888889255,0.9716399506782355,0.03193939453439447,0.9438017313608861,55.55555555555556,0.9090909090760331,0.9519112207151108,1.769406934068029e-15,0.9990615925800292,0
473,535.7638888888889,1.0722222222221944,1.1277777777777374,1.1166666666666742,0.960199004975093,0.032319192383291374,0.9550246700728279,58.333333333333336,0.9545454545298347,1.0099502487561758,1.2551079424903688e-13,0.9989080369339286,0
474,536.8916666666667,1.1277777777777374,1.1666666666666288,1.1166666666666742,1.0099502487561758,0.03415131471073651,1.0091634616784604,63.888888888888886,1.045454545437438,1.0447761194029441,1.944035427428603e-12,0.9991134726468411,0
475,538.0583333333333,1.1666666666666288,1.125,1.118055555555543,1.0434782608695432,0.03142439162526252,0.928583514347686,58.333333333333336,0.9545454545298347,1.006211180124235,1.7385151395558522e-16,0.9987357085425808,0
476,539.1833333333333,1.125,1.0638888888889824,1.1263888888888687,0.9987669543773299,0.03200305475064529,0.9456828760473213,58.333333333333336,0.9545454545298347,0.9445129469791381,1.899564134325493e-15,0.9988013441528418,0
477,540.2472222222223,1.0638888888889824,1.069444444444457,1.1263888888888687,0.9445129469791381,0.03268260437577462,0.9657634105124326,61.111111111111114,0.9999999999836364,0.9494451294698186,6.917157276652153e-13,0.9997220040806842,0
478,541.3166666666667,1.069444444444457,1.1055555555554974,1.1263888888888687,0.9494451294698186,0.032580020988283644,0.9627320951060437,58.333333333333336,0.9545454545298347,0.9815043156596455,1.4478172892344598e-13,0.9991773309928507,0
479,542.4222222222222,1.1055555555554974,1.1722222222222172,1.1152777777777487,0.9912826899128007,0.033466179966671394,0.9889178882388067,61.111111111111114,0.9999999999836364,1.0510585305106082,5.640990604315055e-13,0.9996120422492663,0
480,543.5944444444444,1.1722222222222172,1.1499999999999773,1.1152777777777487,1.0510585305106082,0.03342837708139028,0.9878008217101868,58.333333333333336,0.9545454545298347,1.031133250311339,1.4837394610132406e-15,0.9993298492965581,0
481,544.7444444444444,1.1499999999999773,1.1111111111111995,1.1152777777777487,1.031133250311339,0.03405922050268712,1.0064420991018552,63.888888888888886,1.045454545437438,0.9962640099627453,1.7136650171806211e-13,0.9994631319908298,0
482,545.8555555555556,1.1111111111111995,1.1055555555554974,1.1180555555555998,0.9937888198758161,0.032828799486816614,0.9700834422766337,58.333333333333336,0.9545454545298347,0.9888198757763065,1.9536979252812205e-14,0.9984759013331832,0
483,546.9611111111111,1.1055555555554974,1.1055555555556111,1.1180555555555998,0.9888198757763065,0.03386021011634913,1.000561388151548,61.111111111111114,0.9999999999836364,0.9888198757764082,3.3928659578033593e-13,0.9995006214345464,0
484,548.0666666666667,1.1055555555556111,1.1333333333333258,1.1083333333334053,0.997493734335825,0.033991321827038325,1.0044357089191787,61.111111111111114,0.9999999999836364,1.0225563909773703,4.703050015403276e-13,0.999783717267801,0
485,549.2,1.1333333333333258,1.1611111111110404,1.1083333333334053,1.0225563909773703,0.035308703413337895,1.043364030515055,66.66666666666667,1.0909090908912398,1.0476190476189158,4.938347647476249e-11,0.9973055127592272,0
486,550.3611111111111,1.1611111111110404,1.1222222222222626,1.1083333333334053,1.0476190476189158,0.03477905880978747,1.0277131548136218,63.888888888888886,1.045454545437438,1.0125313283207726,2.819875409565409e-13,0.9987301584966166,0
487,551.4833333333333,1.1222222222222626,1.091666666666697,1.116666666666731,1.0049751243780878,0.03778154993659307,1.116436074117031,63.888888888888886,1.045454545437438,0.9776119402984782,1.3761830564007482e-10,0.9984637313706604,0
488,552.575,1.091666666666697,1.0722222222221944,1.116666666666731,0.9776119402984782,0.03289276367179544,0.9719735691687729,58.333333333333336,0.9545454545298347,0.9601990049750441,3.6749408719024754e-14,0.9987493101882469,0
489,553.6472222222222,1.0722222222221944,1.0749999999999318,1.116666666666731,0.9601990049750441,0.03394032246478953,1.0029286895441907,63.888888888888886,1.045454545437438,0.9626865671640625,7.014926139969901e-11,0.9954075473606132,0
490,554.7222222222222,1.0749999999999318,1.1333333333334394,1.1083333333334053,0.9699248120299506,0.038734866276964895,1.1446063517849012,66.66666666666667,1.0909090908912398,1.0225563909774729,1.6191158636047476e-07,0.997783283166238,0
491,555.8555555555556,1.1333333333334394,1.0861111111111086,1.1083333333334053,1.0225563909774729,0.03609348249252703,1.066554071042495,69.44444444444444,1.1363636363450413,0.9799498746866508,4.3314357656143443e-10,0.9976705881473584,0
492,556.9416666666667,1.0861111111111086,1.0,1.1055555555555543,0.9824120603015064,0.03481034389556991,1.02863762187249,66.66666666666667,1.0909090908912398,0.9045226130653277,6.220145232216368e-11,0.9990405415038673,0
493,557.9416666666667,1.0,0.9916666666665606,1.098611111111154,0.9102402022755649,0.033259569714397,0.9828126030054409,58.333333333333336,0.9545454545298347,0.9026548672565053,4.5384702940243216e-12,0.999020848170256,0
494,558.9333333333333,0.9916666666665606,1.0083333333334394,1.0888888888889028,0.9107142857141767,0.03815590710925391,1.127498242102845,63.888888888888886,1.045454545437438,0.926020408163351,5.298213068272162e-07,0.9983603162521637,0
495,559.9416666666667,1.0083333333334394,1.0583333333332803,1.0805555555555202,0.9331619537276352,0.03407621420554233,1.006944259096144,61.111111111111114,0.9999999999836364,0.9794344473007541,6.916728995109978e-11,0.9994224567198384,0
496,561.0,1.0583333333332803,1.0722222222221944,1.073611111111063,0.9857697283311719,0.03559682010575692,1.0518778122289263,66.66666666666667,1.0909090908912398,0.9987063389392167,1.305357266723206e-09,0.9986449886623057,0
497,562.0722222222222,1.0722222222221944,1.0249999999999773,1.0722222222221944,1.0,0.03441233366261766,1.0168765114182774,61.111111111111114,0.9999999999836364,0.9559585492228015,8.195812735076191e-13,0.9996779812159975,0
498,563.0972222222222,1.0249999999999773,0.9722222222222854,1.0652777777777374,0.9621903520208757,0.032373827453860374,0.9566391237889281,58.333333333333336,0.9545454545298347,0.9126466753586336,1.4219251861027904e-13,0.9990236815541269,0
499,564.0694444444445,0.9722222222222854,1.011111111111063,1.0416666666666288,0.9333333333334279,0.03583254225998093,1.0588433474408465,58.333333333333336,0.9545454545298347,0.9706666666666559,8.301963005941104e-10,0.9978687476396357,0
500,565.0805555555555,1.011111111111063,1.0444444444444798,1.0180555555555202,0.993178717598896,0.033305604088497365,0.9841729081274196,58.333333333333336,0.9545454545298347,1.0259208731242178,1.4087147247321408e-12,0.9996488408790438,0
501,566.125,1.0444444444444798,1.1277777777777374,1.0180555555555202,1.0259208731242178,0.03408622682620626,1.0072401297241205,61.111111111111114,0.9999999999836364,1.1077762619372429,1.17247279593502e-11,0.9995289698879447,0
502,567.2527777777777,1.1277777777777374,1.1527777777778283,1.0180555555555202,1.1077762619372429,0.0349692862973041,1.0333343331323683,63.888888888888886,1.045454545437438,1.1323328785812623,1.8986396656262006e-12,0.9996039693967601,0
503,568.4055555555556,1.1527777777778283,1.1222222222222626,1.0347222222222285,1.1140939597315858,0.03484709345683095,1.0297235629196058,63.888888888888886,1.045454545437438,1.0845637583892942,3.2758453068215676e-13,0.9983425087498394,0
504,569.5277777777778,1.1222222222222626,1.0916666666665833,1.05138888888888,1.0673712021136537,0.03275271095898763,0.9678350438536654,58.333333333333336,0.9545454545298347,1.0383091149272743,2.7370527143301317e-15,0.9994437111120829,0
505,570.6194444444444,1.0916666666665833,1.0888888888889596,1.0652777777777374,1.024771838331121,0.030301204334141688,0.8953935893207469,52.77777777777778,0.8636363636222314,1.0221642764016696,9.268898238580067e-17,0.99538949900256,0
506,571.7083333333334,1.0888888888889596,1.1166666666666742,1.080555555555577,1.0077120822622563,0.033656349747235956,0.9945373613304482,58.333333333333336,0.9545454545298347,1.0334190231362332,1.7069384913772495e-13,0.998388074164537,0
507,572.825,1.1166666666666742,1.1777777777776919,1.0902777777777715,1.0242038216560638,0.033772416155270726,0.9979670968796958,61.111111111111114,0.9999999999836364,1.080254777069991,3.637265727322869e-13,0.9997034963364402,0
508,574.0027777777777,1.1777777777776919,1.161111111111154,1.1041666666666288,1.0666666666666256,0.03468812207635272,1.0250259953445342,61.111111111111114,0.9999999999836364,1.0515723270441002,4.212858631825328e-14,0.9981544589645615,0
509,575.1638888888889,1.161111111111154,1.0833333333333712,1.1194444444444684,1.0372208436724728,0.03629849816058652,1.0726122366806161,58.333333333333336,0.9545454545298347,0.9677419354838841,6.410170517220232e-14,0.998078524553087,0
510,576.2472222222223,1.0833333333333712,1.0749999999999318,1.1194444444444684,0.9677419354838841,0.030830197981058884,0.9110252294040213,55.55555555555556,0.9090909090760331,0.9602977667492981,1.4662856059812369e-15,0.9977874431486573,0
511,577.3222222222222,1.0749999999999318,1.091666666666697,1.1194444444444684,0.9602977667492981,0.030793049619213784,0.9099275038917587,52.77777777777778,0.8636363636222314,0.9751861042183685,5.331847939234798e-16,0.9969728058354212,0
