beat_index,peak_time_s,rr_prev_s,rr_next_s,rr_baseline_s,prematurity_index,aa_ratio,morph_index,qrs_width_ms,width_index,pause_index,pvc_score,morphology_score,is_pvc_candidate
0,0.26944444444444443,,0.9222222222222223,0.6111111111110858,,0.043181947803318486,1.0807603978845963,75.0,1.0384615384471596,1.5090909090909717,0.003871553111821413,0.9898721327204454,0
1,1.1916666666666667,0.9222222222222223,0.6416666666666666,0.6111111111110858,1.5090909090909717,0.0396134601646498,0.9914480737212696,69.44444444444444,0.9615384615251478,1.0500000000000433,0.00010817543079610914,0.9956650091762015,0
2,1.8333333333333333,0.6416666666666666,0.5638888888888889,0.6111111111110858,1.0500000000000433,0.042282815540168196,1.0582568612933518,72.22222222222223,0.9999999999861537,0.9227272727273108,0.00021375746291596442,0.9977703491926923,0
3,2.397222222222222,0.5638888888888889,0.38611111111111107,0.6111111111110858,0.9227272727273108,0.03917084171260338,0.980370192368544,72.22222222222223,0.9999999999861537,0.6318181818182079,4.403216371429153e-05,0.9956154327080915,0
4,2.783333333333333,0.38611111111111107,0.7416666666666667,0.6111111111110858,0.6318181818182079,0.033249059099112334,0.8321594594323417,50.0,0.6923076922981064,1.2136363636364138,0.04897874966263771,0.9684629896334583,0
5,3.525,0.7416666666666667,0.5944444444444446,0.6416666666666666,1.155844155844156,0.04071442739418969,1.0190031480424886,66.66666666666667,0.9230769230641419,0.9264069264069267,4.370585520518944e-05,0.9948188563265202,0
6,4.1194444444444445,0.5944444444444446,0.6500000000000004,0.6180555555555556,0.9617977528089889,0.037997518311467304,0.95100418341418,63.888888888888886,0.8846153846031359,1.0516853932584276,9.816069359658286e-05,0.9952095593866593,0
7,4.769444444444445,0.6500000000000004,0.4388888888888882,0.6416666666666666,1.0129870129870135,0.03806963545853637,0.9528091357270231,66.66666666666667,0.9230769230641419,0.683982683982683,2.647155270096846e-05,0.9916166510401234,0
8,5.208333333333333,0.4388888888888882,0.6277777777777782,0.6180555555555556,0.7101123595505607,0.038256306947847936,0.9574811610367885,52.77777777777778,0.7307692307591124,1.0157303370786523,0.060454078018665314,0.9618455451077106,0
9,5.836111111111111,0.6277777777777782,0.41388888888888875,0.6277777777777782,1.0,0.03790220754773893,0.9486187398626539,75.0,1.0384615384471596,0.6592920353982294,0.00039792279130779207,0.9831034170682045,0
10,6.25,0.41388888888888875,0.3305555555555557,0.6111111111111114,0.6772727272727267,0.035503708491983,0.8885889606217693,61.111111111111114,0.8461538461421301,0.5409090909090909,0.9974684715270996,0.3935900682746826,1
11,6.580555555555556,0.3305555555555557,0.41388888888888875,0.5791666666666667,0.5707434052757796,0.03034146544958522,0.7593880299483721,52.77777777777778,0.7307692307591124,0.71462829736211,0.9834790229797363,0.34699083709495115,1
12,6.9944444444444445,0.41388888888888875,0.3944444444444448,0.5013888888888886,0.8254847645429366,0.03587986772979939,0.8980034967464962,66.66666666666667,0.9230769230641419,0.7867036011080345,0.002501315902918577,0.9839659920013437,0
13,7.388888888888889,0.3944444444444448,0.36944444444444446,0.4263888888888885,0.9250814332247574,0.031414863637664624,0.7862531046347008,50.0,0.6923076922981064,0.8664495114006523,0.0005777457845397294,0.9757546209569852,0
14,7.758333333333334,0.36944444444444446,0.3888888888888884,0.4263888888888885,0.8664495114006523,0.0334096004604061,0.8361774983197735,52.77777777777778,0.7307692307591124,0.9120521172638434,0.0021145862992852926,0.9782946030007205,0
15,8.147222222222222,0.3888888888888884,0.5333333333333332,0.41388888888888875,0.9395973154362407,0.03854130147990745,0.9646140213993287,77.77777777777777,1.0769230769081655,1.2885906040268458,0.011055950075387955,0.9910009963309319,0
16,8.680555555555555,0.5333333333333332,0.5777777777777775,0.41388888888888875,1.2885906040268458,0.04313203690861681,1.0795112249972998,77.77777777777777,1.0769230769081655,1.3959731543624159,0.04163476452231407,0.9878706578951062,0
17,9.258333333333333,0.5777777777777775,0.3583333333333343,0.41388888888888875,1.3959731543624159,0.04171989008548829,1.0441679290119676,75.0,1.0384615384471596,0.8657718120805394,0.09442007541656494,0.9950765228802805,0
18,9.616666666666667,0.3583333333333343,0.6972222222222211,0.4041666666666668,0.886597938144332,0.036716249209665146,0.9189365029434411,61.111111111111114,0.8461538461421301,1.7250859106529177,0.0010426158551126719,0.9897672848769081,0
19,10.313888888888888,0.6972222222222211,0.3916666666666675,0.4041666666666668,1.7250859106529177,0.04002035278596024,1.0016318068244343,69.44444444444444,0.9615384615251478,0.9690721649484554,0.011096611618995667,0.998235823985349,0
20,10.705555555555556,0.3916666666666675,0.38333333333333286,0.39305555555555616,0.9964664310954069,0.03312445753391888,0.8290409239325333,119.44444444444444,1.6538461538232543,0.9752650176678418,0.5155171155929565,0.3524040130003785,1
21,11.088888888888889,0.38333333333333286,0.6777777777777789,0.39305555555555616,0.9752650176678418,0.03769261970796195,0.9433731627492534,66.66666666666667,0.9230769230641419,1.7243816254416964,0.001988485688343644,0.9886892987468477,0
22,11.766666666666667,0.6777777777777789,0.8444444444444432,0.39305555555555616,1.7243816254416964,0.043770182845545444,1.0954827800518503,86.11111111111111,1.1923076922911833,2.1484098939929264,0.0024572964757680893,0.9962550683164701,0
23,12.61111111111111,0.8444444444444432,0.5055555555555564,0.46250000000000036,1.8258258258258218,0.03765101633105656,0.9423319109191505,47.22222222222222,0.6538461538371005,1.0930930930930942,0.7712753415107727,0.6726745084337739,1
24,13.116666666666667,0.5055555555555564,0.38055555555555465,0.5194444444444448,0.9732620320855625,0.04141577000686676,1.0365563933148578,50.0,0.6923076922981064,0.7326203208556127,0.07294131070375443,0.9366985664291547,0
25,13.497222222222222,0.38055555555555465,0.6194444444444454,0.5194444444444448,0.7326203208556127,0.04071841535758352,1.019102959031189,58.333333333333336,0.8076923076811242,1.1925133689839582,0.0021114221308380365,0.9972724226068412,0
26,14.116666666666667,0.6194444444444454,0.45833333333333215,0.541666666666667,1.1435897435897446,0.0404283127301341,1.0118422529486926,66.66666666666667,0.9230769230641419,0.8461538461538435,0.0008476153598167002,0.9985902816626879,0
27,14.575,0.45833333333333215,0.5166666666666675,0.4819444444444443,0.951008645533139,0.037952173000253775,0.9498692782261938,55.55555555555556,0.7692307692201182,1.0720461095100886,0.002366734202951193,0.9940730767135815,0
28,15.091666666666667,0.5166666666666675,0.5999999999999996,0.511111111111112,1.0108695652173914,0.04132267514961446,1.0342264096044593,69.44444444444444,0.9615384615251478,1.1739130434782583,0.004057529382407665,0.9958064615525087,0
29,15.691666666666666,0.5999999999999996,0.3999999999999986,0.511111111111112,1.1739130434782583,0.03981695800185483,0.9965412298824529,63.888888888888886,0.8846153846031359,0.7826086956521698,0.0011049754684790969,0.9976797250075407,0
30,16.091666666666665,0.3999999999999986,0.658333333333335,0.511111111111112,0.7826086956521698,0.039087966074908304,0.9782959759024821,61.111111111111114,0.8461538461421301,1.2880434782608707,0.0016120747895911336,0.9976896562832007,0
31,16.75,0.658333333333335,0.466666666666665,0.5583333333333336,1.1791044776119428,0.03807969021837555,0.9530607868636026,66.66666666666667,0.9230769230641419,0.8358208955223847,0.00030658222385682166,0.9983424311211879,0
32,17.216666666666665,0.466666666666665,0.6527777777777786,0.511111111111112,0.9130434782608648,0.038654044399525606,0.9674357580013963,63.888888888888886,0.8846153846031359,1.2771739130434776,0.0018416624516248703,0.9958761106665598,0
33,17.869444444444444,0.6527777777777786,0.7722222222222221,0.511111111111112,1.2771739130434776,0.04088795853438184,1.0233462959007937,75.0,1.0384615384471596,1.5108695652173887,0.002109882654622197,0.9986300668554542,0
34,18.641666666666666,0.7722222222222221,0.6444444444444457,0.5583333333333336,1.3830845771144271,0.042526650452508044,1.0643595762074374,69.44444444444444,0.9615384615251478,1.1542288557213949,0.0022055641748011112,0.998482222223213,0
35,19.28611111111111,0.6444444444444457,0.9333333333333336,0.6097222222222225,1.0569476082004572,0.041795666718337926,1.046064471155966,69.44444444444444,0.9615384615251478,1.5307517084282458,0.003598002018406987,0.9978107331313372,0
36,20.219444444444445,0.9333333333333336,0.8555555555555543,0.6222222222222227,1.4999999999999993,0.042999437822093055,1.0761925270505728,75.0,1.0384615384471596,1.374999999999997,0.00119725801050663,0.9982014891431369,0
37,21.075,0.8555555555555543,0.4527777777777793,0.6486111111111121,1.3190578158458204,0.04069140248068183,1.01842687911647,69.44444444444444,0.9615384615251478,0.6980728051391875,1.6201543985516764e-05,0.9983791091862146,0
38,21.52777777777778,0.4527777777777793,0.36666666666666714,0.6486111111111121,0.6980728051391875,0.037398199308327634,0.9360043912037125,55.55555555555556,0.7692307692201182,0.5653104925053531,2.6991532649844885e-05,0.9920268496193232,0
39,21.894444444444446,0.36666666666666714,0.7527777777777764,0.6486111111111121,0.5653104925053531,0.038537711305470755,0.9645241662966746,61.111111111111114,0.8461538461421301,1.1605995717344715,0.008554124273359776,0.9959809248662881,0
40,22.647222222222222,0.7527777777777764,0.44166666666666643,0.6555555555555568,1.1483050847457585,0.04261953054576426,1.0666841847915698,69.44444444444444,0.9615384615251478,0.6737288135593205,2.09955069294665e-05,0.9986903768302829,0
41,23.08888888888889,0.44166666666666643,0.6333333333333329,0.6486111111111121,0.6809421841541742,0.04178166764115901,1.045714101406764,69.44444444444444,0.9615384615251478,0.976445396145608,0.005245480686426163,0.9961023230214885,0
42,23.72222222222222,0.6333333333333329,0.9305555555555571,0.6486111111111121,0.976445396145608,0.04239867048190744,1.0611564857730373,77.77777777777777,1.0769230769081655,1.4346895074946469,0.008576350286602974,0.9981184370199436,0
43,24.65277777777778,0.9305555555555571,0.6583333333333314,0.6986111111111111,1.3320079522862847,0.04080325600637863,1.0212263559137527,69.44444444444444,0.9615384615251478,0.9423459244532777,1.5784675042596064e-06,0.9979524943699476,0
44,25.31111111111111,0.6583333333333314,0.5,0.6513888888888886,1.010660980810232,0.044174004155176416,1.1055896441807886,86.11111111111111,1.1923076922911833,0.7675906183368874,0.0006681156810373068,0.9955680465557404,0
45,25.81111111111111,0.5,0.3888888888888893,0.6458333333333321,0.7741935483870982,0.04172025253430756,1.044177000402909,72.22222222222223,0.9999999999861537,0.6021505376344103,0.00016731784853618592,0.9944766255159307,0
46,26.2,0.3888888888888893,0.6638888888888879,0.5666666666666664,0.6862745098039226,0.03996328562370443,1.000203526440542,75.0,1.0384615384471596,1.1715686274509791,0.013180864974856377,0.9980383242105495,0
47,26.863888888888887,0.6638888888888879,0.7750000000000021,0.5666666666666664,1.1715686274509791,0.041013390059904384,1.0264856036978498,72.22222222222223,0.9999999999861537,1.3676470588235337,0.002019669162109494,0.9985952336005348,0
48,27.63888888888889,0.7750000000000021,0.6027777777777779,0.6458333333333321,1.2000000000000055,0.03849732054990326,0.963513264026661,66.66666666666667,0.9230769230641419,0.9333333333333351,1.7347667380818166e-05,0.9966716290782869,0
49,28.241666666666667,0.6027777777777779,0.9138888888888879,0.6458333333333321,0.9333333333333351,0.03919523161532023,0.980980624326933,69.44444444444444,0.9615384615251478,1.4150537634408613,0.0044567459262907505,0.9984363272752073,0
50,29.155555555555555,0.9138888888888879,0.9250000000000007,0.6458333333333321,1.4150537634408613,0.03901932735474257,0.9765780818682785,66.66666666666667,0.9230769230641419,1.4322580645161327,0.00023466504353564233,0.9986269840819353,0
51,30.080555555555556,0.9250000000000007,0.6972222222222229,0.6611111111111097,1.3991596638655504,0.04045350677609468,1.0124728110527572,72.22222222222223,0.9999999999861537,1.0546218487394992,9.63941329246154e-06,0.998908943451147,0
52,30.77777777777778,0.6972222222222229,0.7249999999999979,0.6805555555555554,1.0244897959183685,0.039037727666760454,0.9770386059888724,63.888888888888886,0.8846153846031359,1.0653061224489768,7.921938049548771e-06,0.9968895140781514,0
53,31.502777777777776,0.7249999999999979,0.8638888888888907,0.6805555555555554,1.0653061224489768,0.043896824562407254,1.098652376590843,83.33333333333333,1.1538461538301772,1.2693877551020438,0.0038501990493386984,0.9964294594899394,0
54,32.36666666666667,0.8638888888888907,0.5694444444444429,0.7111111111111104,1.2148437500000038,0.040007221947408605,1.001303167404039,66.66666666666667,0.9230769230641419,0.8007812499999987,1.2857034334956552e-06,0.998887291329497,0
55,32.93611111111111,0.5694444444444429,0.44444444444444287,0.7111111111111104,0.8007812499999987,0.03953092706037855,0.9893824302024289,69.44444444444444,0.9615384615251478,0.6249999999999984,1.4436138371820562e-05,0.9970419905599797,0
56,33.38055555555555,0.44444444444444287,0.7194444444444485,0.7111111111111104,0.6249999999999984,0.03838727931518006,0.9607591453573308,69.44444444444444,0.9615384615251478,1.0117187500000069,0.009798068553209305,0.9976482432582331,0
57,34.1,0.7194444444444485,0.6944444444444429,0.7222222222222232,0.9961538461538505,0.042693156325331404,1.0685268952496985,80.55555555555556,1.1153846153691716,0.961538461538458,4.001245542895049e-05,0.9987217496817626,0
58,34.794444444444444,0.6944444444444429,0.6361111111111128,0.7083333333333357,0.9803921568627396,0.03850336131201723,0.9636644525857218,63.888888888888886,0.8846153846031359,0.898039215686274,1.360191049570858e-06,0.99791591762773,0
59,35.43055555555556,0.6361111111111128,0.6555555555555515,0.7083333333333357,0.898039215686274,0.04009434315718901,1.0034836423046922,66.66666666666667,0.9230769230641419,0.9254901960784225,7.403636118397117e-06,0.9968964602823138,0
60,36.08611111111111,0.6555555555555515,0.5722222222222229,0.6958333333333329,0.9421157684630685,0.04373739096864793,1.094662062976174,77.77777777777777,1.0769230769081655,0.8223552894211591,5.2990468248026446e-05,0.9974586462904016,0
61,36.65833333333333,0.5722222222222229,0.9527777777777828,0.6749999999999972,0.8477366255144078,0.04365498293792892,1.0925995498057535,77.77777777777777,1.0769230769081655,1.4115226337448694,0.04817042872309685,0.996510201354551,0
62,37.611111111111114,0.9527777777777828,0.6555555555555515,0.6749999999999972,1.4115226337448694,0.04047532070575297,1.0130187714018435,75.0,1.0384615384471596,0.9711934156378581,9.684729775472078e-06,0.9988597623854614,0
63,38.266666666666666,0.6555555555555515,0.6638888888888914,0.6555555555555515,1.0,0.039859453035412024,0.9976047981490946,69.44444444444444,0.9615384615251478,1.0127118644067898,3.025395744771231e-05,0.9975044880983226,0
64,38.93055555555556,0.6638888888888914,0.7611111111111128,0.6555555555555515,1.0127118644067898,0.03937058487644762,0.9853693763380649,69.44444444444444,0.9615384615251478,1.1610169491525524,0.00017475849017500877,0.9947662524227294,0
65,39.69166666666667,0.7611111111111128,0.8333333333333286,0.6597222222222214,1.1536842105263199,0.039489515853655816,0.9883459880192649,69.44444444444444,0.9615384615251478,1.2631578947368365,0.0002155001857317984,0.9974908595367115,0
66,40.525,0.8333333333333286,0.5444444444444443,0.6791666666666671,1.226993865030667,0.04036020642755137,1.0101376842939154,69.44444444444444,0.9615384615251478,0.8016359918200401,6.822765044489643e-06,0.9987959672552251,0
67,41.06944444444444,0.5444444444444443,0.3916666666666657,0.6597222222222214,0.8252631578947376,0.04094253753370562,1.024712302392534,69.44444444444444,0.9615384615251478,0.593684210526315,1.766798050084617e-05,0.9970508314102605,0
68,41.46111111111111,0.3916666666666657,0.88055555555556,0.6555555555555515,0.5974576271186464,0.041076589869725955,1.02806737235544,72.22222222222223,0.9999999999861537,1.343220338983066,0.03662453591823578,0.9985565317493684,0
69,42.34166666666667,0.88055555555556,0.5305555555555515,0.6597222222222214,1.3347368421052714,0.047391166479756205,1.1861089771624516,86.11111111111111,1.1923076922911833,0.8042105263157843,0.0009603817015886307,0.9932707450614862,0
70,42.87222222222222,0.5305555555555515,0.5416666666666714,0.6597222222222214,0.8042105263157843,0.042767815396245246,1.0703954669860651,72.22222222222223,0.9999999999861537,0.8210526315789556,0.00015630037523806095,0.9975640556305474,0
71,43.41388888888889,0.5416666666666714,0.8333333333333286,0.6597222222222214,0.8210526315789556,0.04076217074849179,1.0201980715977412,72.22222222222223,0.9999999999861537,1.2631578947368365,0.00669683376327157,0.9988041516718109,0
72,44.24722222222222,0.8333333333333286,0.38611111111111285,0.6597222222222214,1.2631578947368365,0.03956503307552526,0.990236037609582,75.0,1.0384615384471596,0.5852631578947401,1.525484458397841e-05,0.9978991532758935,0
73,44.63333333333333,0.38611111111111285,0.6611111111111114,0.6041666666666679,0.6390804597701165,0.033252180697755235,0.832237586991726,136.11111111111111,1.8846153845892897,1.0942528735632169,0.9595074653625488,0.4379316876433312,1
74,45.294444444444444,0.6611111111111114,0.8055555555555571,0.6027777777777779,1.0967741935483875,0.0392062435878337,0.9812562326401421,72.22222222222223,0.9999999999861537,1.3364055299539195,0.002615866484120488,0.9932771496739474,0
75,46.1,0.8055555555555571,0.4138888888888843,0.6027777777777779,1.3364055299539195,0.042194639519386574,1.0560499865192479,77.77777777777777,1.0769230769081655,0.6866359447004532,0.0008516872767359018,0.9915617599185875,0
76,46.513888888888886,0.4138888888888843,0.3083333333333371,0.5430555555555578,0.7621483375958963,0.037013193399262734,0.926368440056624,94.44444444444444,1.307692307674201,0.5677749360613856,0.9946101903915405,0.29078138577513674,1
77,46.82222222222222,0.3083333333333371,0.3305555555555557,0.5361111111111114,0.5751295336787632,0.04286590843470734,1.0728505454776809,102.77777777777777,1.4230769230572187,0.616580310880829,0.9852193593978882,0.4545063433121814,1
78,47.15277777777778,0.3305555555555557,0.8333333333333357,0.5361111111111114,0.616580310880829,0.0404507120519506,1.0124028645280732,130.55555555555554,1.8076923076672777,1.5544041450777237,0.9487786293029785,0.4176436485098323,1
79,47.986111111111114,0.8333333333333357,0.42777777777777715,0.5361111111111114,1.5544041450777237,0.03587672578987971,0.8979248600844079,72.22222222222223,0.9999999999861537,0.7979274611398948,0.001137883635237813,0.9911096170095945,0
80,48.41388888888889,0.42777777777777715,0.61944444444444,0.4847222222222243,0.8825214899713416,0.03809278305853722,0.9533884752579987,144.44444444444446,1.9999999999723075,1.2779369627507018,0.9748914837837219,0.4021231610998594,1
81,49.03333333333333,0.61944444444444,0.75,0.5236111111111086,1.1830238726790423,0.046449925132326084,1.162551531866391,86.11111111111111,1.1923076922911833,1.4323607427055771,0.04536056891083717,0.9873699624300422,0
82,49.78333333333333,0.75,0.8527777777777814,0.5236111111111086,1.4323607427055771,0.025967159830988934,0.6499076447106399,30.555555555555557,0.42307692307106504,1.6286472148541262,0.042048122733831406,0.7353378870872203,0
83,50.63611111111111,0.8527777777777814,0.5694444444444429,0.6402777777777757,1.3318872017353678,0.02662212638590586,0.6663001872081954,38.888888888888886,0.5384615384540827,0.8893709327548811,2.684226103610854e-07,0.886862522372651,0
84,51.205555555555556,0.5694444444444429,0.5777777777777757,0.5944444444444414,0.957943925233647,0.03881032914886189,0.9713472621476497,58.333333333333336,0.8076923076811242,0.9719626168224313,5.7832756283460185e-05,0.9981377547625578,0
85,51.78333333333333,0.5777777777777757,0.75,0.5736111111111093,1.0072639225181594,0.04110179106337077,1.0286981093521776,69.44444444444444,0.9615384615251478,1.3075060532687692,0.0021192177664488554,0.9973190038654097,0
86,52.53333333333333,0.75,0.56666666666667,0.5986111111111079,1.2529002320185683,0.03753437014777902,0.9394124831984523,63.888888888888886,0.8846153846031359,0.9466357308584793,0.0001103956819861196,0.9956822787320022,0
87,53.1,0.56666666666667,0.3944444444444457,0.5986111111111079,0.9466357308584793,0.041368598979045344,1.0353757939813328,63.888888888888886,0.8846153846031359,0.6589327146171751,4.324754991102964e-05,0.9969907057809899,0
88,53.49444444444445,0.3944444444444457,0.375,0.5986111111111079,0.6589327146171751,0.037831654697500154,0.9468529388653656,55.55555555555556,0.7692307692201182,0.6264501160092841,5.145953764440492e-05,0.9947432870858448,0
89,53.86944444444445,0.375,0.9694444444444414,0.5736111111111093,0.6537530266343846,0.04024956807951331,1.0073686210364743,61.111111111111114,0.8461538461421301,1.6900726392251817,0.008174422197043896,0.9982506317161186,0
90,54.83888888888889,0.9694444444444414,0.4194444444444443,0.5986111111111079,1.619489559164737,0.04515535141801796,1.1301508627502317,80.55555555555556,1.1153846153691716,0.7006960556844583,0.001964094117283821,0.996748507751421,0
91,55.25833333333333,0.4194444444444443,0.5777777777777757,0.5736111111111093,0.7312348668280892,0.03530470639802104,0.8836083241940242,63.888888888888886,0.8846153846031359,1.0072639225181594,0.994103729724884,0.39116662104881306,1
92,55.83611111111111,0.5777777777777757,0.5388888888888914,0.5736111111111093,1.0072639225181594,0.041186050370457854,1.0308069563793585,77.77777777777777,1.0769230769081655,0.9394673123486756,0.0013681933050975204,0.9967489345378919,0
93,56.375,0.5388888888888914,0.44166666666667,0.5680555555555564,0.9486552567237194,0.04073373327497933,1.0194863367929998,66.66666666666667,0.9230769230641419,0.7775061124694423,0.00018116417049895972,0.9973584121297231,0
94,56.81666666666667,0.44166666666667,0.3555555555555543,0.5527777777777807,0.7989949748743737,0.03321560287021869,0.8313221149147785,50.0,0.6923076922981064,0.6432160804020044,8.592257472628262e-06,0.9823667813276029,0
95,57.172222222222224,0.3555555555555543,0.3527777777777743,0.4902777777777807,0.7252124645892283,0.035139031102729805,0.8794617928964054,52.77777777777778,0.7307692307591124,0.7195467422096203,6.519028102047741e-05,0.9914553861695666,0
96,57.525,0.3527777777777743,0.5222222222222257,0.43055555555555713,0.8193548387096663,0.03691364490329355,0.9238769342866088,58.333333333333336,0.8076923076811242,1.2129032258064552,0.0013489967677742243,0.9959801113976595,0
97,58.047222222222224,0.5222222222222257,0.3777777777777729,0.43055555555555713,1.2129032258064552,0.04051112624223271,1.0139149145315736,69.44444444444444,0.9615384615251478,0.877419354838695,0.01685738004744053,0.9989988284893373,0
98,58.425,0.3777777777777729,0.34444444444444855,0.43055555555555713,0.877419354838695,0.03766716917246588,0.9427361852096021,63.888888888888886,0.8846153846031359,0.8000000000000066,0.008407918736338615,0.9853804076616377,0
99,58.769444444444446,0.34444444444444855,0.3388888888888886,0.43055555555555713,0.8000000000000066,0.03989353384966639,0.9984577748267921,77.77777777777777,1.0769230769081655,0.7870967741935447,0.00529753603041172,0.9964305061347147,0
100,59.108333333333334,0.3388888888888886,0.3555555555555543,0.3986111111111086,0.8501742160278791,0.0393770314483266,0.9855307215284357,69.44444444444444,0.9615384615251478,0.8919860627177725,0.0034750073682516813,0.9976756958241162,0
101,59.46388888888889,0.3555555555555543,0.8277777777777757,0.3666666666666636,0.9696969696969744,0.04050727750163386,1.013818588019395,80.55555555555556,1.1153846153691716,2.257575757575771,0.0007083453820087016,0.9980398328641127,0
102,60.291666666666664,0.8277777777777757,0.43055555555555713,0.3666666666666636,2.257575757575771,0.04025918083893142,1.007609209759818,69.44444444444444,0.9615384615251478,1.1742424242424383,0.0006230191793292761,0.9980409433350841,0
103,60.72222222222222,0.43055555555555713,0.20000000000000284,0.3666666666666636,1.1742424242424383,0.03489149807554354,0.8732665213405714,66.66666666666667,0.9230769230641419,0.5454545454545577,0.8089655041694641,0.4350098311061601,1
104,60.922222222222224,0.20000000000000284,0.5749999999999957,0.3555555555555543,0.56250000000001,0.04588448670305296,1.1483997047050998,66.66666666666667,0.9230769230641419,1.6171874999999938,0.008524051867425442,0.9209077103770573,0
105,61.49722222222222,0.5749999999999957,0.3305555555555557,0.3666666666666636,1.5681818181818197,0.03936920852692272,0.9853349289790216,69.44444444444444,0.9615384615251478,0.9015151515151595,0.029051106423139572,0.9980242210454187,0
106,61.827777777777776,0.3305555555555557,0.3583333333333343,0.3666666666666636,0.9015151515151595,0.029406690287593764,0.7359924207320391,44.44444444444444,0.6153846153760946,0.9772727272727381,0.9147174954414368,0.3313080863927591,1
107,62.18611111111111,0.3583333333333343,0.3500000000000014,0.3569444444444443,1.0038910505836607,0.03862646415022213,0.9667454778559349,58.333333333333336,0.8076923076811242,0.9805447470817165,0.013278834521770477,0.9834606210162187,0
108,62.53611111111111,0.3500000000000014,0.37777777777778,0.35277777777777786,0.9921259842519723,0.038450800935967124,0.9623489683192035,69.44444444444444,0.9615384615251478,1.0708661417322896,0.006332407705485821,0.997229649912124,0
109,62.91388888888889,0.37777777777778,0.3277777777777757,0.3569444444444443,1.0583657587548705,0.03704939071536688,0.9272743886704581,63.888888888888886,0.8846153846031359,0.9182879377431853,0.0073912604711949825,0.994365559125932,0
110,63.24166666666667,0.3277777777777757,0.32222222222222285,0.3569444444444443,0.9182879377431853,0.039743373153425035,0.9946995438513019,63.888888888888886,0.8846153846031359,0.9027237354085624,0.004617665894329548,0.9968324066991117,0
111,63.56388888888889,0.32222222222222285,1.05555555555555,0.35416666666666785,0.9098039215686262,0.03980458867228455,0.9962316495548393,77.77777777777777,1.0769230769081655,2.9803921568627194,8.576830441597849e-05,0.9953543138008303,0
112,64.61944444444444,1.05555555555555,0.40833333333333144,0.35416666666666785,2.9803921568627194,0.037406096637396996,0.9362020460326727,66.66666666666667,0.9230769230641419,1.152941176470579,2.972938659695501e-07,0.9923384923174742,0
113,65.02777777777777,0.40833333333333144,0.6416666666666799,0.35416666666666785,1.152941176470579,0.04334854537809453,1.0849300120488683,94.44444444444444,1.307692307674201,1.8117647058823843,0.8186754584312439,0.5075036403548013,1
114,65.66944444444445,0.6416666666666799,0.3555555555555543,0.36805555555555713,1.7433962264151228,0.039782033596182514,0.9956671397477926,80.55555555555556,1.1153846153691716,0.9660377358490491,0.2735776901245117,0.9980159307260739,0
115,66.025,0.3555555555555543,0.8472222222222143,0.3569444444444443,0.9961089494163393,0.040267249315742826,1.0078111480848033,66.66666666666667,0.9230769230641419,2.3735408560311075,0.9730981588363647,0.33385162464907214,1
116,66.87222222222222,0.8472222222222143,0.4194444444444514,0.36805555555555713,2.301886792452799,0.04179906135521561,1.0461494323327825,75.0,1.0384615384471596,1.139622641509448,0.004295250400900841,0.9992157005793529,0
117,67.29166666666667,0.4194444444444514,0.38055555555554577,0.3930555555555557,1.0671378091872965,0.03728549931538199,0.9331837289729976,61.111111111111114,0.8461538461421301,0.9681978798586319,0.01113069523125887,0.9896823946195611,0
118,67.67222222222222,0.38055555555554577,0.3527777777777885,0.3944444444444386,0.9647887323943557,0.04117269875508577,1.0304727913433658,75.0,1.0384615384471596,0.894366197183139,0.011795243248343468,0.9975909438345684,0
119,68.025,0.3527777777777885,0.6555555555555515,0.3944444444444386,0.894366197183139,0.0321699916986304,0.8051524953555722,47.22222222222222,0.6538461538371005,1.6619718309859297,0.0016697071259841323,0.971929253523613,0
120,68.68055555555556,0.6555555555555515,0.4388888888888829,0.4138888888888914,1.5838926174496448,0.03935692820140267,0.9850275762501534,63.888888888888886,0.8846153846031359,1.0604026845637373,0.0033817063085734844,0.9982647787554355,0
121,69.11944444444444,0.4388888888888829,0.3305555555555628,0.42916666666666714,1.0226537216828329,0.035779763906057346,0.8954980921994389,52.77777777777778,0.7307692307591124,0.7702265372168445,0.0007204451831057668,0.985515692807766,0
122,69.45,0.3305555555555628,0.8305555555555486,0.4138888888888914,0.7986577181208181,0.038541951870850986,0.9646302994231484,58.333333333333336,0.8076923076811242,2.006711409395944,0.0004184423014521599,0.9946800539577552,0
123,70.28055555555555,0.8305555555555486,0.38888888888889994,0.42916666666666714,1.9352750809061305,0.03646887313050757,0.9127451594923491,58.333333333333336,0.8076923076811242,0.9061488673139406,7.831347829778679e-06,0.9947909487322628,0
124,70.66944444444445,0.38888888888889994,0.6472222222222115,0.40416666666667567,0.9621993127147825,0.03665351714533271,0.9173664410482054,91.66666666666667,1.2692307692131952,1.601374570446673,0.956759512424469,0.4077691982458603,1
125,71.31666666666666,0.6472222222222115,0.9083333333333314,0.42916666666666714,1.5080906148867048,0.038892695094029,0.9734087219983353,72.22222222222223,0.9999999999861537,2.1165048543689253,0.00023625831818208098,0.9982726298357711,0
126,72.225,0.9083333333333314,0.8305555555555628,0.42916666666666714,2.1165048543689253,0.04001842614158539,1.001583586652648,69.44444444444444,0.9615384615251478,1.9352750809061636,0.00013833069533575326,0.9992646484060412,0
127,73.05555555555556,0.8305555555555628,0.6444444444444457,0.5430555555555472,1.5294117647059193,0.042131005066199795,1.0544573395812598,75.0,1.0384615384471596,1.1867007672634478,0.006531026680022478,0.9974390829571037,0
128,73.7,0.6444444444444457,0.7999999999999972,0.6458333333333286,0.9978494623656007,0.04785838371607011,1.1978025183736323,136.11111111111111,1.8846153845892897,1.2387096774193596,0.8074062466621399,0.9402022332065471,1
129,74.5,0.7999999999999972,0.42499999999999716,0.6513888888888815,1.2281449893390288,0.037905528370070427,0.9487018536045498,63.888888888888886,0.8846153846031359,0.6524520255863571,2.3906291062303353e-06,0.9967371046287463,0
130,74.925,0.42499999999999716,0.6777777777777771,0.6458333333333286,0.6580645161290327,0.03292509808525625,0.8240513436097551,44.44444444444444,0.6153846153760946,1.0494623655914046,0.020589469000697136,0.973630457660783,0
131,75.60277777777777,0.6777777777777771,0.8388888888888886,0.6624999999999943,1.0230607966457101,0.03678143029523229,0.920567859090064,63.888888888888886,0.8846153846031359,1.266247379454937,0.0004161731922067702,0.9942571147796089,0
132,76.44166666666666,0.8388888888888886,0.8583333333333343,0.7388888888888872,1.135338345864664,0.03796721838042346,0.9502458349098473,55.55555555555556,0.7692307692201182,1.1616541353383498,3.499568492770777e-07,0.9949002004731988,0
133,77.3,0.8583333333333343,1.0833333333333428,0.7388888888888872,1.1616541353383498,0.04121338130652027,1.0314909966979637,69.44444444444444,0.9615384615251478,1.4661654135338509,0.0008959007682278752,0.996419285232732,0
134,78.38333333333334,1.0833333333333428,0.6499999999999915,0.81527777777778,1.3287904599659364,0.04201568709883439,1.0515711545286368,66.66666666666667,0.9230769230641419,0.7972742759795445,2.8235529470066467e-08,0.9982750857692444,0
135,79.03333333333333,0.6499999999999915,0.51111111111112,0.81527777777778,0.7972742759795445,0.04184392145385201,1.0472721935910807,69.44444444444444,0.9615384615251478,0.6269165247018831,5.4506046581082046e-05,0.9988416874413755,0
136,79.54444444444445,0.51111111111112,0.6277777777777658,0.7388888888888872,0.6917293233082843,0.04159140272929252,1.040952139700245,63.888888888888886,0.8846153846031359,0.8496240601503617,0.0015416617970913649,0.9964847350257127,0
137,80.17222222222222,0.6277777777777658,0.45000000000000284,0.6638888888888843,0.9456066945606579,0.04120675997262685,1.0313252775533395,66.66666666666667,0.9230769230641419,0.6778242677824358,1.1058858945034444e-05,0.9978474329503755,0
138,80.62222222222222,0.45000000000000284,0.88055555555556,0.6638888888888843,0.6778242677824358,0.03644527303261771,0.9121544948168756,58.333333333333336,0.8076923076811242,1.326359832635999,0.03219325467944145,0.9952613247494952,0
139,81.50277777777778,0.88055555555556,0.49166666666666003,0.6638888888888843,1.326359832635999,0.03997899203141715,1.00059662736147,69.44444444444444,0.9615384615251478,0.7405857740585725,7.465361704817042e-06,0.9986726356034452,0
140,81.99444444444444,0.49166666666666003,0.7388888888888943,0.6638888888888843,0.7405857740585725,0.03876452967930561,0.9702009902572292,72.22222222222223,0.9999999999861537,1.1129707112970868,0.007186034228652716,0.997571049831206,0
141,82.73333333333333,0.7388888888888943,0.7722222222222257,0.6944444444444429,1.06400000000001,0.039236111281973025,0.9820037630931207,66.66666666666667,0.9230769230641419,1.1120000000000074,5.600059921562206e-06,0.9988534609979989,0
142,83.50555555555556,0.7722222222222257,0.6055555555555543,0.6944444444444429,1.1120000000000074,0.041062253305014465,1.027708555947888,75.0,1.0384615384471596,0.8720000000000001,1.0522636330279056e-05,0.99809072701626,0
143,84.11111111111111,0.6055555555555543,0.86388888888888,0.6388888888888786,0.947826086956535,0.0423572954936002,1.060120950066564,77.77777777777777,1.0769230769081655,1.3521739130434862,0.007007175125181675,0.9978679780238662,0
144,84.975,0.86388888888888,0.42500000000001137,0.6388888888888786,1.3521739130434862,0.04044403529443475,1.0122357582376789,80.55555555555556,1.1153846153691716,0.6652173913043763,0.00010987415589625016,0.9964023499762977,0
145,85.4,0.42500000000001137,0.7361111111111001,0.61666666666666,0.689189189189215,0.03852331981760216,0.964163975269029,66.66666666666667,0.9230769230641419,1.1936936936936886,0.9908478260040283,0.2910695842545301,1
146,86.1361111111111,0.7361111111111001,0.6666666666666714,0.6819444444444329,1.079429735234218,0.041325171837823416,1.0342888968677573,69.44444444444444,0.9615384615251478,0.977596741344219,6.62476986690308e-06,0.9985678231160735,0
147,86.80277777777778,0.6666666666666714,0.9138888888888914,0.7013888888888857,0.9504950495049616,0.03903050228084819,0.9768577685938346,61.111111111111114,0.8461538461421301,1.3029702970297123,0.0006264317780733109,0.997454602407427,0
148,87.71666666666667,0.9138888888888914,0.75555555555556,0.7374999999999972,1.2391713747646034,0.03975088773852176,0.9948876193409966,72.22222222222223,0.9999999999861537,1.024482109227882,1.0026477639257791e-06,0.9963917806532112,0
149,88.47222222222223,0.75555555555556,0.4388888888888829,0.7374999999999972,1.024482109227882,0.039401541927535276,0.9861441712825452,61.111111111111114,0.8461538461421301,0.5951035781544197,7.173759968281956e-07,0.9971566671116854,0
150,88.91111111111111,0.4388888888888829,0.6527777777777715,0.7374999999999972,0.5951035781544197,0.03703122962586025,0.9268198518253254,55.55555555555556,0.7692307692201182,0.8851224105461342,0.0028143038507550955,0.9924652887145564,0
151,89.56388888888888,0.6527777777777715,0.75555555555556,0.7013888888888857,0.9306930693069259,0.04299157537432925,1.075995745233035,77.77777777777777,1.0769230769081655,1.0772277227722884,0.0002184364857384935,0.9979533542161941,0
152,90.31944444444444,0.75555555555556,0.5916666666666686,0.7013888888888857,1.0772277227722884,0.03951235999740894,0.9889177326289432,66.66666666666667,0.9230769230641419,0.8435643564356501,3.324819317640504e-06,0.9963158492292927,0
153,90.91111111111111,0.5916666666666686,0.7138888888888886,0.7013888888888857,0.8435643564356501,0.041165083220274665,1.0302821892781222,72.22222222222223,0.9999999999861537,1.017821782178222,0.0001530519366497174,0.9983673657785535,0
154,91.625,0.7138888888888886,0.40555555555555145,0.69027777777778,1.0342052313883263,0.04020159837874064,1.0061680324680844,72.22222222222223,0.9999999999861537,0.5875251509054248,7.195903435786022e-06,0.998565838643831,0
155,92.03055555555555,0.40555555555555145,0.75833333333334,0.69027777777778,0.5875251509054248,0.04201843157612072,1.0516398434719303,100.0,1.3846153845962128,1.0985915492957807,0.9862208366394043,0.3498133507589899,1
156,92.78888888888889,0.75833333333334,1.0,0.69027777777778,1.0985915492957807,0.03737510306675905,0.9354263370746817,47.22222222222222,0.6538461538371005,1.4486921529175003,0.05883427709341049,0.9654065600712488,0
157,93.78888888888889,1.0,0.4194444444444372,0.7347222222222243,1.3610586011342116,0.042712676977692605,1.0690154593160752,69.44444444444444,0.9615384615251478,0.5708884688090622,9.069328257282905e-07,0.9987674421635744,0
158,94.20833333333333,0.4194444444444372,1.0333333333333314,0.68333333333333,0.6138211382113745,0.051114990379448395,1.279309066649249,91.66666666666667,1.2692307692131952,1.5121951219512242,0.9902666211128235,0.22041403573082258,1
159,95.24166666666666,1.0333333333333314,0.42500000000001137,0.68333333333333,1.5121951219512242,0.041204313305527186,1.0312640422213861,77.77777777777777,1.0769230769081655,0.6219512195122148,2.3304482965613715e-05,0.9964680942158048,0
160,95.66666666666667,0.42500000000001137,0.3944444444444457,0.68333333333333,0.6219512195122148,0.0312153309037385,0.781259187317881,80.55555555555556,1.1153846153691716,0.5772357723577283,0.9940874576568604,0.37403228748272294,1
161,96.06111111111112,0.3944444444444457,0.38888888888888573,0.6527777777777786,0.6042553191489374,0.03723442950692805,0.931905550722309,41.666666666666664,0.5769230769150886,0.5957446808510583,0.2149299532175064,0.9095837173824451,0
162,96.45,0.38888888888888573,0.7333333333333343,0.50833333333334,0.7650273224043553,0.04285313515008448,1.0725308549386117,66.66666666666667,0.9230769230641419,1.442622950819655,0.012405136600136757,0.9880570179649258,0
163,97.18333333333334,0.7333333333333343,0.42777777777777715,0.56944444444445,1.2878048780487696,0.040713050437869526,1.018968685496537,77.77777777777777,1.0769230769081655,0.7512195121951135,0.0009886642219498754,0.9971332197815126,0
164,97.61111111111111,0.42777777777777715,0.3499999999999943,0.42638888888889426,1.0032573289902138,0.043086830356665023,1.0783797926844978,111.11111111111111,1.5384615384402365,0.8208469055374357,0.8161118626594543,0.2736090658025397,1
165,97.96111111111111,0.3499999999999943,0.7416666666666742,0.42638888888889426,0.8208469055374357,0.04319521332305366,1.0810924081137883,180.55555555555554,2.499999999965384,1.7394136807817548,0.9515219330787659,0.17109810478875692,1
166,98.70277777777778,0.7416666666666742,0.36666666666666003,0.42638888888889426,1.7394136807817548,0.039977942771000516,1.0005703664083851,63.888888888888886,0.8846153846031359,0.8599348534201691,0.0011148432968184352,0.9979106016144829,0
167,99.06944444444444,0.36666666666666003,0.3527777777777743,0.4222222222222243,0.868421052631559,0.026417959768594002,0.661190292778103,33.333333333333336,0.46153846153207095,0.8355263157894613,0.5089512467384338,0.4831048335061112,1
168,99.42222222222222,0.3527777777777743,0.38333333333333997,0.40972222222222854,0.8610169491525206,0.037262745393733365,0.9326142424476002,55.55555555555556,0.7692307692201182,0.9355932203389848,0.010796324349939823,0.9778168707985779,0
169,99.80555555555556,0.38333333333333997,0.4138888888888914,0.3916666666666657,0.9787234042553384,0.03894355776262676,0.9746817159401917,69.44444444444444,0.9615384615251478,1.0567375886524912,0.005886546336114407,0.9973413326559262,0
170,100.21944444444445,0.4138888888888914,0.6027777777777743,0.3916666666666657,1.0567375886524912,0.040181703797127113,1.0056701096777945,66.66666666666667,0.9230769230641419,1.5390070921985763,0.0025748766493052244,0.994881238013651,0
171,100.82222222222222,0.6027777777777743,0.5555555555555571,0.4013888888888886,1.501730103806221,0.04068206564439741,1.0181931962139825,66.66666666666667,0.9230769230641419,1.384083044982704,0.007058669812977314,0.9989162878932891,0
172,101.37777777777778,0.5555555555555571,1.1749999999999972,0.4208333333333343,1.320132013201321,0.03123551771329249,0.7817644240067159,50.0,0.6923076922981064,2.792079207920779,0.0007291522924788296,0.9619637590181103,0
173,102.55277777777778,1.1749999999999972,0.3972222222222257,0.4208333333333343,2.792079207920779,0.038600941276988064,0.9661066898430076,88.88888888888889,1.2307692307521891,0.94389438943895,0.0014234376139938831,0.9914834752548396,0
174,102.95,0.3972222222222257,0.6472222222222257,0.40555555555555856,0.9794520547945219,0.0427571527400279,1.0701286013822147,77.77777777777777,1.0769230769081655,1.595890410958901,0.028586069121956825,0.9800644534385085,0
175,103.59722222222223,0.6472222222222257,0.6833333333333229,0.4847222222222243,1.3352435530085975,0.041899771802111456,1.048670019480774,77.77777777777777,1.0769230769081655,1.409742120343812,0.005020745098590851,0.9966699278210379,0
176,104.28055555555555,0.6833333333333229,0.62777777777778,0.4847222222222243,1.409742120343812,0.03826136209659305,0.9576076816049209,47.22222222222222,0.6538461538371005,1.2951289398280792,0.014421246945858002,0.9495659502647138,0
177,104.90833333333333,0.62777777777778,0.3527777777777743,0.5791666666666657,1.083932853717032,0.03891274103898488,0.9739104331195002,44.44444444444444,0.6153846153760946,0.6091127098321293,0.00020351448620203882,0.9437977644448792,0
178,105.2611111111111,0.3527777777777743,0.2944444444444514,0.5791666666666657,0.6091127098321293,0.04297279771536762,1.0755257768503408,83.33333333333333,1.1538461538301772,0.5083932853717155,0.9981940388679504,0.33493426888779587,1
179,105.55555555555556,0.2944444444444514,0.3333333333333286,0.5791666666666657,0.5083932853717155,0.042677625765344354,1.0681381954562703,105.55555555555556,1.4615384615182248,0.5755395683453165,0.9814830422401428,0.38974598338554134,1
180,105.88888888888889,0.3333333333333286,0.76111111111112,0.5791666666666657,0.5755395683453165,0.04661270943276432,1.1666257071702082,105.55555555555556,1.4615384615182248,1.3141486810551732,0.9795860648155212,0.34795013430139715,1
181,106.65,0.76111111111112,0.6666666666666572,0.5916666666666686,1.2863849765258324,0.031185343128573347,0.7805086514697349,47.22222222222222,0.6538461538371005,1.126760563380262,9.175489140034188e-06,0.9721265001750176,0
182,107.31666666666666,0.6666666666666572,0.6527777777777857,0.6375000000000028,1.0457516339869086,0.024520427723081478,0.6136987461288504,38.888888888888886,0.5384615384540827,1.0239651416122082,0.00790709350258112,0.8259997262696587,0
183,107.96944444444445,0.6527777777777857,0.36666666666666003,0.6375000000000028,1.0239651416122082,0.027001255602101544,0.6757890561311909,36.111111111111114,0.49999999999307687,0.5751633986927975,4.512103714660043e-06,0.867237062081861,0
184,108.33611111111111,0.36666666666666003,0.34722222222222854,0.6375000000000028,0.5751633986927975,0.044832008788388084,1.12205822388541,86.11111111111111,1.1923076922911833,0.5446623093681991,0.9977266192436218,0.3500234781341287,1
185,108.68333333333334,0.34722222222222854,0.3999999999999915,0.49722222222222,0.6983240223463846,0.028281790168084808,0.7078383525950872,150.0,2.076923076894319,0.8044692737430031,0.8496702909469604,0.41068652294316876,1
186,109.08333333333333,0.3999999999999915,0.5527777777777771,0.38333333333332575,1.0434782608695636,0.04130453411665802,1.0337723747358762,44.44444444444444,0.6153846153760946,1.4420289855072732,0.006938440725207329,0.9657747817862355,0
187,109.6361111111111,0.5527777777777771,0.5166666666666657,0.38333333333332575,1.4420289855072732,0.04045798686629749,1.0125849390209583,80.55555555555556,1.1153846153691716,1.347826086956546,0.14441974461078644,0.9797531160270415,0
188,110.15277777777777,0.5166666666666657,0.3527777777777885,0.4583333333333286,1.1272727272727368,0.025036383853877627,0.626612127335045,19.444444444444443,0.26923076922704137,0.7696969696970011,0.00033653384889476,0.688085637039254,0
189,110.50555555555556,0.3527777777777885,0.3972222222222115,0.4583333333333286,0.7696969696970011,0.023621615173102857,0.5912032113381778,27.77777777777778,0.3846153846100591,0.8666666666666522,0.043872904032468796,0.5792548263519061,0
190,110.90277777777777,0.3972222222222115,0.30000000000001137,0.4583333333333286,0.8666666666666522,0.03688604709787303,0.9231862147455894,41.666666666666664,0.5769230769150886,0.6545454545454861,0.03759809210896492,0.8860764561927738,0
191,111.20277777777778,0.30000000000001137,0.625,0.3986111111111015,0.7526132404181651,0.023540688245334757,0.5891777673018737,25.0,0.3461538461490532,1.567944250871118,0.0642060786485672,0.6130148817166178,0
192,111.82777777777778,0.625,0.36944444444444,0.3986111111111015,1.567944250871118,0.03274210486560721,0.8194713782552769,36.111111111111114,0.49999999999307687,0.9268292682926942,0.006759962532669306,0.873896812309567,0
193,112.19722222222222,0.36944444444444,0.86666666666666,0.38333333333332575,0.9637681159420365,0.023663689786197966,0.5922562572961004,27.77777777777778,0.3846153846100591,2.2608695652174187,0.20916111767292023,0.60897528898523,0
194,113.06388888888888,0.86666666666666,0.4027777777777857,0.3986111111111015,2.1742160278746003,0.04198520389938755,1.0508082191716444,41.666666666666664,0.5769230769150886,1.0104529616725182,0.00021689056302420795,0.9395101276831622,0
195,113.46666666666667,0.4027777777777857,1.0944444444444485,0.4013888888888886,1.0034602076124772,0.04849943157258745,1.2138467028469297,111.11111111111111,1.5384615384402365,2.7266435986159294,0.9687877297401428,0.5040370438986158,1
196,114.56111111111112,1.0944444444444485,0.42222222222221717,0.4597222222222257,2.3806646525679667,0.03962847670193717,0.9918239085235224,47.22222222222222,0.6538461538371005,0.9184290030211301,1.5299892766051926e-06,0.935086224571283,0
197,114.98333333333333,0.42222222222221717,0.7361111111111143,0.4125000000000014,1.0235690235690078,0.03824256947685669,0.957137338783053,66.66666666666667,0.9230769230641419,1.784511784511786,0.9872991442680359,0.32514789531766186,1
198,115.71944444444445,0.7361111111111143,0.42222222222221717,0.4125000000000014,1.784511784511786,0.03900475910622447,0.9762134668644206,47.22222222222222,0.6538461538371005,1.0235690235690078,0.000993113499134779,0.9603448725243365,0
199,116.14166666666667,0.42222222222221717,0.875,0.42222222222221717,1.0,0.03675068188902274,0.9197982861221954,47.22222222222222,0.6538461538371005,2.0723684210526563,0.05654195696115494,0.927615713355576,0
200,117.01666666666667,0.875,0.8611111111111143,0.5236111111111086,1.6710875331565067,0.035159842151335094,0.8799826530779213,41.666666666666664,0.5769230769150886,1.6445623342175206,8.074304059846327e-05,0.9623358744439331,0
201,117.87777777777778,0.8611111111111143,0.61666666666666,0.6805555555555571,1.2653061224489812,0.032958921146695984,0.8248978692344391,41.666666666666664,0.5769230769150886,0.9061224489795799,4.541242049072025e-08,0.9477224759125278,0
202,118.49444444444444,0.61666666666666,0.7083333333333428,0.6763888888888872,0.9117043121149823,0.036433427040878756,0.911858012620115,47.22222222222222,0.6538461538371005,1.0472279260780455,0.0010822744807228446,0.9690390471225874,0
203,119.20277777777778,0.7083333333333428,0.38888888888888573,0.7222222222222285,0.9807692307692353,0.03854457945393749,0.9646960627313478,47.22222222222222,0.6538461538371005,0.5384615384615293,1.5666120816604234e-05,0.9489126104794732,0
204,119.59166666666667,0.38888888888888573,0.9666666666666686,0.6625000000000014,0.5870020964360527,0.025467166610811477,0.637393784195597,41.666666666666664,0.5769230769150886,1.4591194968553456,0.9367316365242004,0.34808268030356904,1
205,120.55833333333334,0.9666666666666686,0.42777777777777715,0.7222222222222285,1.3384615384615295,0.037983043422678275,0.9506419050232603,47.22222222222222,0.6538461538371005,0.5923076923076862,1.0643825376632776e-08,0.9598661768223533,0
206,120.98611111111111,0.42777777777777715,0.36111111111111427,0.6625000000000014,0.6457023060796623,0.028335591854053842,0.7091849044412336,47.22222222222222,0.6538461538371005,0.5450733752620581,0.9885439276695251,0.3128676897064823,1
207,121.34722222222223,0.36111111111111427,0.4333333333333229,0.6625000000000014,0.5450733752620581,0.027006062063993554,0.6759093525497426,38.888888888888886,0.5384615384540827,0.6540880503144483,0.9704322814941406,0.4687741508890429,1
208,121.78055555555555,0.4333333333333229,0.40555555555556566,0.5249999999999915,0.8253968253968189,0.035230042301059666,0.8817396266654365,36.111111111111114,0.49999999999307687,0.7724867724868043,0.08397049456834793,0.8551741149031831,0
209,122.18611111111112,0.40555555555556566,0.6555555555555515,0.5249999999999915,0.7724867724868043,0.035356010320242694,0.8848923618582321,33.333333333333336,0.46153846153207095,1.248677248677261,0.4426578879356384,0.8584166282592518,0
210,122.84166666666667,0.6555555555555515,0.6499999999999915,0.5249999999999915,1.248677248677261,0.037735023134242165,0.9444344382634338,47.22222222222222,0.6538461538371005,1.238095238095242,0.024094197899103165,0.9495765472949951,0
211,123.49166666666666,0.6499999999999915,0.4638888888888886,0.5249999999999915,1.238095238095242,0.035769008591605506,0.895228907539699,38.888888888888886,0.5384615384540827,0.8835978835978974,0.0013088687555864453,0.9287941895363955,0
212,123.95555555555555,0.4638888888888886,0.36944444444445423,0.44861111111110574,1.0340557275541913,0.03849829784177414,0.9635377237466354,50.0,0.6923076922981064,0.8235294117647376,0.026911618188023567,0.9545267656013179,0
213,124.325,0.36944444444445423,0.3527777777777743,0.43055555555555003,0.858064516129066,0.041212771014185995,1.0314757222645587,41.666666666666664,0.5769230769150886,0.8193548387096798,0.018474936485290527,0.9353879634067355,0
214,124.67777777777778,0.3527777777777743,0.4138888888888914,0.43055555555555003,0.8193548387096798,0.0309636122688999,0.7749591581209065,30.555555555555557,0.42307692307106504,0.9612903225806634,0.008650398813188076,0.8479720652528118,0
215,125.09166666666667,0.4138888888888914,0.3361111111111086,0.4208333333333343,0.9834983498349873,0.039785390984131884,0.9957511686561814,38.888888888888886,0.5384615384540827,0.7986798679867909,0.009421837516129017,0.9298538484369421,0
216,125.42777777777778,0.3361111111111086,0.37222222222222,0.40972222222222854,0.8203389830508286,0.024671926568226938,0.6174904683759391,27.77777777777778,0.3846153846100591,0.908474576271167,0.05413071811199188,0.5405250638913576,0
217,125.8,0.37222222222222,0.7722222222222257,0.40972222222222854,0.908474576271167,0.03059299376814011,0.7656832958979023,30.555555555555557,0.42307692307106504,1.8847457627118438,0.12256185710430145,0.8264997465271551,0
218,126.57222222222222,0.7722222222222257,0.4361111111111171,0.40972222222222854,1.8847457627118438,0.03162874973281009,0.7916062587430857,41.666666666666664,0.5769230769150886,1.0644067796610153,0.00046209298307076097,0.9199634986966434,0
219,127.00833333333334,0.4361111111111171,0.7555555555555458,0.42500000000000426,1.026143790849677,0.050289553167188465,1.258649974242995,111.11111111111111,1.5384615384402365,1.7777777777777368,0.9797927141189575,0.5134708088085257,1
220,127.76388888888889,0.7555555555555458,0.3388888888889028,0.42500000000000426,1.7777777777777368,0.034720263157096025,0.8689808434587865,41.666666666666664,0.5769230769150886,0.7973856209150574,0.0007609262247569859,0.9177663937215997,0
221,128.1027777777778,0.3388888888889028,0.6055555555555543,0.3930555555555557,0.862190812720883,0.046557201797783804,1.1652364587291602,83.33333333333333,1.1538461538301772,1.540636042402823,0.9886282086372375,0.33869573036391587,1
222,128.70833333333334,0.6055555555555543,0.3472222222222001,0.3930555555555557,1.540636042402823,0.03656768554803877,0.9152182426467582,41.666666666666664,0.5769230769150886,0.8833922261483533,0.0024064688477665186,0.9401269389306797,0
223,129.05555555555554,0.3472222222222001,0.75555555555556,0.3930555555555557,0.8833922261483533,0.025460404940803056,0.63722455271021,25.0,0.3461538461490532,1.9222614840989505,0.21198466420173645,0.6014488748177621,0
224,129.8111111111111,0.75555555555556,0.3527777777777885,0.42500000000000426,1.7777777777777704,0.029168473794646196,0.7300303239578658,36.111111111111114,0.49999999999307687,0.8300653594771411,1.0751377885753755e-05,0.8966493552204977,0
225,130.1638888888889,0.3527777777777885,0.5638888888888971,0.40416666666666856,0.8728522336769984,0.04539758969757772,1.1362136170426578,86.11111111111111,1.1923076922911833,1.3951890034364398,0.9869877099990845,0.3182772297697528,1
226,130.7277777777778,0.5638888888888971,0.4805555555555543,0.5000000000000071,1.1277777777777782,0.03765867093161135,0.9425234907241866,41.666666666666664,0.5769230769150886,0.9611111111110949,0.007297984790056944,0.9443203197834682,0
227,131.20833333333334,0.4805555555555543,0.3166666666666629,0.5222222222222257,0.9202127659574383,0.03828044908103339,0.95808539180438,50.0,0.6923076922981064,0.606382978723393,0.0017697697039693594,0.9589819355437652,0
228,131.525,0.3166666666666629,0.6805555555555429,0.4583333333333357,0.690909090909079,0.0233000968547185,0.5831562314454005,38.888888888888886,0.5384615384540827,1.4848484848484496,0.8306773900985718,0.44304750764646805,1
229,132.20555555555555,0.6805555555555429,1.2027777777777828,0.5222222222222257,1.3031914893616692,0.03403988580959753,0.8519523181096443,41.666666666666664,0.5769230769150886,2.3031914893616965,0.14297333359718323,0.9125976469142423,0
230,133.40833333333333,1.2027777777777828,0.46944444444443434,0.5222222222222257,2.3031914893616965,0.03408366020192656,0.8530479062449032,38.888888888888886,0.5384615384540827,0.8989361702127406,7.16616072038434e-11,0.910692705367389,0
231,133.87777777777777,0.46944444444443434,0.5694444444444571,0.5222222222222257,0.8989361702127406,0.04350213376165245,1.0887740313895555,108.33333333333333,1.4999999999792304,1.0904255319149105,0.9789382219314575,0.2563878638624591,1
232,134.44722222222222,0.5694444444444571,0.9361111111111029,0.5222222222222257,1.0904255319149105,0.03775930360938348,0.9450421314618527,44.44444444444444,0.6153846153760946,1.792553191489334,0.05331560969352722,0.9561998989873524,0
233,135.38333333333333,0.9361111111111029,0.8944444444444457,0.5666666666666771,1.6519607843136805,0.03235854691319795,0.8098716666548248,38.888888888888886,0.5384615384540827,1.578431372548993,0.0013687439495697618,0.896900782532226,0
234,136.27777777777777,0.8944444444444457,0.3555555555555543,0.5666666666666771,1.578431372548993,0.02909855416386872,0.7282803712155024,36.111111111111114,0.49999999999307687,0.6274509803921431,8.11811284862074e-10,0.915245138359779,0
235,136.63333333333333,0.3555555555555543,0.6416666666666799,0.5666666666666771,0.6274509803921431,0.03731036180202898,0.9338059887905349,75.0,1.0384615384471596,1.1323529411764732,0.9807101488113403,0.3125247837155124,1
236,137.275,0.6416666666666799,0.38888888888888573,0.6055555555555685,1.059633027522935,0.029978393794526992,0.7503010506354287,44.44444444444444,0.6153846153760946,0.6422018348623664,7.971435115905479e-05,0.9202866717362406,0
237,137.6638888888889,0.38888888888888573,0.3916666666666515,0.6055555555555685,0.6422018348623664,0.023468514348054432,0.5873713946413154,25.0,0.3461538461490532,0.6467889908256492,0.08928625285625458,0.588761353755466,0
238,138.05555555555554,0.3916666666666515,0.6611111111111256,0.6055555555555685,0.6467889908256492,0.03161195099743081,0.7911858189793409,22.22222222222222,0.3076923076880473,1.0917431192660556,0.4529554843902588,0.7859396130537926,0
239,138.71666666666667,0.6611111111111256,0.50555555555556,0.6055555555555685,1.0917431192660556,0.028932772502936153,0.7241311777921876,38.888888888888886,0.5384615384540827,0.8348623853210904,0.0007559475488960743,0.8899793184196302,0
240,139.22222222222223,0.50555555555556,0.9138888888888914,0.5375000000000085,0.9405684754521897,0.030224339457532504,0.7564565935446674,41.666666666666664,0.5769230769150886,1.7002583979327943,0.642599880695343,0.8932973923728158,1
241,140.13611111111112,0.9138888888888914,0.8194444444444287,0.6055555555555685,1.5091743119265775,0.03064846372082959,0.7670716012242942,36.111111111111114,0.49999999999307687,1.3532110091742569,0.00014661277236882597,0.8916195383359878,0
242,140.95555555555555,0.8194444444444287,0.8611111111111143,0.6513888888889028,1.2579957356076248,0.02738396369742752,0.6853674974572297,41.666666666666664,0.5769230769150886,1.3219616204690599,0.002040190389379859,0.9047249440021198,0
243,141.81666666666666,0.8611111111111143,0.36944444444444,0.6513888888889028,1.3219616204690599,0.027252697329241803,0.6820821548655656,33.333333333333336,0.46153846153207095,0.5671641791044587,3.726341901710839e-09,0.8473848837879567,0
244,142.1861111111111,0.36944444444444,0.32500000000001705,0.57361111111112,0.6440677966101519,0.03889516855060869,0.9734706278190128,72.22222222222223,0.9999999999861537,0.5665859564164859,0.9978137016296387,0.2968664892007749,1
245,142.51111111111112,0.32500000000001705,0.31944444444442865,0.57361111111112,0.5665859564164859,0.028767646113046084,0.719998384532104,50.0,0.6923076922981064,0.5569007263922157,0.9824848771095276,0.3647332299016971,1
246,142.83055555555555,0.31944444444442865,0.6500000000000057,0.44861111111110574,0.7120743034055461,0.02384450818891393,0.5967817912010148,22.22222222222222,0.3076923076880473,1.4489164086687607,0.21941092610359192,0.5996553407521754,0
247,143.48055555555555,0.6500000000000057,0.7055555555555486,0.5777777777777828,1.125,0.032357871493223646,0.8098547622029114,44.44444444444444,0.6153846153760946,1.2211538461538234,0.09932436048984528,0.9246364499029545,0
248,144.1861111111111,0.7055555555555486,0.7527777777777942,0.6555555555555657,1.0762711864406507,0.036005400047225355,0.9011453271693988,44.44444444444444,0.6153846153760946,1.14830508474577,0.032957423478364944,0.9328882303726166,0
249,144.9388888888889,0.7527777777777942,0.8555555555555543,0.6777777777777771,1.1106557377049433,0.03605248899017007,0.9023238720776715,41.666666666666664,0.5769230769150886,1.2622950819672125,0.09996241331100464,0.9197970180101726,0
250,145.79444444444445,0.8555555555555543,1.2416666666666458,0.7291666666666714,1.173333333333324,0.021352358024347397,0.5344081063521322,33.333333333333336,0.46153846153207095,1.702857142857103,0.03958924114704132,0.511516770600174,0
251,147.0361111111111,1.2416666666666458,0.6555555555555657,0.7291666666666714,1.702857142857103,0.02967548168626194,0.7427197480933642,33.333333333333336,0.46153846153207095,0.8990476190476271,7.326259688971923e-14,0.8488617538747363,0
252,147.69166666666666,0.6555555555555657,0.5138888888888857,0.6805555555555571,0.9632653061224616,0.03317637108280776,0.8303402193697909,41.666666666666664,0.5769230769150886,0.7551020408163202,6.720339570165379e-06,0.9465833569405906,0
253,148.20555555555555,0.5138888888888857,1.0916666666666686,0.6527777777777857,0.7872340425531771,0.03424176264081555,0.8570049036350732,50.0,0.6923076922981064,1.6723404255318977,0.3608681857585907,0.9573379382718719,0
254,149.29722222222222,1.0916666666666686,1.0666666666666629,0.6805555555555571,1.6040816326530603,0.037074726732134536,0.9279085000284575,38.888888888888886,0.5384615384540827,1.567346938775501,0.0003179304185323417,0.8921302936452209,0
255,150.36388888888888,1.0666666666666629,0.5500000000000114,0.7291666666666714,1.4628571428571282,0.03182686717452368,0.7965647540409241,41.666666666666664,0.5769230769150886,0.754285714285725,1.8090963449512998e-10,0.9045790981371412,0
256,150.9138888888889,0.5500000000000114,0.3972222222222115,0.7291666666666714,0.754285714285725,0.036545300554076184,0.9146579896657708,55.55555555555556,0.7692307692201182,0.5447619047618865,1.303844965150347e-05,0.9901796997247478,0
257,151.3111111111111,0.3972222222222115,0.7583333333333542,0.7291666666666714,0.5447619047618865,0.0333871086201597,0.8356145711835412,47.22222222222222,0.6538461538371005,1.0400000000000218,0.10428430885076523,0.9652545546512017,0
258,152.06944444444446,0.7583333333333542,0.49444444444444,0.7555555555555742,1.0036764705882382,0.0415044934166034,1.0387769681727912,77.77777777777777,1.0769230769081655,0.6544117647058604,9.87452676781686e-06,0.9979467166912773,0
259,152.5638888888889,0.49444444444444,0.6055555555555543,0.7069444444444599,0.6994106090373066,0.040030687686049816,1.0018904693281216,69.44444444444444,0.9615384615251478,0.8565815324164824,0.00451635243371129,0.9926760762752971,0
260,153.16944444444445,0.6055555555555543,0.7833333333333314,0.63055555555556,0.9603524229074802,0.03900267663060747,0.9761613465388932,63.888888888888886,0.8846153846031359,1.2422907488986668,0.0005136819672770798,0.9971100673614588,0
261,153.95277777777778,0.7833333333333314,0.6916666666666629,0.63055555555556,1.2422907488986668,0.042948479985074076,1.0749171512277216,72.22222222222223,0.9999999999861537,1.0969162995594577,0.00013338032294996083,0.9983969542880405,0
262,154.64444444444445,0.6916666666666629,0.38055555555556,0.6486111111111086,1.0663811563169148,0.039412928374075694,0.9864291519543195,63.888888888888886,0.8846153846031359,0.5867237687366258,6.308297088253312e-06,0.9977031962252523,0
263,155.025,0.38055555555556,0.46944444444443434,0.6486111111111086,0.5867237687366258,0.0396890229759532,0.9933392643266935,83.33333333333333,1.1538461538301772,0.7237687366166896,0.0051376414485275745,0.9961692139311495,0
264,155.49444444444444,0.46944444444443434,0.7027777777777828,0.5777777777777828,0.8124999999999754,0.043341057980710244,1.0847426170148828,75.0,1.0384615384471596,1.216346153846152,0.007435129955410957,0.9980231545399549,0
265,156.19722222222222,0.7027777777777828,0.38611111111111995,0.5777777777777828,1.216346153846152,0.04200983651917781,1.051424725867607,72.22222222222223,0.9999999999861537,0.6682692307692403,0.00027225195663049817,0.9990997587904611,0
266,156.58333333333334,0.38611111111111995,0.36388888888888005,0.5499999999999972,0.7020202020202218,0.04306090238404362,1.0777308658196356,69.44444444444444,0.9615384615251478,0.661616161616149,0.9991908669471741,0.3680566999407156,1
267,156.94722222222222,0.36388888888888005,0.21388888888887436,0.5499999999999972,0.661616161616149,0.04336641657937208,1.085377293553894,161.11111111111111,2.230769230738343,0.38888888888886447,0.9738230109214783,0.4354229268530977,1
268,157.1611111111111,0.21388888888887436,0.7361111111111143,0.4819444444444372,0.4438040345821091,0.04534859010543968,1.134987252290968,152.77777777777777,2.115384615355325,1.5273775216138625,0.09255016595125198,0.947416741940937,0
269,157.8972222222222,0.7361111111111143,0.4611111111111086,0.5374999999999943,1.369509043927669,0.04167524840110897,1.0430506342388883,72.22222222222223,0.9999999999861537,0.8578811369509087,0.003455695230513811,0.9985450921205745,0
270,158.35833333333332,0.4611111111111086,0.7250000000000227,0.46527777777777146,0.991044776119411,0.052065201285400736,1.3030910025977802,94.44444444444444,1.307692307674201,1.5582089552239506,0.992638349533081,0.22868249663900447,1
271,159.08333333333334,0.7250000000000227,0.7111111111111086,0.46527777777777146,1.5582089552239506,0.03709630986545871,0.928448683992953,66.66666666666667,0.9230769230641419,1.5283582089552392,0.0012331283651292324,0.9960480895893771,0
272,159.79444444444445,0.7111111111111086,0.75555555555556,0.46527777777777146,1.5283582089552392,0.03959026935294334,0.9908676526851159,66.66666666666667,0.9230769230641419,1.623880597014957,0.0009314349154010415,0.9982765882209659,0
273,160.55,0.75555555555556,0.799999999999983,0.5861111111111086,1.2890995260663638,0.03895371294049729,0.9749358803453255,63.888888888888886,0.8846153846031359,1.3649289099525834,0.00044736810377798975,0.9988350082044551,0
274,161.35,0.799999999999983,0.7194444444444628,0.7069444444444457,1.1316306483300327,0.03857024009779325,0.9653382988757164,72.22222222222223,0.9999999999861537,1.0176817288801812,5.164049980521668e-06,0.9948682916338003,0
275,162.06944444444446,0.7194444444444628,0.6499999999999773,0.7152777777777857,1.005825242718461,0.039755889837149984,0.995012812167599,66.66666666666667,0.9230769230641419,0.9087378640776281,1.5005211935203988e-06,0.9988520814828474,0
276,162.71944444444443,0.6499999999999773,0.6611111111111256,0.7152777777777857,0.9087378640776281,0.042400807585890814,1.061209973340618,72.22222222222223,0.9999999999861537,0.9242718446602043,2.0938519810442813e-05,0.9971060406000529,0
277,163.38055555555556,0.6611111111111256,0.6555555555555372,0.7152777777777857,0.9242718446602043,0.04201565025785241,1.0515702324703147,77.77777777777777,1.0769230769081655,0.9165048543688963,3.725261922227219e-05,0.999319411906767,0
278,164.0361111111111,0.6555555555555372,0.8694444444444684,0.7152777777777857,0.9165048543688963,0.03294767898396303,0.824616499706513,47.22222222222222,0.6538461538371005,1.2155339805825445,8.102023275569081e-05,0.9852545518051525,0
279,164.90555555555557,0.8694444444444684,0.73888888888888,0.7152777777777857,1.2155339805825445,0.041773981852878866,1.0455217410334539,72.22222222222223,0.9999999999861537,1.0330097087378403,2.1869407191843493e-06,0.998721750310357,0
280,165.64444444444445,0.73888888888888,0.7333333333333201,0.7222222222222427,1.0230769230768817,0.03767400783987405,0.9429073437905608,66.66666666666667,0.9230769230641419,1.0153846153845683,1.5928849279589485e-06,0.9967649618648691,0
281,166.37777777777777,0.7333333333333201,0.575000000000017,0.7263888888888914,1.0095602294454848,0.039229397351647224,0.9818357264393937,75.0,1.0384615384471596,0.7915869980879748,8.336581231560558e-06,0.9963356316095247,0
282,166.95277777777778,0.575000000000017,0.8722222222222058,0.7263888888888914,0.7915869980879748,0.035515872207349516,0.8888933948246717,52.77777777777778,0.7307692307591124,1.2007648183556137,0.0042622885666787624,0.9897113758914189,0
283,167.825,0.8722222222222058,0.5388888888888914,0.7263888888888914,1.2007648183556137,0.04027524219391356,1.008011194322444,69.44444444444444,0.9615384615251478,0.7418738049713202,3.109933004452614e-06,0.9969205232977925,0
284,168.36388888888888,0.5388888888888914,0.5500000000000114,0.6902777777777942,0.7806841046277517,0.040634071474741386,1.016991995236902,63.888888888888886,0.8846153846031359,0.7967806841046253,3.204298991477117e-05,0.9968695897994027,0
285,168.9138888888889,0.5500000000000114,0.4361111111111029,0.6583333333333314,0.8354430379747032,0.04047847901224495,1.0130978176874919,69.44444444444444,0.9615384615251478,0.6624472573839557,1.7690976164885797e-05,0.9966326437509548,0
286,169.35,0.4361111111111029,0.6805555555555713,0.6583333333333314,0.6624472573839557,0.03546850082037968,0.8877077808902781,41.666666666666664,0.5769230769150886,1.0337552742616303,0.36453601717948914,0.9349845268565793,0
287,170.03055555555557,0.6805555555555713,0.7916666666666572,0.6680555555555543,1.0187110187110442,0.03670357908544642,0.9186193943091978,58.333333333333336,0.8076923076811242,1.185031185031173,2.7456162570160814e-05,0.9948859509886205,0
288,170.82222222222222,0.7916666666666572,0.5444444444444514,0.7069444444444457,1.1198428290766054,0.04082397275636501,1.0217448559837388,63.888888888888886,0.8846153846031359,0.7701375245579652,2.0935151496814797e-06,0.9983866038883871,0
289,171.36666666666667,0.5444444444444514,0.5944444444444343,0.6277777777777942,0.86725663716813,0.03854171855427494,0.9646244599617904,63.888888888888886,0.8846153846031359,0.9469026548672158,3.9204238419188187e-05,0.9963196982194672,0
290,171.9611111111111,0.5944444444444343,0.5861111111111086,0.5847222222222257,1.0166270783847748,0.03046933540884938,0.7625883670123986,44.44444444444444,0.6153846153760946,1.0023752969121038,6.194384332047775e-05,0.9683390948270241,0
291,172.54722222222222,0.5861111111111086,0.45277777777778283,0.5805555555555628,1.0095693779904136,0.04021401360339973,1.0064787614607529,63.888888888888886,0.8846153846031359,0.7799043062200947,0.00010456690506543964,0.9970215284056607,0
292,173.0,0.45277777777778283,0.6527777777777715,0.56805555555556,0.7970660146699293,0.03818474202821389,0.9556900299055446,55.55555555555556,0.7692307692201182,1.1491442542787085,0.0008747802348807454,0.9964288677507344,0
293,173.65277777777777,0.6527777777777715,0.7527777777777942,0.56805555555556,1.1491442542787085,0.043924860413857444,1.0993540595743514,75.0,1.0384615384471596,1.3251833740831482,0.0037611660081893206,0.9990351337533603,0
294,174.40555555555557,0.7527777777777942,0.7916666666666572,0.5902777777777715,1.2752941176471002,0.03981026882312335,0.9963738127131236,66.66666666666667,0.9230769230641419,1.3411764705882336,0.0007467743707820773,0.997406072293938,0
295,175.19722222222222,0.7916666666666572,0.5138888888888857,0.6236111111111029,1.2694877505567943,0.03633226180891397,0.9093260430839482,55.55555555555556,0.7692307692201182,0.8240534521158187,1.7516583739052294e-06,0.9895580546835029,0
296,175.7111111111111,0.5138888888888857,0.8000000000000114,0.6236111111111029,0.8240534521158187,0.0357561702432611,0.8949075885818771,55.55555555555556,0.7692307692201182,1.2828507795100574,0.002805905882269144,0.9934526044610384,0
297,176.51111111111112,0.8000000000000114,0.5638888888888687,0.6236111111111029,1.2828507795100574,0.04086574692363087,1.0227903823652995,69.44444444444444,0.9615384615251478,0.9042316258351688,7.920055213617161e-05,0.9971149299424582,0
298,177.075,0.5638888888888687,0.3944444444444457,0.5902777777777715,0.9552941176470348,0.03882104898563612,0.9716155588699313,61.111111111111114,0.8461538461421301,0.6682352941176564,2.381965532549657e-05,0.996633481446277,0
299,177.46944444444443,0.3944444444444457,0.3333333333333428,0.5902777777777715,0.6682352941176564,0.03312477394348636,0.8290488430502999,47.22222222222222,0.6538461538371005,0.5647058823529633,4.225274551572511e-06,0.9850145843876283,0
300,177.80277777777778,0.3333333333333428,0.34166666666666856,0.5749999999999886,0.5797101449275641,0.028071484325397935,0.7025748052614893,38.888888888888886,0.5384615384540827,0.5942028985507397,0.009501218795776367,0.8918194053042232,0
301,178.14444444444445,0.34166666666666856,0.61388888888888,0.5388888888888772,0.6340206185567183,0.03268708126039544,0.8180942441405173,44.44444444444444,0.6153846153760946,1.1391752577319672,0.008328969590365887,0.9690804790505912,0
302,178.75833333333333,0.61388888888888,0.7083333333333428,0.5888888888888744,1.04245283018869,0.04189900554544414,1.0486508415626212,69.44444444444444,0.9615384615251478,1.2028301886792911,0.0009955002460628748,0.9985209139297071,0
303,179.46666666666667,0.7083333333333428,0.6805555555555429,0.5888888888888744,1.2028301886792911,0.04165037267448876,1.0424280430505015,72.22222222222223,0.9999999999861537,1.1556603773584977,0.0009425948956049979,0.9992364233517761,0
304,180.1472222222222,0.6805555555555429,0.5888888888889028,0.5888888888888744,1.1556603773584977,0.036717566444990815,0.9189694707887353,47.22222222222222,0.6538461538371005,1.0000000000000482,1.0816352187248413e-05,0.9852193474703896,0
305,180.73611111111111,0.5888888888889028,0.7666666666666515,0.5763888888888857,1.0216867469879816,0.03897301303964309,0.9754189243925053,66.66666666666667,0.9230769230641419,1.3301204819276917,0.0015099202282726765,0.9974427132739662,0
306,181.50277777777777,0.7666666666666515,0.7472222222222342,0.6013888888888914,1.2748267898383066,0.042595789465780506,1.0660899916077347,77.77777777777777,1.0769230769081655,1.2424942263279593,0.0020549020264297724,0.9987213311068104,0
307,182.25,0.7472222222222342,0.7416666666666742,0.6013888888888914,1.2424942263279593,0.035291711986448676,0.8832830992763065,52.77777777777778,0.7307692307591124,1.2332563510392685,6.295544153545052e-05,0.9899396193175605,0
308,182.99166666666667,0.7416666666666742,0.4611111111111086,0.6472222222222115,1.1459227467811466,0.04112252831094025,1.0292171224369115,69.44444444444444,0.9615384615251478,0.7124463519313384,1.887864164018538e-05,0.9989658861359414,0
309,183.45277777777778,0.4611111111111086,0.46388888888887436,0.6472222222222115,0.7124463519313384,0.03729131755446221,0.9333293482121288,58.333333333333336,0.8076923076811242,0.7167381974248821,4.571640238282271e-05,0.9936189487611369,0
310,183.91666666666666,0.46388888888887436,0.6944444444444571,0.6472222222222115,0.7167381974248821,0.04031261460870475,1.0089465533771953,63.888888888888886,0.8846153846031359,1.0729613733905952,0.004110192880034447,0.9953300558050695,0
311,184.61111111111111,0.6944444444444571,0.6416666666666515,0.6875,1.0101010101010284,0.037227081162209,0.931721635906828,63.888888888888886,0.8846153846031359,0.9333333333333113,6.497379672509851e-06,0.9913526303441865,0
312,185.25277777777777,0.6416666666666515,0.5472222222222456,0.6875,0.9333333333333113,0.03830310051680762,0.9586523133071226,61.111111111111114,0.8461538461421301,0.79595959595963,2.417930318188155e-06,0.9963041667373913,0
313,185.8,0.5472222222222456,0.4777777777777601,0.6611111111110972,0.8277310924370276,0.03896138964634328,0.9751280134029249,63.888888888888886,0.8846153846031359,0.7226890756302405,6.794195996917551e-06,0.9967652325397671,0
314,186.27777777777777,0.4777777777777601,0.40833333333333144,0.6152777777777771,0.7765237020315747,0.04090636922580603,1.0238070797977956,69.44444444444444,0.9615384615251478,0.6636568848758441,0.00011136683315271512,0.9949251193698592,0
315,186.6861111111111,0.40833333333333144,0.33055555555557703,0.5944444444444485,0.6869158878504593,0.03986426300811307,0.997725182436387,83.33333333333333,1.1538461538301772,0.5560747663551725,0.0021927906200289726,0.9953068151554774,0
316,187.01666666666668,0.33055555555557703,0.4583333333333144,0.5125000000000028,0.644986449864537,0.030921147670313624,0.7738963515825552,41.666666666666664,0.5769230769150886,0.8943089430893889,0.0049614496529102325,0.9462820534471803,0
317,187.475,0.4583333333333144,0.7972222222222172,0.4708333333333172,0.9734513274336214,0.037751674588596455,0.9448511918687891,63.888888888888886,0.8846153846031359,1.6932153392330855,0.001319725182838738,0.9956736984271501,0
318,188.2722222222222,0.7972222222222172,0.48611111111111427,0.4708333333333172,1.6932153392330855,0.04137905472018038,1.035637480902005,69.44444444444444,0.9615384615251478,1.032448377581163,0.005849943961948156,0.9985382403243503,0
319,188.75833333333333,0.48611111111111427,0.4138888888888914,0.4819444444444372,1.008645533141232,0.038587297964825754,0.9657652242021301,61.111111111111114,0.8461538461421301,0.8587896253602487,0.0022504786029458046,0.9952226069902461,0
320,189.17222222222222,0.4138888888888914,0.7750000000000057,0.4819444444444372,0.8587896253602487,0.04036377130719216,1.0102269063168898,69.44444444444444,0.9615384615251478,1.6080691642651657,0.002107857493683696,0.9989709202049205,0
321,189.94722222222222,0.7750000000000057,0.6750000000000114,0.4819444444444372,1.6080691642651657,0.04025437193012135,1.0074888520996532,72.22222222222223,0.9999999999861537,1.4005763688761255,0.0032038127537816763,0.9987561954064735,0
322,190.62222222222223,0.6750000000000114,0.6944444444444287,0.4819444444444372,1.4005763688761255,0.038189060564307965,0.9557981144877541,61.111111111111114,0.8461538461421301,1.440922190201718,0.0008531078929081559,0.9976164122833772,0
323,191.31666666666666,0.6944444444444287,0.7666666666666799,0.4819444444444372,1.440922190201718,0.04394348841515038,1.099820282315874,77.77777777777777,1.0769230769081655,1.5907780979827604,0.004155340138822794,0.9983208864121315,0
324,192.08333333333334,0.7666666666666799,0.7027777777777544,0.5805555555555628,1.320574162679432,0.03704463353284417,0.9271553256189378,63.888888888888886,0.8846153846031359,1.2105263157894184,0.0004185795260127634,0.9956963643829351,0
325,192.7861111111111,0.7027777777777544,0.6388888888889142,0.68472222222222,1.0263691683569671,0.039817576780360436,0.9965567167082665,66.66666666666667,0.9230769230641419,0.9330628803245835,5.3183075578999706e-06,0.9968190489791218,0
326,193.425,0.6388888888889142,0.7083333333333144,0.68472222222222,0.9330628803245835,0.040047623250408414,1.0023143336558256,77.77777777777777,1.0769230769081655,1.0344827586206653,0.00010473436122993007,0.9988125891779472,0
327,194.13333333333333,0.7083333333333144,0.3777777777777942,0.6986111111110915,1.0139165009940372,0.04057013783654255,1.015391860278361,75.0,1.0384615384471596,0.5407554671968577,8.850566700857598e-06,0.9992023350615593,0
328,194.51111111111112,0.3777777777777942,0.6583333333333314,0.68472222222222,0.5517241379310602,0.04244752147448597,1.062379131365976,130.55555555555554,1.8076923076672777,0.9614604462474649,0.9839094281196594,0.3964475986188988,1
329,195.16944444444445,0.6583333333333314,0.7333333333333201,0.68472222222222,0.9614604462474649,0.039767473204037625,0.9953027213737179,66.66666666666667,0.9230769230641419,1.0709939148072862,1.4472348993876949e-05,0.9981982096321181,0
330,195.90277777777777,0.7333333333333201,0.6027777777777885,0.6986111111110915,1.049701789264424,0.03854141532005116,0.9646168705973218,72.22222222222223,0.9999999999861537,0.8628230616302582,5.142028840054991e-06,0.9975689318691657,0
331,196.50555555555556,0.6027777777777885,0.7055555555555486,0.68472222222222,0.8803245436105662,0.04164477064098597,1.0422878350176212,69.44444444444444,0.9615384615251478,1.030425963488837,5.239342135610059e-05,0.9989919382315561,0
332,197.2111111111111,0.7055555555555486,0.3944444444444457,0.6986111111110915,1.0099403578529011,0.04079416540876782,1.0209988358876616,72.22222222222223,0.9999999999861537,0.5646123260437552,8.169010470737703e-06,0.9978329032976071,0
333,197.60555555555555,0.3944444444444457,0.7055555555555486,0.6805555555555429,0.5795918367347065,0.042084866834793934,1.0533025891388061,138.88888888888889,1.9230769230502955,1.0367346938775601,0.9836554527282715,0.38756843529602275,1
334,198.3111111111111,0.7055555555555486,0.6333333333333542,0.6805555555555429,1.0367346938775601,0.03964934495745232,0.9923462004830338,72.22222222222223,0.9999999999861537,0.9306122448980071,8.117366633086931e-06,0.9986600782345645,0
335,198.94444444444446,0.6333333333333542,0.8444444444444343,0.6486111111111228,0.9764453961456249,0.04077193405221269,1.020442428152988,69.44444444444444,0.9615384615251478,1.3019271948607747,0.0010358118452131748,0.9994639488378718,0
336,199.7888888888889,0.8444444444444343,0.46388888888887436,0.68194444444444,1.238289205702641,0.041518243153197854,1.0391210974107847,91.66666666666667,1.2692307692131952,0.6802443991853192,0.0005389422876760364,0.9954697136715114,0
337,200.25277777777777,0.46388888888887436,0.7416666666666742,0.6458333333333428,0.7182795698924401,0.04106056974044859,1.0276664195922431,83.33333333333333,1.1538461538301772,1.1483870967741885,0.05956486240029335,0.9952007220907273,0
338,200.99444444444444,0.7416666666666742,0.44722222222222285,0.68194444444444,1.0875763747454357,0.040005340725123954,1.0012560840590696,66.66666666666667,0.9230769230641419,0.6558044806517364,4.37334847447346e-06,0.9986328161681199,0
339,201.44166666666666,0.44722222222222285,0.6666666666666572,0.6694444444444514,0.6680497925311143,0.03777099460689372,0.945334734453695,63.888888888888886,0.8846153846031359,0.9958506224066145,0.002806060714647174,0.9972108457418621,0
340,202.10833333333332,0.6666666666666572,0.5555555555555713,0.6500000000000057,1.025641025641002,0.03960544599520025,0.9912474946042169,72.22222222222223,0.9999999999861537,0.8547008547008715,1.7246073184651323e-05,0.9992298384577012,0
341,202.6638888888889,0.5555555555555713,0.5916666666666686,0.6500000000000057,0.8547008547008715,0.04204340465374427,1.0522648711671088,72.22222222222223,0.9999999999861537,0.9102564102564052,0.00012543817865662277,0.9967657488443066,0
342,203.25555555555556,0.5916666666666686,0.6111111111111143,0.6125000000000114,0.9659863945578083,0.04273408216244341,1.0695511895729282,83.33333333333333,1.1538461538301772,0.9977324263038415,0.0006541056791320443,0.9988768795747736,0
343,203.86666666666667,0.6111111111111143,0.7194444444444343,0.6222222222222342,0.9821428571428433,0.04249403083598306,1.0635431704747698,83.33333333333333,1.1538461538301772,1.1562499999999614,0.0017923121340572834,0.9986636656747672,0
344,204.5861111111111,0.7194444444444343,0.48611111111111427,0.6222222222222342,1.1562499999999614,0.040644271961597055,1.0172472936380526,75.0,1.0384615384471596,0.78124999999999,0.00010326141637051478,0.9977502814008614,0
345,205.07222222222222,0.48611111111111427,0.61944444444444,0.6013888888888914,0.8083140877598171,0.04001628097362012,1.0015298972592415,75.0,1.0384615384471596,1.03002309468821,0.0011830921284854412,0.9986813011373545,0
346,205.69166666666666,0.61944444444444,0.45277777777778283,0.6013888888888914,1.03002309468821,0.04266289318613286,1.0677694675738922,83.33333333333333,1.1538461538301772,0.7528868360277189,0.0005108326440677047,0.9984547421120644,0
347,206.14444444444445,0.45277777777778283,0.5638888888888971,0.6013888888888914,0.7528868360277189,0.03904897116990193,0.9773200090646239,83.33333333333333,1.1538461538301772,0.9376443418013954,0.005993198603391647,0.9961538730889348,0
348,206.70833333333334,0.5638888888888971,0.9805555555555543,0.5777777777777828,0.9759615384615441,0.043875692710897515,1.0981234873348575,91.66666666666667,1.2692307692131952,1.6971153846153675,0.05760088562965393,0.9942341502448817,0
349,207.6888888888889,0.9805555555555543,0.4333333333333371,0.6013888888888914,1.6304849884526469,0.042161669667416454,1.0552248150727044,102.77777777777777,1.4230769230572187,0.7205542725173243,0.05156994238495827,0.9881418145773855,0
350,208.12222222222223,0.4333333333333371,0.6361111111110915,0.5777777777777828,0.75,0.03783761269867634,0.9470020560786765,94.44444444444444,1.307692307674201,1.100961538461495,0.1002999022603035,0.9897744508691638,0
351,208.75833333333333,0.6361111111110915,0.9055555555555657,0.6013888888888914,1.0577367205542356,0.04200347200410334,1.0512654343998957,83.33333333333333,1.1538461538301772,1.5057736720554378,0.010264198295772076,0.9969270858343116,0
352,209.6638888888889,0.9055555555555657,0.75555555555556,0.6152777777777771,1.4717832957110788,0.04106251407436685,1.0277150824989902,75.0,1.0384615384471596,1.227990970654636,0.0005571271176449955,0.999134077556757,0
353,210.41944444444445,0.75555555555556,0.5527777777777771,0.6277777777777658,1.2035398230088796,0.04169496073181088,1.043543995642354,77.77777777777777,1.0769230769081655,0.8805309734513432,0.00014754667063243687,0.9977397036940596,0
354,210.97222222222223,0.5527777777777771,0.4388888888888687,0.5916666666666686,0.9342723004694795,0.04117957921056067,1.0306449957985826,72.22222222222223,0.9999999999861537,0.7417840375586489,0.00011955330410273746,0.9977029822017891,0
355,211.4111111111111,0.4388888888888687,0.4138888888888914,0.5916666666666686,0.7417840375586489,0.042357157867657425,1.0601175055561554,77.77777777777777,1.0769230769081655,0.6995305164319269,0.0009794402867555618,0.9977143844333536,0
356,211.825,0.4138888888888914,0.6972222222222229,0.5583333333333371,0.741293532338308,0.03718155414283792,0.9305821829160993,58.333333333333336,0.8076923076811242,1.2487562189054653,0.0021968891378492117,0.9969571517354515,0
357,212.5222222222222,0.6972222222222229,0.5444444444444514,0.5999999999999943,1.1620370370370492,0.040723994078148494,1.0192425835864534,72.22222222222223,0.9999999999861537,0.9074074074074275,0.00024348647275473922,0.9985493310703151,0
358,213.06666666666666,0.5444444444444514,0.7972222222222172,0.5944444444444343,0.915887850467317,0.038728122987029816,0.9692898013639244,63.888888888888886,0.8846153846031359,1.341121495327117,0.0020053116604685783,0.9973983548524982,0
359,213.86388888888888,0.7972222222222172,0.4388888888888971,0.5944444444444343,1.341121495327117,0.03891907095480164,0.9740688586348999,69.44444444444444,0.9615384615251478,0.7383177570093722,0.00013398095325101167,0.9972001882109247,0
360,214.30277777777778,0.4388888888888971,0.32777777777778283,0.5944444444444343,0.7383177570093722,0.03744347880023611,0.9371376490621561,58.333333333333336,0.8076923076811242,0.5514018691588963,1.5289377188310027e-05,0.9923468142628142,0
361,214.63055555555556,0.32777777777778283,0.8305555555555486,0.5486111111111143,0.5974683544303855,0.04135963318817218,1.0351513976258102,83.33333333333333,1.1538461538301772,1.51392405063289,0.011912618763744831,0.9980368983607173,0
362,215.4611111111111,0.8305555555555486,0.4749999999999943,0.5486111111111143,1.51392405063289,0.04136291071235991,1.0352334276991488,75.0,1.0384615384471596,0.8658227848101112,0.003615753725171089,0.9992135262722559,0
363,215.9361111111111,0.4749999999999943,1.0388888888888914,0.5097222222222229,0.9318801089918133,0.04838015155749403,1.2108613554244558,97.22222222222223,1.346153846135207,2.03814713896458,0.9919946193695068,0.18170338665575175,1
364,216.975,1.0388888888888914,0.45277777777778283,0.5097222222222229,2.03814713896458,0.04135374252683965,1.0350039657981738,75.0,1.0384615384471596,0.8882833787466028,0.0006570825935341418,0.9986504525495248,0
365,217.42777777777778,0.45277777777778283,0.7777777777777715,0.5097222222222229,0.8882833787466028,0.04968999864842661,1.24364428753331,102.77777777777777,1.4230769230572187,1.525885558583092,0.9881864190101624,0.21413322611497354,1
366,218.20555555555555,0.7777777777777715,0.7333333333333485,0.6208333333333371,1.2527964205816378,0.039380999017668915,0.9856300220935832,72.22222222222223,0.9999999999861537,1.1812080536912923,0.000304406596114859,0.9975548645201396,0
367,218.9388888888889,0.7333333333333485,0.3666666666666458,0.6388888888888999,1.1478260869565255,0.04041056629633714,1.0113980941317073,66.66666666666667,0.9230769230641419,0.5739130434782184,1.0581647075014189e-05,0.9988952388477308,0
368,219.30555555555554,0.3666666666666458,0.9305555555555713,0.6041666666666714,0.6068965517240986,0.04466034115537983,1.1177617159974624,130.55555555555554,1.8076923076672777,1.5402298850574854,0.9818693995475769,0.36163897046302995,1
369,220.23611111111111,0.9305555555555713,0.4611111111111086,0.6041666666666714,1.5402298850574854,0.03746940147167186,0.9377864432486237,75.0,1.0384615384471596,0.7632183908045875,9.584552026353776e-05,0.996501066577747,0
370,220.69722222222222,0.4611111111111086,0.9611111111111086,0.6041666666666714,0.7632183908045875,0.04710670891705911,1.1789895561015478,94.44444444444444,1.307692307674201,1.5908045977011327,0.9928829669952393,0.1908871669090908,1
371,221.65833333333333,0.9611111111111086,0.7583333333333258,0.75555555555556,1.272058823529401,0.04013346928029382,1.0044628932770439,77.77777777777777,1.0769230769081655,1.0036764705882193,1.9342510313435923e-06,0.9973164990766955,0
372,222.41666666666666,0.7583333333333258,0.6555555555555657,0.7458333333333371,1.0167597765362975,0.04293489983925719,1.0745772665179527,75.0,1.0384615384471596,0.8789571694599718,6.331669737846823e-06,0.9983993065612535,0
373,223.07222222222222,0.6555555555555657,0.3722222222222342,0.7458333333333371,0.8789571694599718,0.04317056905549935,1.0804756098968833,75.0,1.0384615384471596,0.49906890130355175,1.7480906535638496e-05,0.9977103825899903,0
374,223.44444444444446,0.3722222222222342,0.2277777777777601,0.6944444444444571,0.5360000000000076,0.03756735193423086,0.9402379533419248,72.22222222222223,0.9999999999861537,0.3279999999999686,0.9972456693649292,0.3159622751008282,1
375,223.67222222222222,0.2277777777777601,0.1472222222222399,0.6944444444444571,0.3279999999999686,0.044905039241934945,1.1238860344879447,61.111111111111114,0.8461538461421301,0.21200000000002162,0.036201685667037964,0.9105089770749581,0
376,223.81944444444446,0.1472222222222399,1.1722222222222172,0.5583333333333371,0.2636815920398309,0.034679334282268375,0.8679564731074264,36.111111111111114,0.49999999999307687,2.099502487562166,0.01375386118888855,0.7915909411102758,0
377,224.99166666666667,1.1722222222222172,0.40555555555553724,0.5583333333333371,2.099502487562166,0.03796080402125267,0.9500852959410824,69.44444444444444,0.9615384615251478,0.7263681592039424,1.4573495832337358e-07,0.9963034708882921,0
378,225.3972222222222,0.40555555555553724,0.6694444444444514,0.5583333333333371,0.7263681592039424,0.046518043542611166,1.1642564035534742,86.11111111111111,1.1923076922911833,1.1990049751243823,0.9937686920166016,0.27249459743653015,1
379,226.06666666666666,0.6694444444444514,0.7194444444444343,0.5583333333333371,1.1990049751243823,0.04029951730607047,1.0086187532957651,77.77777777777777,1.0769230769081655,1.2885572139303214,0.002738032955676317,0.9990636599618365,0
380,226.7861111111111,0.7194444444444343,0.6277777777777942,0.6625000000000085,1.0859538784066793,0.03943951574289645,0.9870945822270877,69.44444444444444,0.9615384615251478,0.9475890985325074,8.93363630893873e-06,0.9993579399166033,0
381,227.4138888888889,0.6277777777777942,0.7249999999999943,0.6416666666666799,0.9783549783549838,0.03983647144804156,0.9970296135922597,66.66666666666667,0.9230769230641419,1.1298701298700977,7.047745020827278e-05,0.9988140143759692,0
382,228.13888888888889,0.7249999999999943,0.7333333333333485,0.6416666666666799,1.1298701298700977,0.04434875809949821,1.1099633964547102,88.88888888888889,1.2307692307521891,1.1428571428571428,0.003798268036916852,0.9962749812469276,0
383,228.87222222222223,0.7333333333333485,0.7638888888888857,0.6486111111111228,1.1306209850107096,0.042809375647424305,1.0714356394628846,77.77777777777777,1.0769230769081655,1.17773019271946,0.0004189432365819812,0.9979206027637428,0
384,229.63611111111112,0.7638888888888857,0.8416666666666686,0.6944444444444429,1.0999999999999979,0.03929948523527717,0.9835898902243113,75.0,1.0384615384471596,1.2120000000000055,0.00016622063412796706,0.9951659674272118,0
385,230.4777777777778,0.8416666666666686,0.5555555555555429,0.7222222222222143,1.1653846153846308,0.040657940944811906,1.0175894017755835,69.44444444444444,0.9615384615251478,0.7692307692307602,2.3886304916231893e-06,0.9989315913401505,0
386,231.03333333333333,0.5555555555555429,0.5138888888888857,0.7222222222222143,0.7692307692307602,0.04037982752652032,1.010628762344058,63.888888888888886,0.8846153846031359,0.7115384615384649,2.697995114431251e-05,0.9970625236858833,0
387,231.54722222222222,0.5138888888888857,0.9138888888888914,0.6944444444444429,0.7399999999999971,0.03932329240216436,0.9841857374351574,63.888888888888886,0.8846153846031359,1.3160000000000067,0.28534752130508423,0.9824337488280067,0
388,232.4611111111111,0.9138888888888914,0.5611111111111029,0.7222222222222143,1.2653846153846326,0.04170099236178898,1.0436949556417667,72.22222222222223,0.9999999999861537,0.776923076923074,3.821437076112488e-06,0.998584698268704,0
389,233.0222222222222,0.5611111111111029,0.44722222222222285,0.7222222222222143,0.776923076923074,0.0409360622761906,1.0245502392563315,66.66666666666667,0.9230769230641419,0.6192307692307769,1.7653967006481253e-05,0.998383723884892,0
390,233.46944444444443,0.44722222222222285,0.6833333333333371,0.6763888888888943,0.6611909650923982,0.041462327787222676,1.0377216442537747,75.0,1.0384615384471596,1.010266940451743,0.01162171084433794,0.9982832344563857,0
391,234.15277777777777,0.6833333333333371,0.7472222222222342,0.7041666666666657,0.9704142011834387,0.04213566752460255,1.0545740318717844,77.77777777777777,1.0769230769081655,1.0611439842209258,8.675920980749652e-05,0.9988794645504366,0
392,234.9,0.7472222222222342,0.6972222222222229,0.7083333333333428,1.0549019607843166,0.04403179709051745,1.1020304771769553,86.11111111111111,1.1923076922911833,0.9843137254901838,0.0002669592504389584,0.9950567702220756,0
393,235.59722222222223,0.6972222222222229,0.8138888888888687,0.69027777777778,1.010060362173036,0.03552906544507767,0.8892235959754258,52.77777777777778,0.7307692307591124,1.1790744466800474,4.5329776185099036e-05,0.987265917071005,0
394,236.4111111111111,0.8138888888888687,0.5944444444444628,0.69027777777778,1.1790744466800474,0.03750763290094808,0.9387433017697923,61.111111111111114,0.8461538461421301,0.8611670020120962,7.972831781444256e-07,0.9956591302780828,0
395,237.00555555555556,0.5944444444444628,0.36388888888888005,0.6388888888888999,0.9304347826087083,0.044387136642951366,1.1109239369583852,75.0,1.0384615384471596,0.5695652173912806,8.292646816698834e-05,0.9983696838046587,0
396,237.36944444444444,0.36388888888888005,0.38611111111111995,0.6388888888888999,0.5695652173912806,0.03460255299289496,0.8660347863592681,55.55555555555556,0.7692307692201182,0.6043478260869599,0.0003037531569134444,0.9861716576274879,0
397,237.75555555555556,0.38611111111111995,0.6722222222222172,0.6388888888888999,0.6043478260869599,0.03878137041021115,0.9706224810875419,66.66666666666667,0.9230769230641419,1.0521739130434522,0.004374113865196705,0.9978760210729265,0
398,238.42777777777778,0.6722222222222172,0.6027777777777885,0.63333333333334,1.0614035087719107,0.040709986096554164,1.0188919909770047,72.22222222222223,0.9999999999861537,0.9517543859649192,7.708962948527187e-05,0.9971603038139905,0
399,239.03055555555557,0.6027777777777885,0.669444444444423,0.6375000000000028,0.9455337690631934,0.0366053148603396,0.9161600313478978,55.55555555555556,0.7692307692201182,1.0501089324618353,3.747917799046263e-05,0.9917384693868505,0
400,239.7,0.669444444444423,0.5500000000000114,0.6708333333333201,0.9979296066252465,0.04033129544670072,1.0094140985189128,69.44444444444444,0.9615384615251478,0.8198757763975487,1.0731954716902692e-05,0.998218019467427,0
401,240.25,0.5500000000000114,0.8944444444444457,0.6361111111111057,0.8646288209607239,0.04153932657138629,1.0396487744746792,72.22222222222223,0.9999999999861537,1.4061135371179179,0.009141889400780201,0.9990403107139223,0
402,241.14444444444445,0.8944444444444457,0.7722222222222115,0.6361111111111057,1.4061135371179179,0.04408908225604447,1.1034642137598871,80.55555555555556,1.1153846153691716,1.2139737991266308,0.0014994649682193995,0.9968863327844053,0
403,241.91666666666666,0.7722222222222115,0.6444444444444457,0.6361111111111057,1.2139737991266308,0.037978915037376416,0.9505385795465638,75.0,1.0384615384471596,1.0131004366812333,9.733318438520655e-05,0.994691021132154,0
404,242.5611111111111,0.6444444444444457,0.8111111111111313,0.6236111111111171,1.0334075723830656,0.03980427066378865,0.9962236904189957,69.44444444444444,0.9615384615251478,1.3006681514476814,0.0009690648294053972,0.9977046632729762,0
405,243.37222222222223,0.8111111111111313,0.7055555555555486,0.6569444444444343,1.234672304439796,0.04034887119300666,1.009853985359063,66.66666666666667,0.9230769230641419,1.0739957716701962,8.531053026672453e-06,0.9993211484706825,0
406,244.07777777777778,0.7055555555555486,0.7194444444444343,0.6708333333333201,1.0517598343685404,0.038267873897059164,0.9577706593403106,66.66666666666667,0.9230769230641419,1.0724637681159481,1.1782632100221235e-05,0.9976958529658657,0
407,244.79722222222222,0.7194444444444343,0.6972222222222229,0.6888888888888829,1.044354838709672,0.03800079975568651,0.951086311598303,77.77777777777777,1.0769230769081655,1.012096774193558,4.220863411319442e-05,0.9962087077995592,0
408,245.49444444444444,0.6972222222222229,0.4361111111111029,0.7013888888888857,0.9940594059405994,0.04029514014913515,1.0085092015476003,66.66666666666667,0.9230769230641419,0.6217821782178129,3.791083827309194e-06,0.9977463213222624,0
409,245.93055555555554,0.4361111111111029,0.700000000000017,0.7013888888888857,0.6217821782178129,0.036467071889140036,0.9127000779146044,52.77777777777778,0.7307692307591124,0.9980198019802268,0.008483334444463253,0.9868498817228409,0
410,246.63055555555556,0.700000000000017,0.61388888888888,0.7027777777777828,0.9960474308300566,0.04239148776830493,1.0609767163831456,77.77777777777777,1.0769230769081655,0.873517786561246,2.7096137273474596e-05,0.9982153647948426,0
411,247.24444444444444,0.61388888888888,0.63611111111112,0.7027777777777828,0.873517786561246,0.040397850049678885,1.0110798311422617,69.44444444444444,0.9615384615251478,0.9051383399209547,1.233968032465782e-05,0.9986236477240238,0
412,247.88055555555556,0.63611111111112,0.63055555555556,0.69861111111112,0.9105367793240567,0.037846024922159126,0.9472125977161163,75.0,1.0384615384471596,0.9025844930417444,4.546701893559657e-05,0.9938232446478108,0
413,248.51111111111112,0.63055555555556,0.549999999999983,0.6708333333333343,0.9399585921325104,0.050162469411472316,1.255469314328856,97.22222222222223,1.346153846135207,0.819875776397489,0.9794274568557739,0.24383098949868365,1
414,249.0611111111111,0.549999999999983,0.3555555555555543,0.6666666666666714,0.8249999999999685,0.04128251170551437,1.0332211964995819,63.888888888888886,0.8846153846031359,0.5333333333333277,5.8029991123476066e-06,0.9992009051695472,0
415,249.41666666666666,0.3555555555555543,0.38611111111111995,0.63333333333334,0.5614035087719219,0.03595611789007152,0.8999118903634264,55.55555555555556,0.7692307692201182,0.6096491228070251,0.00012922566384077072,0.9939264943336134,0
416,249.80277777777778,0.38611111111111995,0.4000000000000057,0.62222222222222,0.6205357142857307,0.03890584731138702,0.9737378964887882,66.66666666666667,0.9230769230641419,0.6428571428571542,0.000362858030712232,0.9973152950595304,0
417,250.20277777777778,0.4000000000000057,0.3361111111111086,0.5819444444444315,0.6873508353222207,0.03846064611146043,0.9625953739661153,69.44444444444444,0.9615384615251478,0.5775656324582424,0.00014530590851791203,0.9968822467426519,0
418,250.5388888888889,0.3361111111111086,0.3055555555555429,0.4930555555555429,0.6816901408450827,0.03297141266434814,0.8252105076927462,50.0,0.6923076922981064,0.6197183098591452,5.08501980220899e-05,0.9805830041687724,0
419,250.84444444444443,0.3055555555555429,0.580555555555577,0.4749999999999943,0.6432748538011507,0.033540105065247176,0.8394437754524362,44.44444444444444,0.6153846153760946,1.222222222222282,0.015865495428442955,0.9456300490708933,0
420,251.425,0.580555555555577,0.7472222222222058,0.4749999999999943,1.222222222222282,0.037599870132835715,0.9410518207807618,75.0,1.0384615384471596,1.5730994152046627,0.0039275349117815495,0.9928332178307765,0
421,252.17222222222222,0.7472222222222058,0.8361111111111086,0.4749999999999943,1.5730994152046627,0.039665614540548,0.9927533965914628,69.44444444444444,0.9615384615251478,1.7602339181286708,0.0006434782990254462,0.9986927356581776,0
422,253.00833333333333,0.8361111111111086,0.8416666666666686,0.4749999999999943,1.7602339181286708,0.040020219660293746,1.0016284749472122,75.0,1.0384615384471596,1.7719298245614288,0.0012215740280225873,0.9991036350757319,0
423,253.85,0.8416666666666686,0.6666666666666856,0.4749999999999943,1.7719298245614288,0.03945837118437141,0.9875664973552238,75.0,1.0384615384471596,1.4035087719298813,0.011189906857907772,0.9936155000769583,0
424,254.51666666666668,0.6666666666666856,0.7222222222222001,0.49027777777779136,1.3597733711048168,0.03879410468086431,0.9709411951826208,66.66666666666667,0.9230769230641419,1.473087818696798,0.0009730991441756487,0.9979874161745226,0
425,255.23888888888888,0.7222222222222001,0.6444444444444457,0.6236111111111313,1.158129175946475,0.040972652202701514,1.0254660141471403,155.55555555555554,2.153846153816331,1.033407572383042,0.8587551712989807,0.1782950627412569,1
426,255.88333333333333,0.6444444444444457,0.4361111111111313,0.6555555555555657,0.9830508474576138,0.04050229062541245,1.0136937761801097,72.22222222222223,0.9999999999861537,0.6652542372881561,1.7536909581394866e-05,0.9989394198271349,0
427,256.31944444444446,0.4361111111111313,0.9944444444444116,0.6555555555555657,0.6652542372881561,0.03706924265917279,0.9277712443191235,75.0,1.0384615384471596,1.5169491525422993,0.09640389680862427,0.9942963632109374,0
428,257.31388888888887,0.9944444444444116,0.4416666666666629,0.6944444444444429,1.431999999999956,0.04068024523518689,1.0181476349023058,69.44444444444444,0.9615384615251478,0.635999999999996,1.64067967034498e-06,0.9959380158413529,0
429,257.75555555555553,0.4416666666666629,1.113888888888937,0.6944444444444429,0.635999999999996,0.0509213610573358,1.2744629002798744,100.0,1.3846153845962128,1.6040000000000727,0.9906450510025024,0.23575332222866718,1
430,258.86944444444447,1.113888888888937,0.658333333333303,0.734722222222203,1.5160680529301618,0.04151196127122321,1.038963874089287,80.55555555555556,1.1153846153691716,0.8960302457466741,4.679645371652441e-06,0.9975575102487437,0
431,259.52777777777777,0.658333333333303,0.6500000000000341,0.6944444444444429,0.9479999999999585,0.04282105826497378,1.0717280327205627,80.55555555555556,1.1153846153691716,0.9360000000000512,9.842323197517544e-05,0.9984665918443871,0
432,260.1777777777778,0.6500000000000341,0.8138888888888687,0.6624999999999943,0.981132075471758,0.04000528306117801,1.0012546408423475,75.0,1.0384615384471596,1.228511530398303,0.0007016122108325362,0.9981901585835011,0
433,260.9916666666667,0.8138888888888687,0.375,0.6624999999999943,1.228511530398303,0.04236767130967625,1.0603806366180324,69.44444444444444,0.9615384615251478,0.5660377358490615,1.1723395800800063e-05,0.9988172461402317,0
434,261.3666666666667,0.375,0.4361111111111313,0.6541666666666686,0.5732484076433104,0.03535779509255031,0.8849370312473503,125.0,1.730769230745266,0.6666666666666956,0.9870981574058533,0.35140817402184277,1
435,261.8027777777778,0.4361111111111313,0.5916666666666401,0.6472222222222399,0.6738197424892832,0.03998036891795562,1.0006310881609208,66.66666666666667,0.9230769230641419,0.9141630901286893,0.0017182144802063704,0.9983579322331764,0
436,262.39444444444445,0.5916666666666401,0.5777777777777828,0.6208333333333371,0.9530201342281394,0.03961405104032398,0.9914628621933329,72.22222222222223,0.9999999999861537,0.9306487695749466,8.075466757873073e-05,0.998320928676153,0
437,262.97222222222223,0.5777777777777828,0.8916666666666515,0.6208333333333371,0.9306487695749466,0.04092981338781194,1.0243938417005467,69.44444444444444,0.9615384615251478,1.4362416107382219,0.00447909627109766,0.9986777462208967,0
438,263.8638888888889,0.8916666666666515,0.8083333333333371,0.6208333333333371,1.4362416107382219,0.04150690153977966,1.0388372388251013,75.0,1.0384615384471596,1.30201342281879,0.0009179289336316288,0.9987966206653525,0
439,264.6722222222222,0.8083333333333371,0.98888888888888,0.6541666666666686,1.2356687898089194,0.04112557588582229,1.029293397325138,77.77777777777777,1.0769230769081655,1.5116772823779014,0.0021230774000287056,0.9982444973466422,0
440,265.6611111111111,0.98888888888888,0.48888888888888005,0.6541666666666686,1.5116772823779014,0.04200714835855678,1.0513574464212145,80.55555555555556,1.1153846153691716,0.7473460721868208,0.00011275446740910411,0.9979473797435163,0
441,266.15,0.48888888888888005,0.3444444444444912,0.6208333333333371,0.7874720357941644,0.04032174608954221,1.0091750966311523,63.888888888888886,0.8846153846031359,0.5548098434005193,1.7409451174899004e-05,0.9964642285709071,0
442,266.49444444444447,0.3444444444444912,0.8833333333333258,0.5847222222222115,0.5890736342043663,0.03589878401973746,0.8984769347936422,58.333333333333336,0.8076923076811242,1.5106888361045279,0.00604260852560401,0.993025398474263,0
443,267.3777777777778,0.8833333333333258,0.4555555555555202,0.5847222222222115,1.5106888361045279,0.03895752855386035,0.9750313777470457,66.66666666666667,0.9230769230641419,0.7790973871733505,2.912612762884237e-05,0.9983434799911928,0
444,267.8333333333333,0.4555555555555202,0.9083333333333599,0.5847222222222115,0.7790973871733505,0.04989273267291703,1.2487183269437363,97.22222222222223,1.346153846135207,1.553444180522639,0.9932979941368103,0.23964522414807488,1
445,268.7416666666667,0.9083333333333599,0.38333333333332575,0.6999999999999886,1.2976190476191065,0.04064525977287852,1.0172720166384706,72.22222222222223,0.9999999999861537,0.5476190476190457,3.7854258607694646e-06,0.9992324255434322,0
446,269.125,0.38333333333332575,0.38055555555553156,0.69305555555556,0.5531062124248353,0.04310515939830759,1.0788385330458334,113.88888888888889,1.5769230769012423,0.5490981963927475,0.9943938255310059,0.3917696978601528,1
447,269.50555555555553,0.38055555555553156,0.35277777777781694,0.6486111111111086,0.5867237687365819,0.039229918727823124,0.9818487754738161,161.11111111111111,2.230769230738343,0.5438972162741524,0.9826874136924744,0.21027069363075312,1
448,269.85833333333335,0.35277777777781694,0.6805555555555429,0.4722222222222001,0.7470588235295297,0.04560713278007534,1.141458073968167,158.33333333333334,2.1923076922773372,1.441176470588276,0.9672291278839111,0.44638797371716377,1
449,270.5388888888889,0.6805555555555429,0.6750000000000114,0.4722222222222001,1.441176470588276,0.04019681074710385,1.0060482073342976,77.77777777777777,1.0769230769081655,1.4294117647059734,0.0037955627776682377,0.9982929796038493,0
450,271.2138888888889,0.6750000000000114,0.8111111111110745,0.4722222222222001,1.4294117647059734,0.041296253426092125,1.0335651251122253,80.55555555555556,1.1153846153691716,1.7176470588235322,0.0026344414800405502,0.998405930390641,0
451,272.025,0.8111111111110745,0.6138888888889369,0.5652777777777658,1.4348894348894006,0.0399626865054263,1.0001885316720893,72.22222222222223,0.9999999999861537,1.085995085995194,0.001400038949213922,0.9987762647582497,0
452,272.6388888888889,0.6138888888889369,0.7249999999999659,0.6444444444444741,0.9525862068965824,0.04119480920542131,1.0310261730298724,77.77777777777777,1.0769230769081655,1.1249999999998952,0.00046384637244045734,0.9980946516196302,0
453,273.3638888888889,0.7249999999999659,0.7944444444444798,0.6444444444444741,1.1249999999998952,0.04177825444666288,1.045628675768752,86.11111111111111,1.1923076922911833,1.2327586206896533,0.004437458701431751,0.9974680474187674,0
454,274.15833333333336,0.7944444444444798,0.4277777777777487,0.6777777777777771,1.172131147541037,0.03989789793650849,0.9985669994558745,75.0,1.0384615384471596,0.6311475409835643,1.0737851880548988e-05,0.9991591283876957,0
455,274.5861111111111,0.4277777777777487,0.3555555555555543,0.6444444444444741,0.6637931034482002,0.038279151883632234,0.958052925469471,61.111111111111114,0.8461538461421301,0.5517241379310072,4.308182542445138e-05,0.9978706687926093,0
456,274.94166666666666,0.3555555555555543,0.36944444444446844,0.6444444444444741,0.5517241379310072,0.039886339872696935,0.9982777235366722,77.77777777777777,1.0769230769081655,0.5732758620689764,0.0021516268607228994,0.997195825429225,0
457,275.31111111111113,0.36944444444446844,0.3694444444444116,0.6444444444444741,0.5732758620689764,0.03952456774890699,0.9892232689708054,80.55555555555556,1.1153846153691716,0.5732758620688881,0.002618533791974187,0.9980630189814244,0
458,275.68055555555554,0.3694444444444116,1.1583333333333599,0.6444444444444741,0.5732758620688881,0.038879504121966,0.9730785775527855,72.22222222222223,0.9999999999861537,1.7974137931034067,0.028436586260795593,0.9982672976097103,0
459,276.8388888888889,1.1583333333333599,0.4555555555555202,0.6444444444444741,1.7974137931034067,0.04106951005586332,1.0278901783464531,77.77777777777777,1.0769230769081655,0.7068965517240505,1.1377629562048241e-05,0.9971394351896751,0
460,277.2944444444444,0.4555555555555202,0.9472222222222513,0.5347222222222285,0.8519480519479757,0.04894390402511097,1.224970986235581,97.22222222222223,1.346153846135207,1.7714285714286049,0.9928820133209229,0.2629239753705326,1
461,278.2416666666667,0.9472222222222513,0.408333333333303,0.5347222222222285,1.7714285714286049,0.04146449466160555,1.0377758769167122,80.55555555555556,1.1153846153691716,0.7636363636362979,0.008175516501069069,0.9992133161495107,0
462,278.65,0.408333333333303,0.21111111111110858,0.44166666666663446,0.9245283018867912,0.040595231569381385,1.0160199077395555,66.66666666666667,0.9230769230641419,0.47798742138367695,0.9714223742485046,0.3620957501822263,1
463,278.8611111111111,0.21111111111110858,0.841666666666697,0.41805555555552587,0.5049833887043488,0.044883564911532545,1.1233485736495472,66.66666666666667,0.9230769230641419,2.013289036545066,0.0028066609520465136,0.9485953694658269,0
464,279.7027777777778,0.841666666666697,1.1833333333333371,0.41805555555552587,2.013289036545066,0.03957230134819685,0.9904179483770227,72.22222222222223,0.9999999999861537,2.830564784053366,2.3420538127538748e-05,0.998837966469788,0
465,280.8861111111111,1.1833333333333371,0.4611111111111086,0.4319444444444116,2.7395498392285127,0.038505881714408614,0.9637275333690098,69.44444444444444,0.9615384615251478,1.0675241157557023,2.7735478624890675e-07,0.9979232549115251,0
466,281.34722222222223,0.4611111111111086,0.658333333333303,0.4583333333333144,1.006060606060642,0.042428470471459964,1.061902321711528,108.33333333333333,1.4999999999792304,1.4363636363636296,0.9602877497673035,0.24728194442605667,1
467,282.00555555555553,0.658333333333303,0.705555555555577,0.5597222222222058,1.176178660049608,0.04095565783596764,1.0250406781100363,75.0,1.0384615384471596,1.2605459057072714,0.002252626232802868,0.9989924606573779,0
468,282.7111111111111,0.705555555555577,0.7527777777777942,0.68194444444444,1.034623217922645,0.04356213604935053,1.0902757722703036,83.33333333333333,1.1538461538301772,1.103869653767852,0.00029880533111281693,0.9982138262829744,0
469,283.4638888888889,0.7527777777777942,0.7222222222222285,0.68194444444444,1.103869653767852,0.04085065067444294,1.0224125525287848,75.0,1.0384615384471596,1.059063136456228,1.927633275045082e-05,0.9990869602007925,0
470,284.18611111111113,0.7222222222222285,0.8944444444444457,0.7138888888889028,1.0116731517509618,0.03968234433250271,0.9931721108350132,72.22222222222223,0.9999999999861537,1.2529182879377205,0.0002249860408483073,0.9978611951785584,0
471,285.0805555555556,0.8944444444444457,0.6222222222222058,0.7138888888889028,1.2529182879377205,0.03940130785510293,0.98613831290357,66.66666666666667,0.9230769230641419,0.8715953307392597,6.161063197396288e-07,0.9985584547211224,0
472,285.7027777777778,0.6222222222222058,0.7083333333333144,0.7138888888889028,0.8715953307392597,0.0399981977432405,1.0010773090770424,69.44444444444444,0.9615384615251478,0.992217898832639,2.7494546884554438e-05,0.9982537167353123,0
473,286.4111111111111,0.7083333333333144,0.36944444444446844,0.7152777777777715,0.9902912621359046,0.0410270242429188,1.0268268408538623,77.77777777777777,1.0769230769081655,0.5165048543689702,1.2111852811358403e-05,0.9992338656142087,0
474,286.78055555555557,0.36944444444446844,0.7527777777777942,0.7069444444444457,0.5225933202357894,0.043234895736169066,1.082085581946126,125.0,1.730769230745266,1.064833005893931,0.974334180355072,0.4657939833551746,1
475,287.53333333333336,0.7527777777777942,0.408333333333303,0.7069444444444457,1.064833005893931,0.0403636126296535,1.010222934925868,75.0,1.0384615384471596,0.5776031434184237,6.8791882767982315e-06,0.9993327293319265,0
476,287.94166666666666,0.408333333333303,0.3555555555555543,0.7069444444444457,0.5776031434184237,0.040880557637052756,1.0231610657954147,72.22222222222223,0.9999999999861537,0.5029469548133568,0.9974976181983948,0.4231604175748436,1
477,288.2972222222222,0.3555555555555543,0.63611111111112,0.7069444444444457,0.5029469548133568,0.040804934123438906,1.0212683559288984,155.55555555555554,2.153846153816331,0.8998035363457869,0.9776899218559265,0.19251730201583078,1
478,288.93333333333334,0.63611111111112,0.5222222222222399,0.6722222222222172,0.9462809917355575,0.0408733337315987,1.0229802654533746,88.88888888888889,1.2307692307521891,0.7768595041322636,0.0007475473103113472,0.9940497825665405,0
479,289.4555555555556,0.5222222222222399,0.8805555555555316,0.6291666666666629,0.8300220750552207,0.04230889550822693,1.0589095923092005,86.11111111111111,1.1923076922911833,1.3995584988962175,0.06242019310593605,0.996866393270633,0
480,290.3361111111111,0.8805555555555316,0.5055555555555316,0.6291666666666629,1.3995584988962175,0.03957599051694912,0.9905102811153866,69.44444444444444,0.9615384615251478,0.8035320088299888,2.407483771094121e-05,0.998965857661875,0
481,290.84166666666664,0.5055555555555316,1.1166666666666742,0.5722222222222229,0.883495145631025,0.03825296965428728,0.9573976350519743,63.888888888888886,0.8846153846031359,1.9514563106796228,0.004118484910577536,0.9966664136128303,0
482,291.9583333333333,1.1166666666666742,0.4416666666666629,0.5791666666666799,1.9280575539568034,0.04391098224112546,1.09900671582895,80.55555555555556,1.1153846153691716,0.7625899280575299,0.001092258607968688,0.996964915010726,0
483,292.4,0.4416666666666629,0.8916666666667084,0.5138888888888857,0.8594594594594573,0.048543572219013904,1.2149514576118612,91.66666666666667,1.2692307692131952,1.7351351351352269,0.9938032627105713,0.22129053941339966,1
484,293.2916666666667,0.8916666666667084,0.658333333333303,0.5791666666666799,1.5395683453237776,0.039856180042746284,0.9975228814909622,72.22222222222223,0.9999999999861537,1.136690647481936,0.0008836670313030481,0.9983592981000298,0
485,293.95,0.658333333333303,0.5222222222222399,0.5791666666666799,1.136690647481936,0.04233045334360624,1.0594491431152036,72.22222222222223,0.9999999999861537,0.9016786570743505,0.0007886637467890978,0.9979215708104046,0
486,294.47222222222223,0.5222222222222399,0.6916666666666629,0.5791666666666799,0.9016786570743505,0.0410889431897974,1.02837655199635,72.22222222222223,0.9999999999861537,1.194244604316513,0.0019729272462427616,0.9978950184783529,0
487,295.1638888888889,0.6916666666666629,0.41944444444442297,0.6472222222222115,1.0686695278970075,0.04357017209401833,1.09047689888164,88.88888888888889,1.2307692307521891,0.6480686695278746,0.0005838252254761755,0.9972098585728245,0
488,295.5833333333333,0.41944444444442297,0.6611111111111541,0.5902777777777715,0.7105882352940889,0.03793412665196273,0.9494176131311354,127.77777777777777,1.7692307692062719,1.1200000000000847,0.9813835024833679,0.3369966338801492,1
489,296.24444444444447,0.6611111111111541,0.6222222222222058,0.6597222222222285,1.0021052631579503,0.036960505278940674,0.9250497585987514,91.66666666666667,1.2692307692131952,0.9431578947368082,0.0012537211878225207,0.994719902953485,0
490,296.8666666666667,0.6222222222222058,0.6444444444444457,0.6402777777777544,0.9718004338394892,0.03938804926690312,0.9858064761572639,66.66666666666667,0.9230769230641419,1.0065075921909281,0.0002323935041204095,0.9875167067909176,0
491,297.5111111111111,0.6444444444444457,0.783333333333303,0.6513888888888744,0.9893390191897895,0.039541865269058084,0.9896561923499466,77.77777777777777,1.0769230769081655,1.2025586353944366,0.0016898520989343524,0.9937516501279,0
492,298.2944444444444,0.783333333333303,0.7388888888889369,0.6513888888888744,1.2025586353944366,0.0431035621291145,1.078798556495991,77.77777777777777,1.0769230769081655,1.1343283582090542,0.0002527237229514867,0.9970010354856391,0
493,299.03333333333336,0.7388888888889369,0.5249999999999773,0.6597222222222285,1.120000000000062,0.03919564226120241,0.9809909019968759,69.44444444444444,0.9615384615251478,0.7957894736841684,9.416783541382756e-06,0.9988963653765035,0
494,299.55833333333334,0.5249999999999773,0.36388888888888005,0.6513888888888744,0.8059701492537145,0.044857058451948074,1.122685168378032,75.0,1.0384615384471596,0.5586353944562888,0.00013084251258987933,0.9981870706875737,0
495,299.9222222222222,0.36388888888888005,0.6499999999999773,0.6333333333333258,0.5745614035087648,0.032905300145849664,0.8235558395864577,38.888888888888886,0.5384615384540827,1.0263157894736605,0.14486242830753326,0.9323055270609428,0
496,300.5722222222222,0.6499999999999773,0.7472222222222626,0.6472222222222115,1.0042918454935437,0.04062089824639841,1.0166622948822486,72.22222222222223,0.9999999999861537,1.1545064377683218,0.0001602515549166128,0.9988125325513564,0
497,301.31944444444446,0.7472222222222626,0.3888888888888573,0.6472222222222115,1.1545064377683218,0.04164423117907531,1.0422743333323368,72.22222222222223,0.9999999999861537,0.6008583690986736,2.509754995116964e-05,0.9982263247983727,0
498,301.7083333333333,0.3888888888888573,0.36944444444446844,0.6472222222222115,0.6008583690986736,0.03995889546605212,1.000093649309647,108.33333333333333,1.4999999999792304,0.5708154506438233,0.9950734972953796,0.4537114899887762,1
499,302.0777777777778,0.36944444444446844,0.3138888888888687,0.6333333333333258,0.5833333333333782,0.03794786106976206,0.9497613589693992,155.55555555555554,2.153846153816331,0.4956140350876933,0.9836139678955078,0.1909737624868838,1
500,302.39166666666665,0.3138888888888687,0.34444444444443434,0.5847222222222115,0.5368171021377425,0.039175055840616924,0.9804756638190075,155.55555555555554,2.153846153816331,0.5890736342042691,0.973735511302948,0.22548162726460053,1
501,302.7361111111111,0.34444444444443434,0.34722222222222854,0.4569444444444173,0.7537993920972871,0.03302315081956171,0.8265054133665041,119.44444444444444,1.6538461538232543,0.7598784194529465,0.9125573635101318,0.4866361647260449,1
502,303.0833333333333,0.34722222222222854,0.7361111111111427,0.3791666666666629,0.9157509157509416,0.03505268365764157,0.8773006838252043,44.44444444444444,0.6153846153760946,1.9413919413920442,0.0011422471143305302,0.9720507100931285,0
503,303.81944444444446,0.7361111111111427,0.4138888888888914,0.3791666666666629,1.9413919413920442,0.03980365951920392,0.996208394655415,88.88888888888889,1.2307692307521891,1.0915750915751092,0.6054971218109131,0.9905681190635276,1
504,304.23333333333335,0.4138888888888914,0.3055555555555429,0.3791666666666629,1.0915750915751092,0.029372030622726645,0.7351249565462421,58.333333333333336,0.8076923076811242,0.8058608058607806,0.7046550512313843,0.5773064825233336,1
505,304.5388888888889,0.3055555555555429,0.408333333333303,0.3791666666666629,0.8058608058607806,0.049371190110170986,1.2356651281812698,202.77777777777777,2.8076923076534315,1.0769230769230078,0.8079867362976074,0.9485450211368596,1
506,304.9472222222222,0.408333333333303,0.36944444444446844,0.3791666666666629,1.0769230769230078,0.0460046366164946,1.1514068239959765,83.33333333333333,1.1538461538301772,0.9743589743590474,0.21460039913654327,0.9848958256200951,0
507,305.31666666666666,0.36944444444446844,0.3527777777777601,0.36944444444446844,1.0,0.041895246999320526,1.048556772443217,188.88888888888889,2.615384615348402,0.9548872180450029,0.7578481435775757,0.9816082474383739,1
508,305.6694444444444,0.3527777777777601,0.30277777777780557,0.36111111111111427,0.9769230769230194,0.03862691253677656,0.9667567001017024,161.11111111111111,2.230769230738343,0.8384615384616081,0.3902027904987335,0.9799744269456074,0
509,305.97222222222223,0.30277777777780557,0.46666666666664014,0.3499999999999943,0.8650793650794585,0.038055420438911726,0.952453361357246,133.33333333333334,1.8461538461282838,1.3333333333332793,0.43165352940559387,0.9788400309905472,0
510,306.43888888888887,0.46666666666664014,0.36944444444446844,0.36111111111111427,1.2923076923076076,0.045737477225508166,1.1447203426214863,80.55555555555556,1.1153846153691716,1.0230769230769805,0.3449438214302063,0.9794204045819259,0
511,306.80833333333334,0.36944444444446844,0.9916666666666742,0.36944444444446844,1.0,0.04086155507978741,1.0226854686443907,177.77777777777777,2.4615384615043783,2.6842105263156357,0.846389889717102,0.9802758495758948,1
512,307.8,0.9916666666666742,0.4333333333333371,0.38888888888888573,2.5500000000000402,0.040713899950120945,1.0189899471404775,72.22222222222223,0.9999999999861537,1.114285714285733,0.0001357717119390145,0.997758547935142,0
513,308.23333333333335,0.4333333333333371,0.7194444444444343,0.38888888888888573,1.114285714285733,0.04922718896862565,1.2320610589127592,108.33333333333333,1.4999999999792304,1.849999999999989,0.9630206227302551,0.20146512243535059,1
514,308.9527777777778,0.7194444444444343,0.40277777777777146,0.38888888888888573,1.849999999999989,0.03953662210248208,0.9895249660601863,69.44444444444444,0.9615384615251478,1.0357142857142778,0.00516434945166111,0.9988338265861609,0
515,309.35555555555555,0.40277777777777146,0.41944444444442297,0.40555555555553724,0.9931506849315361,0.028704533286281878,0.7184187928917273,41.666666666666664,0.5769230769150886,1.0342465753424595,0.9433432221412659,0.3403833199127231,1
