beat_index,peak_time_s,rr_prev_s,rr_next_s,rr_baseline_s,prematurity_index,aa_ratio,morph_index,qrs_width_ms,width_index,pause_index,pvc_score,morphology_score,is_pvc_candidate
0,0.6388888888888888,,0.6555555555555557,0.6749999999999972,,0.023403893585751945,1.0376117041311468,38.888888888888886,0.9999999999742858,0.9711934156378643,5.3971749745302104e-21,0.9965618447674466,0
1,1.2944444444444445,0.6555555555555557,0.6694444444444443,0.6749999999999972,0.9711934156378643,0.028757032874428205,1.274943153251915,41.666666666666664,1.0714285714010205,0.9917695473251068,1.7629095137362306e-14,0.9934208395848205,0
2,1.9638888888888888,0.6694444444444443,0.6611111111111112,0.6749999999999972,0.9917695473251068,0.02240781030723163,0.9934503484876901,36.111111111111114,0.9285714285475513,0.9794238683127615,2.3743233975182985e-21,0.9994151824470994,0
3,2.625,0.6611111111111112,0.6749999999999998,0.6749999999999972,0.9794238683127615,0.023707755831531712,1.0510834378625207,38.888888888888886,0.9999999999742858,1.000000000000004,1.2569655642596813e-19,0.9991041875738689,0
4,3.3,0.6749999999999998,0.6750000000000003,0.6749999999999972,1.000000000000004,0.029613981216882586,1.312935961017362,41.666666666666664,1.0714285714010205,1.0000000000000047,2.4026038726891394e-14,0.9940696765349277,0
5,3.975,0.6750000000000003,0.6666666666666665,0.6694444444444443,1.0082987551867226,0.021709811664735255,0.9625045762268383,36.111111111111114,0.9285714285475513,0.995850622406639,3.72494737520722e-21,0.9950787189375687,0
6,4.641666666666667,0.6666666666666665,0.6444444444444448,0.6680555555555554,0.997920997920998,0.028492502725738045,1.2632152081828278,41.666666666666664,1.0714285714010205,0.9646569646569655,8.07292787171265e-15,0.9922160726883493,0
7,5.286111111111111,0.6444444444444448,0.6749999999999998,0.6666666666666665,0.9666666666666675,0.022409068925624966,0.9935061493385688,38.888888888888886,0.9999999999742858,1.0125,4.561884599241182e-20,0.9992567359775826,0
8,5.961111111111111,0.6749999999999998,0.6888888888888891,0.6680555555555554,1.0103950103950103,0.024135674274147683,1.0700552035153184,38.888888888888886,0.9999999999742858,1.0311850311850317,2.7902960485824504e-19,0.9987193506569094,0
9,6.65,0.6888888888888891,0.6749999999999998,0.6694444444444443,1.0290456431535275,0.02298478399342914,1.0190304788869624,38.888888888888886,0.9999999999742858,1.008298755186722,2.6068201185760863e-20,0.9968512607295386,0
10,7.325,0.6749999999999998,0.6583333333333332,0.672222222222222,1.0041322314049588,0.02412051086722572,1.0693829338163008,41.666666666666664,1.0714285714010205,0.9793388429752067,5.008437471316566e-19,0.9966312360437366,0
11,7.983333333333333,0.6583333333333332,0.6638888888888888,0.672222222222222,0.9793388429752067,0.021987314631164517,0.9748076712158451,38.888888888888886,0.9999999999742858,0.987603305785124,7.157517907826056e-21,0.9988596977376013,0
12,8.647222222222222,0.6638888888888888,0.6694444444444443,0.6708333333333332,0.989648033126294,0.027460684065562735,1.217469524268481,41.666666666666664,1.0714285714010205,0.9979296066252588,1.777314833663595e-15,0.9924045631546683,0
13,9.316666666666666,0.6694444444444443,0.6694444444444443,0.672222222222222,0.9958677685950413,0.02164582393954302,0.9596676802062287,36.111111111111114,0.9285714285475513,0.9958677685950413,1.97927861790013e-21,0.9972049015224086,0
14,9.98611111111111,0.6694444444444443,0.6805555555555554,0.6694444444444443,1.0,0.023465440851987655,1.0403404023953673,38.888888888888886,0.9999999999742858,1.016597510373444,9.057071945481594e-20,0.9987036085143985,0
15,10.666666666666666,0.6805555555555554,0.6777777777777789,0.6694444444444443,1.016597510373444,0.022804753306794264,1.0110488177641808,38.888888888888886,0.9999999999742858,1.012448132780085,1.3126379698794111e-20,0.999349285406485,0
16,11.344444444444445,0.6777777777777789,0.6666666666666661,0.672222222222222,1.0082644628099193,0.02190859259939505,0.9713175296615051,36.111111111111114,0.9285714285475513,0.991735537190082,2.5030925583348603e-21,0.9964494810845306,0
17,12.011111111111111,0.6666666666666661,0.6611111111111114,0.672222222222222,0.991735537190082,0.02867576073024975,1.2713399524549873,41.666666666666664,1.0714285714010205,0.983471074380166,1.5734766937200266e-14,0.9916126126136395,0
18,12.672222222222222,0.6611111111111114,0.6805555555555554,0.6694444444444443,0.9875518672199177,0.02307798623554505,1.0231626006177503,38.888888888888886,0.9999999999742858,1.016597510373444,6.646244356672991e-20,0.9989095838749587,0
19,13.352777777777778,0.6805555555555554,0.6999999999999993,0.6694444444444443,1.016597510373444,0.024062318223701345,1.0668029627617417,38.888888888888886,0.9999999999742858,1.0456431535269701,3.3660349514225543e-19,0.9976328867652517,0
20,14.052777777777777,0.6999999999999993,0.6777777777777789,0.6694444444444443,1.0456431535269701,0.021987552971502212,0.974818238035552,36.111111111111114,0.9285714285475513,1.012448132780085,1.377228153945319e-21,0.9967480656014913,0
21,14.730555555555556,0.6777777777777789,0.6694444444444443,0.6736111111111116,1.0061855670103101,0.023212647197238673,1.0291327948262867,38.888888888888886,0.9999999999742858,0.9938144329896897,2.097317412480482e-20,0.9991442600198593,0
22,15.4,0.6694444444444443,0.6638888888888896,0.6736111111111116,0.9938144329896897,0.025040791716740427,1.1101835885041835,41.666666666666664,1.0714285714010205,0.9855670103092787,5.0318604345295e-18,0.9955705387376771,0
23,16.06388888888889,0.6638888888888896,0.6694444444444443,0.6736111111111116,0.9855670103092787,0.02299926160657395,1.019672343916467,41.666666666666664,1.0714285714010205,0.9938144329896897,2.5429204485681076e-19,0.9955342282385072,0
24,16.733333333333334,0.6694444444444443,0.6750000000000007,0.6736111111111116,0.9938144329896897,0.02225574891822576,0.9867087062732944,36.111111111111114,0.9285714285475513,1.0020618556701033,6.857371706710781e-21,0.9967842399459875,0
25,17.408333333333335,0.6750000000000007,0.68611111111111,0.6722222222222225,1.0041322314049592,0.022956025238893493,1.0177554594038543,38.888888888888886,0.9999999999742858,1.0206611570247914,2.484145356325351e-20,0.9992869082033049,0
26,18.094444444444445,0.68611111111111,0.6638888888888879,0.6722222222222225,1.0206611570247914,0.023652245154974393,1.0486223718228436,38.888888888888886,0.9999999999742858,0.987603305785122,3.236057541456168e-20,0.998613703172377,0
27,18.758333333333333,0.6638888888888879,0.6638888888888879,0.6722222222222225,0.987603305785122,0.022100958310921046,0.9798460641560564,38.888888888888886,0.9999999999742858,0.987603305785122,5.923003350172513e-21,0.9991713969640952,0
28,19.42222222222222,0.6638888888888879,0.6555555555555586,0.6722222222222225,0.987603305785122,0.022025314508880046,0.976492395927514,38.888888888888886,0.9999999999742858,0.975206611570252,4.23551572257634e-21,0.9991605324813694,0
29,20.07777777777778,0.6555555555555586,0.6777777777777771,0.6694444444444443,0.9792531120331998,0.029426524032016524,1.3046250460694786,41.666666666666664,1.0714285714010205,1.0124481327800823,6.93554304156789e-14,0.9936743422259877,0
30,20.755555555555556,0.6777777777777771,0.6583333333333314,0.6694444444444443,1.0124481327800823,0.023257033306849483,1.0311006531514102,38.888888888888886,0.9999999999742858,0.9834024896265534,2.3055711176832172e-20,0.9988129009232807,0
31,21.413888888888888,0.6583333333333314,0.6666666666666679,0.666666666666667,0.9874999999999967,0.027818558472117984,1.2333358873370937,41.666666666666664,1.0714285714010205,1.0000000000000013,6.119319647220544e-15,0.9917464064880346,0
32,22.080555555555556,0.6666666666666679,0.6472222222222221,0.6652777777777787,1.0020876826722342,0.023129372571022294,1.0254408139811908,38.888888888888886,0.9999999999742858,0.9728601252609588,2.9159942205955524e-20,0.9988090962614462,0
33,22.727777777777778,0.6472222222222221,0.6611111111111114,0.6652777777777779,0.9728601252609601,0.023233812454200992,1.030071156567874,38.888888888888886,0.9999999999742858,0.9937369519832989,1.2751049888581156e-19,0.9988173155891835,0
34,23.38888888888889,0.6611111111111114,0.6527777777777786,0.6638888888888879,0.995815899581592,0.022511436532716846,0.9980446175576816,38.888888888888886,0.9999999999742858,0.9832635983263626,1.4824627540598793e-20,0.9991244210962696,0
35,24.041666666666668,0.6527777777777786,0.6777777777777771,0.6624999999999996,0.9853249475891003,0.02311325416823563,1.0247262045371655,38.888888888888886,0.9999999999742858,1.023060796645702,1.185458514490857e-19,0.9993075338203068,0
36,24.719444444444445,0.6777777777777771,0.6722222222222207,0.6624999999999996,1.023060796645702,0.02234859007464606,0.9908248192685023,38.888888888888886,0.9999999999742858,1.0146750524108998,9.121176019573753e-21,0.999108140729255,0
37,25.391666666666666,0.6722222222222207,0.6500000000000021,0.6624999999999996,1.0146750524108998,0.023125533646979734,1.0252706152703124,38.888888888888886,0.9999999999742858,0.9811320754717019,2.6826428539439354e-20,0.9988163726926325,0
38,26.041666666666668,0.6500000000000021,0.6583333333333314,0.6597222222222214,0.9852631578947413,0.022853976803499113,1.0132311416630686,36.111111111111114,0.9285714285475513,0.9978947368421036,3.2021043622502807e-20,0.9984857381115582,0
39,26.7,0.6583333333333314,0.6638888888888879,0.6597222222222214,0.9978947368421036,0.022799148087472618,1.010800310345915,38.888888888888886,0.9999999999742858,1.0063157894736838,9.432354742108953e-20,0.9969644616724851,0
40,27.363888888888887,0.6638888888888879,0.6861111111111136,0.6597222222222214,1.0063157894736838,0.027896992550132324,1.2368132624606911,41.666666666666664,1.0714285714010205,1.040000000000005,9.233545968567649e-15,0.9913938896718438,0
41,28.05,0.6861111111111136,0.6666666666666643,0.6624999999999996,1.0356394129979078,0.022650086907967992,1.0041916824302697,38.888888888888886,0.9999999999742858,1.0062893081760975,7.791613239659039e-21,0.9994443058279143,0
42,28.716666666666665,0.6666666666666643,0.6611111111111114,0.6624999999999996,1.0062893081760975,0.021967661186509096,0.9739363356781817,36.111111111111114,0.9285714285475513,0.9979035639413008,5.094955571225369e-21,0.9970725030429181,0
43,29.377777777777776,0.6611111111111114,0.6500000000000021,0.6624999999999996,0.9979035639413008,0.022836623153487987,1.0124617675290184,38.888888888888886,0.9999999999742858,0.9811320754717019,2.2708571584959796e-20,0.9994382466864338,0
44,30.02777777777778,0.6500000000000021,0.6527777777777786,0.6624999999999996,0.9811320754717019,0.027769211336428932,1.231148081903408,38.888888888888886,0.9999999999742858,0.9853249475891003,1.8830783320730824e-15,0.9922730996496101,0
45,30.680555555555557,0.6527777777777786,0.6499999999999986,0.6624999999999996,0.9853249475891003,0.022779146102280573,1.0099135222623392,38.888888888888886,0.9999999999742858,0.9811320754716965,2.9746187078056876e-20,0.9995335192013471,0
46,31.330555555555556,0.6499999999999986,0.6694444444444443,0.6597222222222214,0.9852631578947358,0.022482922266451176,0.9967804374628797,38.888888888888886,0.9999999999742858,1.014736842105264,5.60838859692095e-20,0.998563262356899,0
47,32.0,0.6694444444444443,0.68888888888889,0.6597222222222214,1.014736842105264,0.021713418853023664,0.9626645009322444,36.111111111111114,0.9285714285475513,1.0442105263157924,7.367052288949827e-21,0.9970408180034918,0
48,32.68888888888889,0.68888888888889,0.6444444444444457,0.6624999999999996,1.0398322851153061,0.02280209951073914,1.010931161706778,38.888888888888886,0.9999999999742858,0.9727463312368997,9.503536218758555e-21,0.9976413088613443,0
49,33.333333333333336,0.6444444444444457,0.6583333333333314,0.6624999999999996,0.9727463312368997,0.022023562193949287,0.9764147070389187,36.111111111111114,0.9285714285475513,0.993710691823897,2.2254063303343183e-20,0.9959184111750853,0
50,33.99166666666667,0.6583333333333314,0.6611111111111114,0.6597222222222214,0.9978947368421036,0.02184338285977965,0.9684264556271627,36.111111111111114,0.9285714285475513,1.0021052631578964,8.440054177447422e-21,0.9965336255323873,0
51,34.65277777777778,0.6611111111111114,0.68611111111111,0.6597222222222214,1.0021052631578964,0.028408001059470937,1.2594688265127834,41.666666666666664,1.0714285714010205,1.0399999999999996,1.99724202562708e-14,0.9921961701622456,0
52,35.33888888888889,0.68611111111111,0.6638888888888914,0.6597222222222214,1.0399999999999996,0.02333306050145901,1.0344713190908215,41.666666666666664,1.0714285714010205,1.0063157894736892,1.1199446467539208e-19,0.9978117425872517,0
53,36.00277777777778,0.6638888888888914,0.6749999999999972,0.6597222222222214,1.0063157894736892,0.022870768518083763,1.0139756023880169,41.666666666666664,1.0714285714010205,1.023157894736839,2.0690838640929719e-19,0.9977238963798896,0
54,36.67777777777778,0.6749999999999972,0.6611111111111114,0.6625000000000014,1.0188679245282954,0.023282963351407334,1.032250261767741,38.888888888888886,0.9999999999742858,0.9979035639412981,3.993544633109909e-20,0.9988435153699384,0
55,37.33888888888889,0.6611111111111114,0.6777777777777771,0.6625000000000014,0.9979035639412981,0.02202175827520725,0.9763347302951696,38.888888888888886,0.9999999999742858,1.0230607966456993,2.926513631541754e-20,0.996936911366461,0
56,38.016666666666666,0.6777777777777771,0.6638888888888914,0.6666666666666679,1.016666666666664,0.022712161970685034,1.0069437805533397,38.888888888888886,0.9999999999742858,0.9958333333333353,1.7956832556148928e-20,0.997682181895475,0
57,38.68055555555556,0.6638888888888914,0.68333333333333,0.6638888888888914,1.0,0.023217998599421405,1.0293700492608093,38.888888888888886,0.9999999999742858,1.0292887029288613,1.1923794312785116e-19,0.9984727620831668,0
58,39.36388888888889,0.68333333333333,0.69166666666667,0.6638888888888914,1.0292887029288613,0.023445854511741908,1.039472041931942,38.888888888888886,0.9999999999742858,1.0418410041841015,1.435105500768482e-19,0.9969445616449422,0
59,40.05555555555556,0.69166666666667,0.6749999999999972,0.6694444444444443,1.0331950207468932,0.022937677199707025,1.016941999022231,38.888888888888886,0.9999999999742858,1.008298755186718,9.16484291642217e-21,0.9992778142123468,0
60,40.730555555555554,0.6749999999999972,0.6638888888888914,0.6749999999999972,1.0,0.028585835285177875,1.2673531075326285,41.666666666666664,1.0714285714010205,0.9835390946502136,6.760459213788058e-15,0.9921730221545007,0
61,41.394444444444446,0.6638888888888914,0.6805555555555571,0.6749999999999972,0.9835390946502136,0.02246746159410746,0.9960949885003471,38.888888888888886,0.9999999999742858,1.0082304526749037,2.717061806920524e-20,0.9974520768759472,0
62,42.075,0.6805555555555571,0.6888888888888829,0.6749999999999972,1.0082304526749037,0.023478184595375533,1.0409053963031227,38.888888888888886,0.9999999999742858,1.0205761316872382,9.536225362590885e-20,0.9969671137085856,0
63,42.763888888888886,0.6888888888888829,0.6805555555555571,0.6763888888888872,1.0184804928131355,0.023812340311434768,1.0557201911454848,38.888888888888886,0.9999999999742858,1.006160164271052,4.6576837464021866e-20,0.9986484172808183,0
64,43.44444444444444,0.6805555555555571,0.6611111111111114,0.6791666666666671,1.0020449897750527,0.02853022837800927,1.2648877751084628,41.666666666666664,1.0714285714010205,0.9734151329243351,4.335772768647526e-15,0.9919122692405067,0
65,44.105555555555554,0.6611111111111114,0.6666666666666714,0.6791666666666671,0.9734151329243351,0.023317122172001242,1.0337646931984636,38.888888888888886,0.9999999999742858,0.9815950920245462,5.3179231554706743e-20,0.9985421440332527,0
66,44.772222222222226,0.6666666666666714,0.6638888888888843,0.6777777777777771,0.983606557377057,0.022005546608220787,0.9756159859825194,36.111111111111114,0.9285714285475513,0.9795081967213056,4.352330750292447e-21,0.99594970347448,0
67,45.43611111111111,0.6638888888888843,0.6722222222222243,0.6777777777777771,0.9795081967213056,0.02177227317841024,0.9652738076544828,38.888888888888886,0.9999999999742858,0.9918032786885286,3.753604255891424e-21,0.998845181196167,0
68,46.108333333333334,0.6722222222222243,0.6777777777777771,0.6736111111111107,0.9979381443299006,0.02315611142945932,1.0266262813636888,38.888888888888886,0.9999999999742858,1.006185567010309,3.229780339206142e-20,0.9990481509299891,0
69,46.78611111111111,0.6777777777777771,0.6805555555555571,0.6736111111111107,1.006185567010309,0.02451339345045772,1.0868013845205453,41.666666666666664,1.0714285714010205,1.0103092783505183,9.978874265292445e-19,0.9977043809516019,0
70,47.46666666666667,0.6805555555555571,0.6611111111111114,0.6750000000000007,1.0082304526748984,0.027672339412380162,1.2268532648112682,38.888888888888886,0.9999999999742858,0.9794238683127566,2.670426743825444e-16,0.9916033544569054,0
71,48.12777777777778,0.6611111111111114,0.6555555555555515,0.6750000000000007,0.9794238683127566,0.028560562665432034,1.2662326458476418,41.666666666666664,1.0714285714010205,0.971193415637853,1.2104947002178259e-14,0.9922061982689223,0
72,48.78333333333333,0.6555555555555515,0.6750000000000043,0.6694444444444478,0.9792531120331839,0.028494606204160264,1.2633084659060476,41.666666666666664,1.0714285714010205,1.0082987551867233,2.7677599456570577e-14,0.9914690227723517,0
73,49.458333333333336,0.6750000000000043,0.68333333333333,0.6694444444444478,1.0082987551867233,0.02252834554297844,0.9987942785868783,38.888888888888886,0.9999999999742858,1.020746887966795,1.3094721461111918e-20,0.9992387228742596,0
74,50.141666666666666,0.68333333333333,0.6722222222222243,0.6694444444444478,1.020746887966795,0.02247135374566321,0.9962675470532093,38.888888888888886,0.9999999999742858,1.004149377593359,1.2453242896077045e-20,0.9970772950876818,0
75,50.81388888888889,0.6722222222222243,0.6638888888888843,0.6722222222222243,1.0,0.022159095715696384,0.9824235862004834,36.111111111111114,0.9285714285475513,0.9876033057851141,5.444114243118327e-21,0.9959744881170848,0
76,51.477777777777774,0.6638888888888843,0.6611111111111114,0.6722222222222243,0.9876033057851141,0.023355568963835376,1.035469231849147,38.888888888888886,0.9999999999742858,0.9834710743801628,5.344014241448187e-20,0.9986144379348287,0
77,52.138888888888886,0.6611111111111114,0.6638888888888914,0.6722222222222243,0.9834710743801628,0.022371075169804546,0.991821696041141,41.666666666666664,1.0714285714010205,0.9876033057851247,6.89364826177392e-20,0.9963326896603244,0
78,52.80277777777778,0.6638888888888914,0.6749999999999972,0.6680555555555578,0.9937629937629942,0.02225729798991777,0.9867773843721876,38.888888888888886,0.9999999999742858,1.0103950103950026,2.0087544800921825e-20,0.9977964206936054,0
79,53.477777777777774,0.6749999999999972,0.68888888888889,0.6680555555555578,1.0103950103950026,0.023363886710792908,1.0358379991896542,38.888888888888886,0.9999999999742858,1.0311850311850292,1.7406360337483654e-19,0.9963751266502034,0
80,54.166666666666664,0.68888888888889,0.6611111111111114,0.6680555555555578,1.0311850311850292,0.02365883763010421,1.048914649230824,38.888888888888886,0.9999999999742858,0.9896049896049867,4.249711482825071e-20,0.9978158100678296,0
81,54.827777777777776,0.6611111111111114,0.6777777777777771,0.6680555555555578,0.9896049896049867,0.029447399788500424,1.3055505728063406,41.666666666666664,1.0714285714010205,1.0145530145530102,1.502482762771179e-13,0.9909454408432152,0
82,55.50555555555555,0.6777777777777771,0.6555555555555586,0.6736111111111107,1.006185567010309,0.023123769383259718,1.0251923966321035,38.888888888888886,0.9999999999742858,0.9731958762886648,3.0020000016683267e-20,0.9966863575965484,0
83,56.16111111111111,0.6555555555555586,0.68333333333333,0.6680555555555578,0.9812889812889825,0.02279782309756443,1.0107415669136928,38.888888888888886,0.9999999999742858,1.0228690228690145,6.205316377386454e-20,0.9990020263059057,0
84,56.84444444444444,0.68333333333333,0.6805555555555571,0.6680555555555578,1.0228690228690145,0.022919457495297425,1.0161342283633898,38.888888888888886,0.9999999999742858,1.0187110187110175,3.9710611532023785e-20,0.9967025373811544,0
85,57.525,0.6805555555555571,0.6805555555555571,0.6694444444444443,1.0165975103734466,0.022185056751626922,0.9835745688194308,36.111111111111114,0.9285714285475513,1.0165975103734466,4.467746275653819e-21,0.9971055573589572,0
86,58.205555555555556,0.6805555555555571,0.6638888888888914,0.6763888888888872,1.006160164271052,0.02325703320516208,1.031100648643099,38.888888888888886,0.9999999999742858,0.9815195071868645,1.5385095719978888e-20,0.9991006596939833,0
87,58.86944444444445,0.6638888888888914,0.6722222222222172,0.6763888888888872,0.9815195071868645,0.02303455233250985,1.0212369583744931,38.888888888888886,0.9999999999742858,0.9938398357289479,3.191068609656087e-20,0.9989022797907148,0
88,59.541666666666664,0.6722222222222172,0.6694444444444443,0.6763888888888872,0.9938398357289479,0.023004654436688796,1.019911435058505,38.888888888888886,0.9999999999742858,0.989733059548257,1.7370665232230004e-20,0.9991139044062195,0
89,60.21111111111111,0.6694444444444443,0.6972222222222229,0.6749999999999972,0.9917695473251068,0.024193766897696697,1.0726307401839195,38.888888888888886,0.9999999999742858,1.0329218106995937,9.12692786519958e-19,0.9963050697270763,0
90,60.90833333333333,0.6972222222222229,0.6944444444444429,0.6749999999999972,1.0329218106995937,0.029227149930378955,1.2957857945747737,41.666666666666664,1.0714285714010205,1.028806584362142,1.190650751142731e-14,0.9916222885595748,0
91,61.602777777777774,0.6944444444444429,0.6750000000000043,0.6791666666666671,1.0224948875255593,0.0238775591547072,1.0586116687904938,38.888888888888886,0.9999999999742858,0.9938650306748522,3.211597229131607e-20,0.9984736537764796,0
92,62.27777777777778,0.6750000000000043,0.6638888888888914,0.6777777777777807,0.9959016393442643,0.022899405819496448,1.0152452372464928,41.666666666666664,1.0714285714010205,0.979508196721311,7.723583773507661e-20,0.9958914209152945,0
93,62.94166666666667,0.6638888888888914,0.6777777777777771,0.6777777777777807,0.979508196721311,0.02835533430323232,1.2571338456904009,41.666666666666664,1.0714285714010205,0.9999999999999948,9.667854488975766e-15,0.9919814371693347,0
94,63.61944444444445,0.6777777777777771,0.68888888888889,0.6763888888888907,1.0020533880903455,0.02273626230462251,1.008012268942905,38.888888888888886,0.9999999999742858,1.0184804928131406,1.4423383551199487e-20,0.9990850469187529,0
95,64.30833333333334,0.68888888888889,0.6722222222222172,0.6763888888888907,1.0184804928131406,0.024302744435461952,1.0774622597025976,38.888888888888886,0.9999999999742858,0.9938398357289426,1.02931583078577e-19,0.9980618583697798,0
96,64.98055555555555,0.6722222222222172,0.6638888888888914,0.6736111111111107,0.99793814432989,0.02287064874594704,1.0139702922899156,36.111111111111114,0.9285714285475513,0.9855670103092827,1.6857433589470662e-20,0.9959435905695354,0
97,65.64444444444445,0.6638888888888914,0.6666666666666714,0.6736111111111107,0.9855670103092827,0.023401291423821906,1.0374963372728605,38.888888888888886,0.9999999999742858,0.9896907216494921,9.326874996841664e-20,0.9974639096699022,0
98,66.31111111111112,0.6666666666666714,0.6611111111111114,0.6736111111111107,0.9896907216494921,0.022774664747451264,1.0097148413802792,38.888888888888886,0.9999999999742858,0.9814432989690732,2.0398429001922516e-20,0.9980379104781955,0
99,66.97222222222223,0.6611111111111114,0.6583333333333314,0.6736111111111107,0.9814432989690732,0.028919486968196073,1.28214555606835,41.666666666666664,1.0714285714010205,0.9773195876288637,1.953649644403227e-14,0.9928413995721787,0
100,67.63055555555556,0.6583333333333314,0.6722222222222172,0.6694444444444443,0.9834024896265534,0.02385386201495332,1.0575610560164712,38.888888888888886,0.9999999999742858,1.0041493775933537,2.7114928780699963e-19,0.9983758390139897,0
101,68.30277777777778,0.6722222222222172,0.6833333333333371,0.6694444444444443,1.0041493775933537,0.023715271105952333,1.0514166275802923,41.666666666666664,1.0714285714010205,1.020746887966811,5.001449346104141e-19,0.9973850098716498,0
102,68.98611111111111,0.6833333333333371,0.6555555555555515,0.6694444444444443,1.020746887966811,0.02294511811511929,1.0172718920331068,38.888888888888886,0.9999999999742858,0.9792531120331891,1.8246780363481505e-20,0.9970361512863659,0
103,69.64166666666667,0.6555555555555515,0.6555555555555515,0.6694444444444443,0.9792531120331891,0.02457227109076523,1.089411724909885,38.888888888888886,0.9999999999742858,0.9792531120331891,1.0491653866771724e-18,0.9970305155103343,0
104,70.29722222222222,0.6555555555555515,0.6638888888888914,0.6652777777777814,0.9853862212943517,0.023697493768181557,1.0506284692479333,38.888888888888886,0.9999999999742858,0.9979123173277645,3.851559727200035e-19,0.9968467252429327,0
105,70.96111111111111,0.6638888888888914,0.6833333333333371,0.6638888888888914,1.0,0.023164230263772134,1.0269862299113957,41.666666666666664,1.0714285714010205,1.029288702928872,4.63063358327851e-19,0.9968789504431861,0
106,71.64444444444445,0.6833333333333371,0.6555555555555515,0.6638888888888914,1.029288702928872,0.023162386748078453,1.0269044976366566,38.888888888888886,0.9999999999742858,0.9874476987447599,1.7680326433770338e-20,0.998882743668017,0
107,72.3,0.6555555555555515,0.6638888888888914,0.6625000000000014,0.9895178197064907,0.023525858318449853,1.0430190109826707,41.666666666666664,1.0714285714010205,1.002096436058702,6.286830115368667e-19,0.9975575380677284,0
108,72.96388888888889,0.6638888888888914,0.6611111111111114,0.6625000000000014,1.002096436058702,0.02263176370890161,1.0033793233354575,38.888888888888886,0.9999999999742858,0.9979035639412981,2.6126341319948258e-20,0.998505304911158,0
109,73.625,0.6611111111111114,0.6694444444444514,0.6625000000000014,0.9979035639412981,0.02408580159913231,1.067844098293759,38.888888888888886,0.9999999999742858,1.0104821802935093,1.0509759816404744e-18,0.9958320806114596,0
110,74.29444444444445,0.6694444444444514,0.6611111111110972,0.6638888888888914,1.0083682008368267,0.023365646561363487,1.0359160221708674,38.888888888888886,0.9999999999742858,0.9958158995815652,1.2629061427744898e-19,0.9964981709417013,0
111,74.95555555555555,0.6611111111110972,0.6750000000000114,0.6625000000000014,0.9979035639412767,0.024462519968021696,1.0845459084984843,41.666666666666664,1.0714285714010205,1.0188679245283168,3.2619520040171374e-18,0.9974627923913882,0
112,75.63055555555556,0.6750000000000114,0.6666666666666572,0.6625000000000014,1.0188679245283168,0.023455025226388152,1.0398786255979173,38.888888888888886,0.9999999999742858,1.0062893081760842,8.750130423322454e-20,0.9978317271618233,0
113,76.29722222222222,0.6666666666666572,0.6638888888888914,0.6638888888888914,1.004184100418392,0.02699524380816845,1.196834228826011,38.888888888888886,0.9999999999742858,1.0,2.790289582098012e-16,0.9918217113946192,0
114,76.96111111111111,0.6638888888888914,0.6638888888888914,0.6638888888888914,1.0,0.022794718026469676,1.0106039035758267,38.888888888888886,0.9999999999742858,1.0,3.53754451833386e-20,0.9984407318170918,0
115,77.625,0.6638888888888914,0.6805555555555571,0.6638888888888914,1.0,0.02225363999622715,0.9866152072090965,36.111111111111114,0.9285714285475513,1.0251046025104587,2.18909164741482e-20,0.9959281665455478,0
116,78.30555555555556,0.6805555555555571,0.6944444444444429,0.6638888888888914,1.0251046025104587,0.02359065474446107,1.0458917607569236,38.888888888888886,0.9999999999742858,1.0460251046025042,1.3215668191364242e-19,0.9984888760259581,0
117,79.0,0.6944444444444429,0.6638888888888914,0.6652777777777743,1.0438413361169132,0.022947391753413125,1.0173726937948306,38.888888888888886,0.9999999999742858,0.9979123173277752,9.609620516731347e-21,0.9985566924288813,0
118,79.66388888888889,0.6638888888888914,0.6527777777777715,0.6652777777777743,0.9979123173277752,0.028236125507358042,1.2518487233076092,41.666666666666664,1.0714285714010205,0.9812108559498912,4.990539401270467e-15,0.9931494561352685,0
119,80.31666666666666,0.6527777777777715,0.6583333333333314,0.6652777777777743,0.9812108559498912,0.023297210683902343,1.0328819173038295,38.888888888888886,0.9999999999742858,0.9895615866388332,1.9911397981948365e-19,0.996791922678874,0
120,80.975,0.6583333333333314,0.6694444444444514,0.6638888888888914,0.9916317991631733,0.022793970857331564,1.0105707778294704,38.888888888888886,0.9999999999742858,1.0083682008368267,6.941251859791493e-20,0.9976984318568866,0
121,81.64444444444445,0.6694444444444514,0.6749999999999972,0.6652777777777743,1.0062630480167172,0.022388797280315738,0.9926074058727526,36.111111111111114,0.9285714285475513,1.0146137787056377,1.533183950569725e-20,0.9962069720203304,0
122,82.31944444444444,0.6749999999999972,0.6694444444444514,0.6652777777777743,1.0146137787056377,0.02407528516584793,1.0673778521872466,38.888888888888886,0.9999999999742858,1.0062630480167172,1.9316021811366252e-19,0.9983626619856419,0
123,82.9888888888889,0.6694444444444514,0.6638888888888772,0.6666666666666714,1.00416666666667,0.022963510922828074,1.0180873372273236,38.888888888888886,0.9999999999742858,0.9958333333333087,2.5349095274529583e-20,0.9990646156447914,0
124,83.65277777777777,0.6638888888888772,0.6638888888888914,0.6666666666666714,0.9958333333333087,0.0288693297382115,1.2799218351012338,41.666666666666664,1.0714285714010205,0.99583333333333,2.7604475102234113e-14,0.9919116236616998,0
125,84.31666666666666,0.6638888888888914,0.6694444444444514,0.6666666666666714,0.99583333333333,0.023458227445673236,1.040020596001142,38.888888888888886,0.9999999999742858,1.00416666666667,9.890378864446343e-20,0.9987104196446908,0
126,84.98611111111111,0.6694444444444514,0.6805555555555571,0.6666666666666714,1.00416666666667,0.02292117116595436,1.0162102039579697,38.888888888888886,0.9999999999742858,1.0208333333333284,6.061015365761431e-20,0.9976271254811793,0
127,85.66666666666667,0.6805555555555571,0.6888888888888829,0.6666666666666714,1.0208333333333284,0.023528344126669945,1.0431292192988186,38.888888888888886,0.9999999999742858,1.033333333333317,1.0410081579911778e-19,0.998064873007769,0
128,86.35555555555555,0.6888888888888829,0.6749999999999972,0.6694444444444514,1.0290456431535073,0.023428553513354055,1.0387050021077942,38.888888888888886,0.9999999999742858,1.0082987551867073,2.535335234662739e-20,0.9990564001112494,0
129,87.03055555555555,0.6749999999999972,0.6555555555555657,0.6694444444444514,1.0082987551867073,0.028248882750923552,1.2524143157457872,41.666666666666664,1.0714285714010205,0.9792531120332,2.8923487936709192e-15,0.9927487600846343,0
130,87.68611111111112,0.6555555555555657,0.6583333333333314,0.6694444444444514,0.9792531120332,0.02254731289380295,0.9996351961521442,38.888888888888886,0.9999999999742858,0.983402489626543,1.945511352383675e-20,0.9989808140945373,0
131,88.34444444444445,0.6583333333333314,0.6638888888888914,0.6694444444444514,0.983402489626543,0.023375835121146812,1.0363677320045617,38.888888888888886,0.9999999999742858,0.9917012448132715,1.1456508352526546e-19,0.9978647591314231,0
132,89.00833333333334,0.6638888888888914,0.6749999999999972,0.6666666666666714,0.99583333333333,0.022297745562756235,0.9885706276557085,38.888888888888886,0.9999999999742858,1.0124999999999886,2.378494681939296e-20,0.9976895866329609,0
133,89.68333333333334,0.6749999999999972,0.6777777777777771,0.6666666666666714,1.0124999999999886,0.02335124492374808,1.0352775255167255,38.888888888888886,0.9999999999742858,1.0166666666666584,5.3370668936550217e-20,0.9990688093390727,0
134,90.36111111111111,0.6777777777777771,0.6666666666666572,0.6722222222222243,1.0082644628099133,0.023582917194047464,1.0455487164322241,38.888888888888886,0.9999999999742858,0.9917355371900656,4.1739740504578915e-20,0.9989017342766862,0
135,91.02777777777777,0.6666666666666572,0.6638888888888914,0.6722222222222243,0.9917355371900656,0.023241512574149976,1.0304125414127931,38.888888888888886,0.9999999999742858,0.9876033057851247,4.032242791728039e-20,0.99870567747697,0
136,91.69166666666666,0.6638888888888914,0.6472222222222257,0.6708333333333272,0.9896480331263069,0.021777187762389728,0.965491695752434,38.888888888888886,0.9999999999742858,0.9648033126294137,3.513670583359545e-21,0.9981143345294027,0
137,92.33888888888889,0.6472222222222257,0.6694444444444514,0.6652777777777743,0.9728601252609707,0.028189014312027468,1.2497600482975515,41.666666666666664,1.0714285714010205,1.0062630480167172,1.5810396814994708e-14,0.9928032886930672,0
138,93.00833333333334,0.6694444444444514,0.6722222222222172,0.6652777777777743,1.0062630480167172,0.022734240043807696,1.0079226120025941,36.111111111111114,0.9285714285475513,1.0104384133611668,2.3595170261123127e-20,0.9964029467117067,0
139,93.68055555555556,0.6722222222222172,0.6666666666666714,0.6652777777777743,1.0104384133611668,0.022760155267650677,1.0090715635424792,38.888888888888886,0.9999999999742858,1.0020876826722462,1.9087771014855047e-20,0.998920273774357,0
140,94.34722222222223,0.6666666666666714,0.6472222222222115,0.6666666666666643,1.0000000000000107,0.02253777163130252,0.9992121842457552,38.888888888888886,0.9999999999742858,0.9708333333333207,1.0028587496989456e-20,0.9988802728773318,0
141,94.99444444444444,0.6472222222222115,0.6555555555555657,0.6666666666666643,0.9708333333333207,0.022963333982385935,1.0180794925722014,38.888888888888886,0.9999999999742858,0.9833333333333519,7.898543459055137e-20,0.9982465240932792,0
142,95.65,0.6555555555555657,0.6555555555555515,0.6666666666666643,0.9833333333333519,0.022458907671707155,0.9957157503207568,38.888888888888886,0.9999999999742858,0.9833333333333306,1.9274573277211383e-20,0.9987371692585452,0
143,96.30555555555556,0.6555555555555515,0.6722222222222172,0.6652777777777743,0.9853862212943623,0.022253293982891033,0.9865998667066272,36.111111111111114,0.9285714285475513,1.0104384133611668,1.731020511491834e-20,0.9969223460475627,0
144,96.97777777777777,0.6722222222222172,0.6749999999999972,0.6652777777777743,1.0104384133611668,0.022772597879308458,1.0096232067739255,38.888888888888886,0.9999999999742858,1.0146137787056377,4.594542723800541e-20,0.9970814257695071,0
145,97.65277777777777,0.6749999999999972,0.6666666666666714,0.6652777777777814,1.0146137787056269,0.023055516131554064,1.0221663884785752,38.888888888888886,0.9999999999742858,1.0020876826722356,3.123825611321488e-20,0.9985221026269635,0
146,98.31944444444444,0.6666666666666714,0.6638888888888914,0.6666666666666714,1.0,0.022650012169031446,1.004188368879256,38.888888888888886,0.9999999999742858,0.99583333333333,1.9753572244190674e-20,0.998669870203699,0
147,98.98333333333333,0.6638888888888914,0.6583333333333314,0.6666666666666714,0.99583333333333,0.027733821082793864,1.2295790548844905,41.666666666666664,1.0714285714010205,0.9874999999999902,3.3084753283497493e-15,0.9918558849926069,0
148,99.64166666666667,0.6583333333333314,0.6694444444444514,0.6652777777777814,0.9895615866388227,0.02325947178502107,1.0312087630896918,38.888888888888886,0.9999999999742858,1.0062630480167065,9.316846078149312e-20,0.9988968543299316,0
149,100.31111111111112,0.6694444444444514,0.6722222222222172,0.6652777777777814,1.0062630480167065,0.028852866143861452,1.2791919215880363,41.666666666666664,1.0714285714010205,1.010438413361156,1.451718418057652e-14,0.9931659173098157,0
150,100.98333333333333,0.6722222222222172,0.6666666666666714,0.6652777777777814,1.010438413361156,0.02216548903323256,0.9827070339558518,38.888888888888886,0.9999999999742858,1.0020876826722356,1.3747198943354332e-20,0.9970097728861944,0
151,101.65,0.6666666666666714,0.6527777777777715,0.6666666666666714,1.0,0.02799342396916592,1.2410885497614395,41.666666666666664,1.0714285714010205,0.9791666666666502,3.834693488040299e-15,0.99206425962328,0
152,102.30277777777778,0.6527777777777715,0.6527777777777715,0.6666666666666714,0.9791666666666502,0.022994565607111456,1.0194641467638426,38.888888888888886,0.9999999999742858,0.9791666666666502,3.822371883804277e-20,0.9995046688185867,0
153,102.95555555555555,0.6527777777777715,0.6583333333333456,0.6666666666666714,0.9791666666666502,0.023445220732686956,1.03944394333532,38.888888888888886,0.9999999999742858,0.9875000000000115,1.4336117935279703e-19,0.9982711498896065,0
154,103.6138888888889,0.6583333333333456,0.6638888888888772,0.6652777777777814,0.989561586638844,0.023072077178734857,1.0229006225633652,38.888888888888886,0.9999999999742858,0.9979123173277432,6.074440248609226e-20,0.9988026567037636,0
155,104.27777777777777,0.6638888888888772,0.6750000000000114,0.6638888888888843,0.9999999999999893,0.02357318142209626,1.0451170809486534,38.888888888888886,0.9999999999742858,1.0167364016736644,2.001527118736971e-19,0.9980289866054313,0
156,104.95277777777778,0.6750000000000114,0.6472222222222115,0.6638888888888843,1.0167364016736644,0.02304708264124447,1.0217924896561486,38.888888888888886,0.9999999999742858,0.9748953974895302,2.5691281476249445e-20,0.9978111084293706,0
157,105.6,0.6472222222222115,0.6638888888888914,0.6611111111111114,0.9789915966386388,0.029711504707440016,1.3172596653129465,41.666666666666664,1.0714285714010205,1.0042016806722722,3.540216622459347e-13,0.9916528270497368,0
158,106.26388888888889,0.6638888888888914,0.6472222222222257,0.6638888888888843,1.0000000000000107,0.021935447031834695,0.9725081210178144,36.111111111111114,0.9285714285475513,0.9748953974895517,5.78864506566625e-21,0.9957834372867039,0
159,106.91111111111111,0.6472222222222257,0.6722222222222172,0.6611111111111114,0.9789915966386602,0.021694952224519302,0.9618457828927968,38.888888888888886,0.9999999999742858,1.0168067226890676,1.2065401817540512e-20,0.9996466217369546,0
160,107.58333333333333,0.6722222222222172,0.6583333333333314,0.6611111111111114,1.0168067226890676,0.022545516347776805,0.99955554627778,38.888888888888886,0.9999999999742858,0.9957983193277278,2.5643010963863e-20,0.9969385206916679,0
161,108.24166666666666,0.6583333333333314,0.6638888888888914,0.6583333333333385,0.9999999999999892,0.022339267811885208,0.9904115167163348,38.888888888888886,0.9999999999742858,1.0084388185653967,3.767075506089961e-20,0.9976021946943823,0
162,108.90555555555555,0.6638888888888914,0.6472222222222257,0.6611111111111114,1.0042016806722722,0.02332187170160347,1.0339752636100208,38.888888888888886,0.9999999999742858,0.9789915966386602,5.1724091610255256e-20,0.9989887091906835,0
163,109.55277777777778,0.6472222222222257,0.6472222222222257,0.6611111111111114,0.9789915966386602,0.022893629260380695,1.014989133477855,38.888888888888886,0.9999999999742858,0.9789915966386602,5.10376964917239e-20,0.9992691998147838,0
164,110.2,0.6472222222222257,0.6555555555555515,0.6611111111111043,0.9789915966386707,0.02337738517894633,1.0364364538225348,38.888888888888886,0.9999999999742858,0.9915966386554662,1.7555331688395333e-19,0.998669052418556,0
165,110.85555555555555,0.6555555555555515,0.6694444444444514,0.6569444444444414,0.9978858350951357,0.021582172059644026,0.9568456738878717,38.888888888888886,0.9999999999742858,1.0190274841437785,8.124248090243327e-21,0.99942933884687,0
166,111.525,0.6694444444444514,0.6666666666666572,0.6569444444444414,1.0190274841437785,0.023368537368745855,1.0360441861262941,38.888888888888886,0.9999999999742858,1.0147991543340282,1.2658483208157644e-19,0.997882055235046,0
167,112.19166666666666,0.6666666666666572,0.6583333333333314,0.6611111111111114,1.008403361344523,0.02319465142488709,1.0283349521960226,38.888888888888886,0.9999999999742858,0.9957983193277278,4.912892876064377e-20,0.9989604907936125,0
168,112.85,0.6583333333333314,0.6527777777777857,0.6583333333333314,1.0,0.02322789673590492,1.0298088831764889,38.888888888888886,0.9999999999742858,0.991561181434614,7.745978396122828e-20,0.9989110042231983,0
169,113.50277777777778,0.6527777777777857,0.6527777777777715,0.6583333333333314,0.991561181434614,0.028484909690857093,1.262878570954775,41.666666666666664,1.0714285714010205,0.9915611814345924,1.440805753784996e-14,0.9935831940866787,0
170,114.15555555555555,0.6527777777777715,0.6611111111111114,0.6569444444444414,0.9936575052854072,0.022111731995949395,0.980323715519539,36.111111111111114,0.9285714285475513,1.006342494714593,1.2939447381673497e-20,0.9977422865793315,0
171,114.81666666666666,0.6611111111111114,0.6638888888888914,0.6569444444444414,1.006342494714593,0.022661445338241656,1.0046952584762523,36.111111111111114,0.9285714285475513,1.0105708245243215,1.8459543495492362e-20,0.9984180403189464,0
172,115.48055555555555,0.6638888888888914,0.6638888888888914,0.6569444444444414,1.0105708245243215,0.022799514364377438,1.0108165492337737,36.111111111111114,0.9285714285475513,1.0105708245243215,3.53441512605551e-20,0.9968063517418358,0
173,116.14444444444445,0.6638888888888914,0.6416666666666657,0.6597222222222214,1.0063157894736892,0.029138097446655603,1.2918376523968604,41.666666666666664,1.0714285714010205,0.9726315789473682,3.0497143439084384e-14,0.992652923285174,0
174,116.78611111111111,0.6416666666666657,0.6388888888888857,0.6597222222222214,0.9726315789473682,0.022783181549127063,1.0100924338124184,38.888888888888886,0.9999999999742858,0.9684210526315753,4.89219041941325e-20,0.9992085496763721,0
175,117.425,0.6388888888888857,0.6500000000000057,0.6597222222222214,0.9684210526315753,0.02262003298444448,1.0028592416255464,38.888888888888886,0.9999999999742858,0.9852631578947466,5.767070272742178e-20,0.9991730329870435,0
176,118.075,0.6500000000000057,0.6583333333333314,0.6555555555555586,0.9915254237288177,0.022214427455649246,0.9848767190851749,38.888888888888886,0.9999999999742858,1.0042372881355857,4.013367241007918e-20,0.9979327386933824,0
177,118.73333333333333,0.6583333333333314,0.6638888888888914,0.6555555555555586,1.0042372881355857,0.028023558115119328,1.2424245472278734,41.666666666666664,1.0714285714010205,1.012711864406779,6.681646609694308e-15,0.9932210210734083,0
178,119.39722222222223,0.6638888888888914,0.6499999999999915,0.6555555555555586,1.012711864406779,0.022459303487672565,0.9957332988229701,36.111111111111114,0.9285714285475513,0.991525423728796,1.1703649240042077e-20,0.99753231335977,0
179,120.04722222222222,0.6499999999999915,0.6611111111111114,0.6555555555555515,0.9915254237288068,0.022538840337796538,0.9992595653519122,36.111111111111114,0.9285714285475513,1.0084745762711933,4.286016956897906e-20,0.9969064627999902,0
180,120.70833333333333,0.6611111111111114,0.6444444444444457,0.6597222222222214,1.0021052631578964,0.022802894558925382,1.0109664101709008,38.888888888888886,0.9999999999742858,0.976842105263161,2.7733052418127284e-20,0.9986646684622572,0
181,121.35277777777777,0.6444444444444457,0.6722222222222314,0.6541666666666686,0.9851380042462836,0.02326442443621464,1.0314283388977128,38.888888888888886,0.9999999999742858,1.0276008492569113,3.934017485056325e-19,0.9984470353294261,0
182,122.025,0.6722222222222314,0.6694444444444372,0.6541666666666686,1.0276008492569113,0.022715924232183545,1.007110580430059,38.888888888888886,0.9999999999742858,1.0233545647558246,2.6425942260405843e-20,0.9994936033156328,0
183,122.69444444444444,0.6694444444444372,0.6749999999999972,0.6541666666666686,1.0233545647558246,0.028386329961839207,1.2585080383233453,41.666666666666664,1.0714285714010205,1.0318471337579544,1.675845538186803e-14,0.9913178558734368,0
184,123.36944444444444,0.6749999999999972,0.6527777777777857,0.6597222222222214,1.023157894736839,0.022751026586648515,1.0086668434382615,38.888888888888886,0.9999999999742858,0.9894736842105395,2.796379057258983e-20,0.9970624462849852,0
185,124.02222222222223,0.6527777777777857,0.6666666666666572,0.6597222222222214,0.9894736842105395,0.02265955818466462,1.0046115915158018,38.888888888888886,0.9999999999742858,1.0105263157894606,5.18295636007043e-20,0.9990317569435837,0
186,124.68888888888888,0.6666666666666572,0.6638888888888914,0.6625000000000014,1.0062893081760842,0.022665349583455355,1.0048683532014822,38.888888888888886,0.9999999999742858,1.002096436058702,2.2581759304059162e-20,0.9989160729221997,0
187,125.35277777777777,0.6638888888888914,0.6833333333333371,0.6638888888888914,1.0,0.022107498337007665,0.9801360162355227,38.888888888888886,0.9999999999742858,1.029288702928872,1.3988743760155486e-20,0.9993429791456789,0
188,126.03611111111111,0.6833333333333371,0.6833333333333371,0.6652777777777743,1.0271398747390508,0.021803786102662568,0.9666709332616304,36.111111111111114,0.9285714285475513,1.0271398747390508,3.406150836218289e-21,0.9964841601594322,0
189,126.71944444444445,0.6833333333333371,0.6666666666666572,0.6680555555555472,1.0228690228690414,0.02306324950741472,1.0225092477244548,38.888888888888886,0.9999999999742858,0.9979209979209962,1.677161198533115e-20,0.9988188336078846,0
190,127.3861111111111,0.6666666666666572,0.6666666666666714,0.6680555555555472,0.9979209979209962,0.023352217738236477,1.035320655250477,38.888888888888886,0.9999999999742858,0.9979209979210175,5.147842866184981e-20,0.9993009160335071,0
191,128.05277777777778,0.6666666666666714,0.6722222222222172,0.6680555555555543,0.9979209979210069,0.028875074738674508,1.2801765397168916,41.666666666666664,1.0714285714010205,1.0062370062370005,2.009189764161281e-14,0.9926055290459865,0
192,128.725,0.6722222222222172,0.6833333333333371,0.6680555555555543,1.0062370062370005,0.023050906919417854,1.0219620390423656,38.888888888888886,0.9999999999742858,1.0228690228690305,4.4474793812939894e-20,0.9987846709735905,0
193,129.40833333333333,0.6833333333333371,0.6666666666666572,0.6694444444444443,1.020746887966811,0.02384298094243762,1.0570786436283606,38.888888888888886,0.9999999999742858,0.9958506224066251,9.851818676969447e-20,0.9972512002047381,0
194,130.075,0.6666666666666572,0.6666666666666856,0.6666666666666643,0.9999999999999893,0.027850247719108618,1.234740830213462,41.666666666666664,1.0714285714010205,1.000000000000032,4.056227332098136e-15,0.9918048861258357,0
195,130.74166666666667,0.6666666666666856,0.6638888888888914,0.6666666666666785,1.0000000000000107,0.022112657417348257,0.9803647440805002,36.111111111111114,0.9285714285475513,0.9958333333333195,9.480181291151003e-21,0.9956214654733342,0
196,131.40555555555557,0.6638888888888914,0.6638888888888914,0.6666666666666785,0.9958333333333195,0.022150739345150734,0.9820531064830614,36.111111111111114,0.9285714285475513,0.9958333333333195,1.0331704762843958e-20,0.9959364578095002,0
197,132.06944444444446,0.6638888888888914,0.6611111111110972,0.6666666666666785,0.9958333333333195,0.02316960793463951,1.027224648968144,36.111111111111114,0.9285714285475513,0.9916666666666282,4.483695674957034e-20,0.9963923692595806,0
198,132.73055555555555,0.6611111111110972,0.6694444444444514,0.6666666666666643,0.9916666666666494,0.021666588385150964,0.9605882719750151,36.111111111111114,0.9285714285475513,1.0041666666666806,6.00882333872489e-21,0.995983382244576,0
199,133.4,0.6694444444444514,0.6777777777777771,0.6666666666666643,1.0041666666666806,0.02239921298519707,0.993069186185163,38.888888888888886,0.9999999999742858,1.0166666666666693,1.2612732850141359e-20,0.9994521648609147,0
200,134.07777777777778,0.6777777777777771,0.6611111111110972,0.6666666666666785,1.0166666666666477,0.027204581669771594,1.2061152236537025,38.888888888888886,0.9999999999742858,0.9916666666666282,1.4866224964678982e-16,0.9924542511732811,0
201,134.73888888888888,0.6611111111110972,0.6666666666666856,0.6666666666666714,0.9916666666666388,0.02391680616312326,1.0603516850461405,38.888888888888886,0.9999999999742858,1.0000000000000213,2.7178096945165457e-19,0.9981607018034092,0
202,135.40555555555557,0.6666666666666856,0.6777777777777771,0.6666666666666714,1.0000000000000213,0.022822792233994787,1.0118485736648242,38.888888888888886,0.9999999999742858,1.0166666666666584,4.3236223323786714e-20,0.9983084247136922,0
203,136.08333333333334,0.6777777777777771,0.6944444444444287,0.6666666666666714,1.0166666666666584,0.024258876525961114,1.0755173757811654,38.888888888888886,0.9999999999742858,1.0416666666666357,4.200571526066651e-19,0.9982868360605974,0
204,136.77777777777777,0.6944444444444287,0.6583333333333314,0.6666666666666856,1.0416666666666134,0.023607286134252944,1.0466291134816224,38.888888888888886,0.9999999999742858,0.9874999999999691,2.3774605446148912e-20,0.9985036191130785,0
205,137.4361111111111,0.6583333333333314,0.6611111111111256,0.6652777777777885,0.9895615866388121,0.0234527186873487,1.039776365181521,38.888888888888886,0.9999999999742858,0.9937369519833044,1.1025772143115457e-19,0.9986893051761141,0
206,138.09722222222223,0.6611111111111256,0.6583333333333314,0.6652777777777885,0.9937369519833044,0.02117748334604135,0.9389037983522748,36.111111111111114,0.9285714285475513,0.9895615866388121,1.2874989493999016e-21,0.9974510335213185,0
207,138.75555555555556,0.6583333333333314,0.6805555555555429,0.6638888888889056,0.991631799163152,0.022187941954407278,0.9837024842948076,36.111111111111114,0.9285714285475513,1.0251046025104154,1.924459767352914e-20,0.9967544124478187,0
208,139.4361111111111,0.6805555555555429,0.6638888888888914,0.6680555555555685,1.01871101871098,0.02873287145093291,1.2738719564565901,41.666666666666664,1.0714285714010205,0.9937629937629783,1.0063299443697962e-14,0.9914596101943778,0
209,140.1,0.6638888888888914,0.6777777777777771,0.6652777777777885,0.9979123173277539,0.0239827378437901,1.0632747663395286,38.888888888888886,0.9999999999742858,1.018789144050087,4.01735179586798e-19,0.9980065453484299,0
210,140.77777777777777,0.6777777777777771,0.6638888888888914,0.6652777777777885,1.018789144050087,0.022575130554166607,1.0008684922218396,38.888888888888886,0.9999999999742858,0.9979123173277539,1.2665672409344753e-20,0.99822079304221,0
211,141.44166666666666,0.6638888888888914,0.6694444444444514,0.6652777777777885,0.9979123173277539,0.022022688324681513,0.97637596404187,38.888888888888886,0.9999999999742858,1.0062630480166956,8.051006255321872e-21,0.9992639499250668,0
212,142.11111111111111,0.6694444444444514,0.6500000000000057,0.6666666666666714,1.00416666666667,0.022622124339058487,1.0029519618396865,38.888888888888886,0.9999999999742858,0.9750000000000016,1.0050991651568712e-20,0.9990899623429946,0
213,142.76111111111112,0.6500000000000057,0.6722222222222172,0.6638888888888914,0.9790794979079547,0.023706209273817957,1.0510148712208622,38.888888888888886,0.9999999999742858,1.0125523012552187,1.2067806198936656e-18,0.9952942868103577,0
214,143.43333333333334,0.6722222222222172,0.674999999999983,0.6638888888888914,1.0125523012552187,0.023904552928152044,1.0598084378307566,41.666666666666664,1.0714285714010205,1.0167364016736107,9.404729236095155e-19,0.9965636499655258,0
215,144.10833333333332,0.674999999999983,0.6666666666666856,0.6666666666666714,1.0124999999999673,0.02863128737822386,1.2693682262370856,41.666666666666664,1.0714285714010205,1.0000000000000213,1.0451210887387277e-14,0.9918595706015954,0
216,144.775,0.6666666666666856,0.6500000000000057,0.6680555555555685,0.997920997921007,0.028882006954183064,1.2804838795157538,41.666666666666664,1.0714285714010205,0.9729729729729626,2.095264574634905e-14,0.9917457033840866,0
217,145.425,0.6500000000000057,0.6583333333333314,0.6680555555555685,0.9729729729729626,0.022894069448313268,1.0150086492113881,38.888888888888886,0.9999999999742858,0.9854469854469635,6.21057349792014e-20,0.9982496011488761,0
218,146.08333333333334,0.6583333333333314,0.669444444444423,0.6652777777777885,0.9895615866388121,0.021796225711659012,0.9663357432999964,36.111111111111114,0.9285714285475513,1.006263048016653,7.56065374975915e-21,0.9965172195213111,0
219,146.75277777777777,0.669444444444423,0.6777777777777771,0.6680555555555543,1.0020790020789718,0.02263941873634048,1.003718709003783,38.888888888888886,0.9999999999742858,1.0145530145530155,3.1237900684045424e-20,0.9977888956125173,0
220,147.43055555555554,0.6777777777777771,0.6888888888888971,0.6680555555555543,1.0145530145530155,0.023336613103773406,1.0346288237268786,38.888888888888886,0.9999999999742858,1.0311850311850455,8.222214062868309e-20,0.998026568612642,0
221,148.11944444444444,0.6888888888888971,0.6750000000000114,0.6694444444444372,1.0290456431535504,0.02330496700277684,1.0332257937283085,38.888888888888886,0.9999999999742858,1.00829875518675,2.1976091843434153e-20,0.9988761771498431,0
222,148.79444444444445,0.6750000000000114,0.6694444444444514,0.6708333333333201,1.0062111801242604,0.02346230747766046,1.040201484233592,38.888888888888886,0.9999999999742858,0.9979296066252888,5.434343979926111e-20,0.9983447812331744,0
223,149.4638888888889,0.6694444444444514,0.6555555555555372,0.6708333333333343,0.9979296066252678,0.022648000105219064,1.0040991640230839,38.888888888888886,0.9999999999742858,0.9772256728778181,1.0391508143985695e-20,0.9989692132595386,0
224,150.11944444444444,0.6555555555555372,0.6638888888888914,0.6694444444444372,0.9792531120331783,0.022616819987549386,1.002716793396944,38.888888888888886,0.9999999999742858,0.9917012448132926,3.956636221918705e-20,0.9976855653230379,0
225,150.78333333333333,0.6638888888888914,0.6916666666666629,0.6680555555555543,0.9937629937629994,0.02303421776130579,1.0212221251589886,38.888888888888886,0.9999999999742858,1.0353430353430317,9.860240409581002e-20,0.9982214376845062,0
226,151.475,0.6916666666666629,0.6638888888888914,0.6694444444444372,1.0331950207468936,0.023631091381442298,1.0476845191991755,38.888888888888886,0.9999999999742858,0.9917012448132926,3.310461468203033e-20,0.998038334418696,0
227,152.13888888888889,0.6638888888888914,0.6500000000000057,0.6694444444444372,0.9917012448132926,0.029334421822467833,1.3005416942864128,41.666666666666664,1.0714285714010205,0.970954356846492,3.5392289142802125e-14,0.9929201594681845,0
228,152.7888888888889,0.6500000000000057,0.6500000000000057,0.6694444444444372,0.970954356846492,0.028261837115603667,1.252988647549272,41.666666666666664,1.0714285714010205,0.970954356846492,1.9714373362955673e-14,0.9911557972046923,0
229,153.4388888888889,0.6500000000000057,0.6611111111110972,0.6666666666666714,0.9750000000000016,0.023913382246907144,1.0601998857087018,41.666666666666664,1.0714285714010205,0.9916666666666388,1.076063335643442e-18,0.9981607461657582,0
230,154.1,0.6611111111110972,0.6666666666666856,0.6638888888888914,0.9958158995815652,0.022676928987791674,1.005381726133307,38.888888888888886,0.9999999999742858,1.0041841004184349,3.3653397319670977e-20,0.9986267685819356,0
231,154.76666666666668,0.6666666666666856,0.669444444444423,0.6638888888888914,1.0041841004184349,0.023098166150509202,1.024057277218396,38.888888888888886,0.9999999999742858,1.0083682008367838,7.630747613150216e-20,0.9977143242862154,0
232,155.4361111111111,0.669444444444423,0.6666666666666856,0.6638888888888914,1.0083682008367838,0.02395147093849497,1.0618885479837101,38.888888888888886,0.9999999999742858,1.0041841004184349,2.06679619271138e-19,0.9983233603553311,0
233,156.1027777777778,0.6666666666666856,0.669444444444423,0.6638888888888914,1.0041841004184349,0.02361789010920765,1.0470992407483954,38.888888888888886,0.9999999999742858,1.0083682008367838,1.1946148868839361e-19,0.9989159695074703,0
234,156.7722222222222,0.669444444444423,0.6555555555555657,0.6652777777777885,1.006263048016653,0.023210476146233682,1.0290365412723732,38.888888888888886,0.9999999999742858,0.9853862212943626,5.838256919270608e-20,0.997381731311169,0
235,157.42777777777778,0.6555555555555657,0.6805555555555429,0.6652777777777885,0.9853862212943626,0.023231192030848936,1.0299549800893786,41.666666666666664,1.0714285714010205,1.0229645093945365,1.1679755094072717e-18,0.9954725735872167,0
236,158.10833333333332,0.6805555555555429,0.6777777777777771,0.6652777777777885,1.0229645093945365,0.023822760517239677,1.0561821710063577,41.666666666666664,1.0714285714010205,1.018789144050087,4.2135866960172903e-19,0.9973533167832461,0
237,158.7861111111111,0.6777777777777771,0.6750000000000114,0.6666666666666856,1.0166666666666369,0.028454550070878014,1.261532577096623,41.666666666666664,1.0714285714010205,1.0124999999999882,7.645072895329664e-15,0.9917297619134826,0
238,159.4611111111111,0.6750000000000114,0.6638888888888914,0.6680555555555543,1.0103950103950292,0.023295229856990368,1.0327940973357463,41.666666666666664,1.0714285714010205,0.9937629937629994,1.7003726296914347e-19,0.9967748275500248,0
239,160.125,0.6638888888888914,0.6750000000000114,0.6680555555555543,0.9937629937629994,0.023388066503800396,1.036910010397367,41.666666666666664,1.0714285714010205,1.0103950103950292,5.023630194229751e-19,0.9965192343094795,0
240,160.8,0.6750000000000114,0.6611111111110972,0.669444444444423,1.0082987551867713,0.02414507044242216,1.0704717826686914,38.888888888888886,0.9999999999742858,0.9875518672199279,1.3318608233657052e-19,0.9985732314436402,0
241,161.4611111111111,0.6611111111110972,0.6750000000000114,0.669444444444423,0.9875518672199279,0.023654826621871947,1.048736821166792,38.888888888888886,0.9999999999742858,1.0082987551867713,1.9070312980286203e-19,0.9981976890163882,0
242,162.13611111111112,0.6750000000000114,0.674999999999983,0.6722222222222172,1.0041322314049832,0.028649141271715837,1.270159778667612,41.666666666666664,1.0714285714010205,1.0041322314049408,8.656462421603294e-15,0.9923865667857941,0
243,162.8111111111111,0.674999999999983,0.6555555555555657,0.6749999999999972,0.9999999999999789,0.02375806469046048,1.053313881299409,38.888888888888886,0.9999999999742858,0.9711934156378792,4.028706271491948e-20,0.9990916147599658,0
244,163.46666666666667,0.6555555555555657,0.6611111111110972,0.6749999999999972,0.9711934156378792,0.024010937646682603,1.0645250046995791,41.666666666666664,1.0714285714010205,0.9794238683127408,1.5589285706552e-18,0.9958147769055852,0
245,164.12777777777777,0.6611111111110972,0.6583333333333314,0.6749999999999972,0.9794238683127408,0.02278621236075091,1.0102268048563814,38.888888888888886,0.9999999999742858,0.97530864197531,2.916550305687038e-20,0.9974502229632631,0
246,164.7861111111111,0.6583333333333314,0.6694444444444514,0.6694444444444372,0.9834024896265638,0.023349188050208105,1.0351863340211234,38.888888888888886,0.9999999999742858,1.0000000000000213,1.9495017233574191e-19,0.9966237528521271,0
247,165.45555555555555,0.6694444444444514,0.6638888888888914,0.6666666666666714,1.00416666666667,0.023880589177364388,1.0587460048556174,38.888888888888886,0.9999999999742858,0.99583333333333,1.359425195562357e-19,0.9986074637052095,0
248,166.11944444444444,0.6638888888888914,0.6527777777777715,0.6638888888888914,1.0,0.022416114014210325,0.9938184933656866,36.111111111111114,0.9285714285475513,0.9832635983263466,9.137857764524761e-21,0.9971592634623907,0
249,166.7722222222222,0.6527777777777715,0.6472222222222399,0.6624999999999943,0.9853249475890975,0.022556031163229143,1.0000217206577031,38.888888888888886,0.9999999999742858,0.9769392033543328,4.83185728725031e-20,0.9968510029391304,0
250,167.41944444444445,0.6472222222222399,0.6583333333333314,0.6611111111110972,0.9789915966387028,0.023873296491065323,1.0584226835829948,41.666666666666664,1.0714285714010205,0.9957983193277492,3.144044645528063e-18,0.995643122692178,0
251,168.07777777777778,0.6583333333333314,0.6555555555555372,0.6597222222222143,0.9978947368421144,0.02489204687149792,1.1035889852691576,41.666666666666664,1.0714285714010205,0.9936842105263,7.767853781957858e-18,0.9961802965523974,0
252,168.73333333333332,0.6555555555555372,0.6694444444444514,0.6583333333333314,0.9957805907172746,0.023995783216733357,1.0638531329946785,38.888888888888886,0.9999999999742858,1.0168776371308152,7.954910647921798e-19,0.9975596883292985,0
253,169.40277777777777,0.6694444444444514,0.6750000000000114,0.6583333333333314,1.0168776371308152,0.023160279506774767,1.026811073086074,38.888888888888886,0.9999999999742858,1.0253164556962227,9.145290111575521e-20,0.9982914972358631,0
254,170.07777777777778,0.6750000000000114,0.6527777777777715,0.6597222222222143,1.0231578947368716,0.02450492584477125,1.0864259731927652,41.666666666666664,1.0714285714010205,0.9894736842105286,1.0695237491181744e-18,0.9975075276669244,0
255,170.73055555555555,0.6527777777777715,0.6583333333333314,0.6583333333333314,0.9915611814345924,0.022548258569506423,0.9996771226877713,38.888888888888886,0.9999999999742858,1.0,3.8846097931980767e-20,0.9988641536377966,0
256,171.38888888888889,0.6583333333333314,0.6611111111111256,0.6583333333333314,1.0,0.023375993538171227,1.0363747554238942,38.888888888888886,0.9999999999742858,1.0042194092827255,3.1026994184768837e-19,0.9962569479374208,0
257,172.05,0.6611111111111256,0.6944444444444287,0.6583333333333314,1.0042194092827255,0.02449320526144845,1.0859063410900802,41.666666666666664,1.0714285714010205,1.0548523206750846,6.251558513663947e-18,0.9978545038080167,0
258,172.74444444444444,0.6944444444444287,0.6666666666666572,0.6583333333333314,1.0548523206750846,0.025056287050141474,1.1108705741648142,41.666666666666664,1.0714285714010205,1.0126582278480898,2.757537266482301e-18,0.9959991459711088,0
259,173.4111111111111,0.6666666666666572,0.6666666666666856,0.6597222222222285,1.0105263157894497,0.024295186323770583,1.0771271707942771,41.666666666666664,1.0714285714010205,1.0105263157894928,1.5940538647890752e-18,0.9976097869876628,0
260,174.07777777777778,0.6666666666666856,0.6444444444444457,0.6638888888888914,1.0041841004184349,0.02378826530454456,1.0546528256306489,38.888888888888886,0.9999999999742858,0.9707112970711279,1.2269863416622574e-19,0.9977972928696395,0
261,174.72222222222223,0.6444444444444457,0.6583333333333314,0.6638888888888914,0.9707112970711279,0.022615040217654977,1.002637887292439,38.888888888888886,0.9999999999742858,0.9916317991631733,7.352260457828047e-20,0.9977583058989943,0
262,175.38055555555556,0.6583333333333314,0.6527777777777715,0.6638888888888914,0.9916317991631733,0.025561049614278943,1.1332492242145282,41.666666666666664,1.0714285714010205,0.9832635983263466,2.5261291887814064e-17,0.9953333763092068,0
263,176.03333333333333,0.6527777777777715,0.6722222222222172,0.6597222222222285,0.9894736842105073,0.024330835549975314,1.0787076793629782,41.666666666666664,1.0714285714010205,1.0189473684210353,7.318102448022976e-18,0.9959109202417551,0
264,176.70555555555555,0.6722222222222172,0.6722222222222172,0.6597222222222285,1.0189473684210353,0.023805639170398536,1.0554230960341628,38.888888888888886,0.9999999999742858,1.0189473684210353,2.2490216259643684e-19,0.9979864838669046,0
265,177.37777777777777,0.6722222222222172,0.6444444444444457,0.6638888888888914,1.0125523012552187,0.022626839945108758,1.0031610282504486,38.888888888888886,0.9999999999742858,0.9707112970711279,1.503850704331917e-20,0.9975305409534526,0
266,178.0222222222222,0.6444444444444457,0.6527777777777999,0.6638888888888914,0.9707112970711279,0.023000987756626245,1.0197488727850839,38.888888888888886,0.9999999999742858,0.9832635983263894,1.090871445421184e-19,0.9980376547001981,0
267,178.675,0.6527777777777999,0.6638888888888914,0.6624999999999943,0.9853249475891404,0.02411158798378459,1.0689873377476726,38.888888888888886,0.9999999999742858,1.0020964360587126,1.171487201300289e-18,0.9963803351613811,0
268,179.3388888888889,0.6638888888888914,0.6861111111111029,0.6611111111111114,1.0042016806722722,0.02316227081528259,1.026899357755746,41.666666666666664,1.0714285714010205,1.0378151260504072,8.020116261633587e-19,0.9958792149675635,0
269,180.025,0.6861111111111029,0.6694444444444514,0.6611111111111114,1.0378151260504072,0.029309987087744835,1.2994583802368498,41.666666666666664,1.0714285714010205,1.0126050420168167,2.390217032275082e-14,0.9918345268364943,0
270,180.69444444444446,0.6694444444444514,0.6611111111110972,0.6611111111111114,1.0126050420168167,0.02290732817832238,1.0155964750528004,38.888888888888886,0.9999999999742858,0.9999999999999785,2.4702446830666254e-20,0.9993983931434406,0
271,181.35555555555555,0.6611111111110972,0.6666666666666572,0.6624999999999943,0.9979035639412874,0.022134588787018156,0.9813370714316623,36.111111111111114,0.9285714285475513,1.0062893081760949,1.1791483057956851e-20,0.9966411840958747,0
272,182.0222222222222,0.6666666666666572,0.6638888888888914,0.6652777777777743,1.002087682672225,0.022233142474775276,0.9857064495237046,36.111111111111114,0.9285714285475513,0.9979123173277752,6.826756330523516e-21,0.9973338099319955,0
273,182.6861111111111,0.6638888888888914,0.6638888888888914,0.6652777777777743,0.9979123173277752,0.02353390459275801,1.043375742582317,38.888888888888886,0.9999999999742858,0.9979123173277752,8.998493340946061e-20,0.9991038023729706,0
274,183.35,0.6638888888888914,0.6694444444444514,0.6638888888888914,1.0,0.022905294210826675,1.0155062990967514,38.888888888888886,0.9999999999742858,1.0083682008368267,4.789484314137428e-20,0.9985281710855333,0
275,184.01944444444445,0.6694444444444514,0.6833333333333371,0.6638888888888914,1.0083682008368267,0.028674510783293243,1.2712845360522906,41.666666666666664,1.0714285714010205,1.029288702928872,1.3442394238200907e-14,0.9929862746412905,0
276,184.70277777777778,0.6833333333333371,0.6527777777777715,0.6652777777777743,1.0271398747390508,0.022813694429437644,1.0114452224679047,38.888888888888886,0.9999999999742858,0.9812108559498912,8.725060711530989e-21,0.9988821916271207,0
277,185.35555555555555,0.6527777777777715,0.6555555555555657,0.6652777777777743,0.9812108559498912,0.023586718762295525,1.0457172589738224,38.888888888888886,0.9999999999742858,0.9853862212943836,1.4360474526910268e-19,0.9989171258593901,0
278,186.01111111111112,0.6555555555555657,0.6527777777777715,0.6652777777777743,0.9853862212943836,0.02186282409444748,0.9692883828342826,38.888888888888886,0.9999999999742858,0.9812108559498912,5.905721414601264e-21,0.9992678689199008,0
279,186.6638888888889,0.6527777777777715,0.6805555555555429,0.6638888888888914,0.9832635983263466,0.021240627785904284,0.9417033073148551,33.333333333333336,0.8571428571208165,1.0251046025104373,9.031910589509958e-22,0.998919748200688,0
280,187.34444444444443,0.6805555555555429,0.6527777777777999,0.6638888888888914,1.0251046025104373,0.022939607825520455,1.0170275933244344,36.111111111111114,0.9285714285475513,0.9832635983263894,9.460276449867879e-21,0.997285613022985,0
281,187.99722222222223,0.6527777777777999,0.6499999999999773,0.6638888888888914,0.9832635983263894,0.022044169079209638,0.9773283133691426,36.111111111111114,0.9285714285475513,0.9790794979079118,6.03254783188932e-21,0.9978875914260735,0
282,188.6472222222222,0.6499999999999773,0.6416666666666799,0.6597222222222285,0.985263157894693,0.021424147909153732,0.9498396726221706,36.111111111111114,0.9285714285475513,0.9726315789473792,3.580348287755995e-21,0.9967404312518566,0
283,189.2888888888889,0.6416666666666799,0.6527777777777715,0.6541666666666828,0.980891719745219,0.02110387827850661,0.9356405174252113,33.333333333333336,0.8571428571208165,0.997876857749435,1.8169464421705156e-21,0.9971402414818051,0
284,189.94166666666666,0.6527777777777715,0.6444444444444457,0.6527777777777857,0.9999999999999782,0.02209994765176355,0.9798012565787675,36.111111111111114,0.9285714285475513,0.9872340425531815,5.789219406892349e-21,0.9993377213020026,0
285,190.5861111111111,0.6444444444444457,0.6638888888888914,0.6527777777777715,0.987234042553203,0.02280251007427977,1.0109493640427905,38.888888888888886,0.9999999999742858,1.0170212765957585,1.1427482067844178e-19,0.9993373817514846,0
286,191.25,0.6638888888888914,0.6722222222222172,0.6527777777777715,1.0170212765957585,0.022061563546012887,0.9780994971158146,38.888888888888886,0.9999999999742858,1.0297872340425553,1.675434620563124e-20,0.9992566529933904,0
287,191.92222222222222,0.6722222222222172,0.6527777777777715,0.6527777777777857,1.029787234042533,0.0231056724833524,1.0243900705113014,38.888888888888886,0.9999999999742858,0.9999999999999782,3.904815941481672e-20,0.9990968988502027,0
288,192.575,0.6527777777777715,0.6500000000000057,0.6527777777777715,1.0,0.02165103438693885,0.9598986854097801,38.888888888888886,0.9999999999742858,0.9957446808510821,8.435515993188318e-21,0.9990665657723231,0
289,193.225,0.6500000000000057,0.6500000000000057,0.6527777777777715,0.9957446808510821,0.02206855936667671,0.9784096568494584,36.111111111111114,0.9285714285475513,0.9957446808510821,7.434129043368349e-21,0.9992313155260646,0
290,193.875,0.6500000000000057,0.6861111111111029,0.6513888888888886,0.9978678038379623,0.022436617973847696,0.9947275364880549,36.111111111111114,0.9285714285475513,1.0533049040511606,4.536357676290825e-20,0.9988938048991141,0
291,194.5611111111111,0.6861111111111029,0.6666666666666856,0.6513888888888886,1.0533049040511606,0.02417260188513425,1.0716923892778016,38.888888888888886,0.9999999999742858,1.0234541577825456,3.448198543173505e-19,0.9972959355620659,0
292,195.2277777777778,0.6666666666666856,0.6611111111110972,0.6527777777777715,1.0212765957447199,0.023647416906060894,1.0484083113903453,36.111111111111114,0.9285714285475513,1.012765957446797,2.2302939984022264e-19,0.9954997258336522,0
293,195.88888888888889,0.6611111111110972,0.6555555555555657,0.6569444444444343,1.006342494714582,0.022787183293626986,1.0102698511688446,36.111111111111114,0.9285714285475513,0.9978858350951681,3.35063433475698e-20,0.9966545651039271,0
294,196.54444444444445,0.6555555555555657,0.6527777777777715,0.6583333333333314,0.9957805907173178,0.027220178557385233,1.2068067117207044,41.666666666666664,1.0714285714010205,0.9915611814345924,2.052978529973955e-15,0.9922671399854043,0
295,197.19722222222222,0.6527777777777715,0.6500000000000057,0.6583333333333314,0.9915611814345924,0.02274703922445758,1.0084900637215548,38.888888888888886,0.9999999999742858,0.9873417721519102,4.3284409825642196e-20,0.9988489333492653,0
296,197.84722222222223,0.6500000000000057,0.6638888888888914,0.6541666666666686,0.9936305732484134,0.022958352781195155,1.017858650999954,38.888888888888886,0.9999999999742858,1.0148619957537164,1.125834301962269e-19,0.9991540235583347,0
297,198.51111111111112,0.6638888888888914,0.6777777777777771,0.6541666666666686,1.0148619957537164,0.022416748852081385,0.9938466389049245,38.888888888888886,0.9999999999742858,1.0360934182590193,2.9544665201323644e-20,0.9995712715860295,0
298,199.1888888888889,0.6777777777777771,0.6527777777777715,0.6583333333333314,1.029535864978905,0.022211335080743567,0.984739618632896,36.111111111111114,0.9285714285475513,0.9915611814345924,2.2187340766403768e-21,0.9990858165423613,0
299,199.84166666666667,0.6527777777777715,0.6416666666666515,0.6583333333333314,0.9915611814345924,0.022849274445698575,1.0130226626135046,36.111111111111114,0.9285714285475513,0.9746835443037772,1.5333828293459073e-20,0.9992103872508358,0
300,200.48333333333332,0.6416666666666515,0.6472222222222399,0.6583333333333314,0.9746835443037772,0.021162532305501518,0.9382409439175532,36.111111111111114,0.9285714285475513,0.983122362869228,4.281749383483729e-21,0.9966550955967863,0
301,201.13055555555556,0.6472222222222399,0.6722222222222172,0.6541666666666686,0.9893842887473703,0.02833392649629459,1.256184730494804,41.666666666666664,1.0714285714010205,1.0276008492568895,3.7660599329835884e-14,0.9920191990108504,0
302,201.80277777777778,0.6722222222222172,0.6555555555555657,0.6541666666666686,1.0276008492568895,0.02613717566203716,1.1587917745606242,41.666666666666664,1.0714285714010205,1.0021231422505434,9.291695998006518e-17,0.9937134471757606,0
303,202.45833333333334,0.6555555555555657,0.6583333333333314,0.6541666666666686,1.0021231422505434,0.025561685549575313,1.133277418408121,41.666666666666664,1.0714285714010205,1.0063694267515866,3.3165968787713705e-17,0.9965662572173747,0
304,203.11666666666667,0.6583333333333314,0.6527777777777715,0.6541666666666686,1.0063694267515866,0.024537803405369443,1.0878835999570886,41.666666666666664,1.0714285714010205,0.9978768577494567,3.918906704722571e-18,0.9969965576409832,0
305,203.76944444444445,0.6527777777777715,0.6555555555555657,0.6541666666666686,0.9978768577494567,0.026897198679069187,1.1924873976838466,41.666666666666664,1.0714285714010205,1.0021231422505434,2.1372858367965436e-15,0.9914373138583714,0
306,204.425,0.6555555555555657,0.6555555555555372,0.6555555555555657,1.0,0.029475296843218955,1.3067873888250374,44.44444444444444,1.1428571428277552,0.9999999999999566,1.510903598414548e-12,0.9887786641085954,0
307,205.08055555555555,0.6555555555555372,0.6666666666666856,0.6555555555555515,0.9999999999999784,0.026834188656590364,1.1896938481164618,41.666666666666664,1.0714285714010205,1.0169491525424081,2.7065792217450006e-15,0.9904958082611173,0
308,205.74722222222223,0.6666666666666856,0.6722222222222172,0.6555555555555515,1.0169491525424081,0.02477901483827206,1.0985777096800269,41.666666666666664,1.0714285714010205,1.0254237288135581,6.860862648002651e-18,0.9967151263169814,0
309,206.41944444444445,0.6722222222222172,0.6527777777777715,0.6555555555555657,1.0254237288135357,0.022436997017548057,0.9947443413918386,36.111111111111114,0.9285714285475513,0.9957627118643818,1.4458474103747634e-20,0.9958592308212388,0
310,207.07222222222222,0.6527777777777715,0.6611111111110972,0.6555555555555657,0.9957627118643818,0.02465022118385413,1.0928676425601171,41.666666666666664,1.0714285714010205,1.0084745762711498,7.77010619476584e-18,0.9968031305538224,0
311,207.73333333333332,0.6611111111110972,0.6638888888888914,0.6569444444444485,1.0063424947145603,0.02287695586445069,1.0142499184108749,38.888888888888886,0.9999999999742858,1.0105708245243104,5.284979071988616e-20,0.9990057897390581,0
312,208.3972222222222,0.6638888888888914,0.6861111111111313,0.6569444444444485,1.0105708245243104,0.02297403628021669,1.0185539789840286,36.111111111111114,0.9285714285475513,1.0443974630021384,3.9761848262388056e-20,0.9990651930606026,0
313,209.08333333333334,0.6861111111111313,0.6611111111110972,0.6597222222222143,1.0400000000000431,0.02787877164404893,1.236005438525638,41.666666666666664,1.0714285714010205,1.0021052631578857,1.6700085706198024e-15,0.9920043028561016,0
314,209.74444444444444,0.6611111111110972,0.6611111111111256,0.6611111111110972,1.0,0.021598469184099817,0.957568206957724,36.111111111111114,0.9285714285475513,1.000000000000043,2.9013574050592686e-21,0.9978757722502548,0
315,210.40555555555557,0.6611111111111256,0.6555555555555372,0.6611111111111114,1.0000000000000215,0.021270681163804702,0.9430357239293766,36.111111111111114,0.9285714285475513,0.991596638655434,1.9087469303957793e-21,0.9971097288512775,0
316,211.0611111111111,0.6555555555555372,0.6694444444444514,0.6611111111111114,0.991596638655434,0.028362556573859152,1.2574540450839482,41.666666666666664,1.0714285714010205,1.0126050420168167,1.9240948014010405e-14,0.9921911751941359,0
317,211.73055555555555,0.6694444444444514,0.6750000000000114,0.6625000000000085,1.0104821802934985,0.02826358896725362,1.253066315898311,41.666666666666664,1.0714285714010205,1.0188679245283059,6.304302325538464e-15,0.9928182436452281,0
318,212.40555555555557,0.6750000000000114,0.6777777777777771,0.6625000000000085,1.0188679245283059,0.022576978489337454,1.0009504204341142,36.111111111111114,0.9285714285475513,1.0230607966456882,1.3312302273956042e-20,0.9973359166002647,0
319,213.08333333333334,0.6777777777777771,0.6833333333333371,0.6625000000000085,1.0230607966456882,0.02195618939456898,0.9734277337423197,36.111111111111114,0.9285714285475513,1.0314465408804956,5.555430216127447e-21,0.996930603399028,0
320,213.76666666666668,0.6833333333333371,0.6722222222222172,0.6666666666666714,1.0249999999999984,0.0219762867878515,0.9743187517439211,36.111111111111114,0.9285714285475513,1.0083333333333186,2.3664385245113355e-21,0.9972962952541125,0
321,214.4388888888889,0.6722222222222172,0.6611111111110972,0.6708333333333343,1.0020703933747324,0.022696767706425692,1.0062612757934606,38.888888888888886,0.9999999999742858,0.9855072463767894,1.1165399422720841e-20,0.998998293487817,0
322,215.1,0.6611111111110972,0.6750000000000114,0.6708333333333343,0.9855072463767894,0.022811390674767777,1.0113430854965437,36.111111111111114,0.9285714285475513,1.006211180124239,1.4485414019205294e-20,0.9988249140369179,0
323,215.775,0.6750000000000114,0.6972222222222229,0.6708333333333343,1.006211180124239,0.022971919757567034,1.0184601429449398,38.888888888888886,0.9999999999742858,1.0393374741200823,3.495757357115727e-20,0.9994234444704125,0
324,216.47222222222223,0.6972222222222229,0.674999999999983,0.6736111111111143,1.0350515463917487,0.023136984189321808,1.0257782751051707,38.888888888888886,0.9999999999742858,1.002061855670073,9.127963101123236e-21,0.9989184903072187,0
325,217.1472222222222,0.674999999999983,0.6638888888888914,0.6749999999999972,0.9999999999999789,0.02322811824491711,1.0298187037793205,38.888888888888886,0.9999999999742858,0.9835390946502136,2.057630352977696e-20,0.9990551902579174,0
326,217.8111111111111,0.6638888888888914,0.6666666666666856,0.6749999999999972,0.9835390946502136,0.022390171552573137,0.9926683342380999,38.888888888888886,0.9999999999742858,0.9876543209876866,1.5293928138013326e-20,0.9976707056226147,0
327,218.4777777777778,0.6666666666666856,0.6777777777777771,0.6749999999999972,0.9876543209876866,0.02253248957995793,0.9989780044808847,38.888888888888886,0.9999999999742858,1.0041152263374518,1.5484719285003243e-20,0.9987860703289152,0
328,219.15555555555557,0.6777777777777771,0.6666666666666572,0.6749999999999972,1.0041152263374518,0.022181661125764213,0.9834240237349094,38.888888888888886,0.9999999999742858,0.9876543209876445,3.070399921949506e-21,0.999367219005753,0
329,219.82222222222222,0.6666666666666572,0.6777777777777771,0.6736111111111001,0.9896907216494867,0.02321700553451425,1.0293260217246711,38.888888888888886,0.9999999999742858,1.0061855670103248,6.666582659984139e-20,0.9980234720431823,0
330,220.5,0.6777777777777771,0.6805555555555429,0.6736111111111001,1.0061855670103248,0.026107743313034913,1.1574868912644793,44.44444444444444,1.1428571428277552,1.0103092783505132,1.2352302645633143e-16,0.9945749504300483,0
331,221.18055555555554,0.6805555555555429,0.6750000000000114,0.6749999999999972,1.0082304526748826,0.023775617257391524,1.0540920744158007,38.888888888888886,0.9999999999742858,1.000000000000021,7.239020078204391e-20,0.9981165431089176,0
332,221.85555555555555,0.6750000000000114,0.6555555555555657,0.6750000000000114,1.0,0.02282481276974118,1.0119381541242203,36.111111111111114,0.9285714285475513,0.9711934156378587,6.965944008869768e-21,0.99716187611148,0
333,222.51111111111112,0.6555555555555657,0.6805555555555429,0.6749999999999972,0.9711934156378792,0.028083483660880437,1.2450813465091701,41.666666666666664,1.0714285714010205,1.0082304526748826,6.928070093390739e-15,0.9930920082417638,0
334,223.19166666666666,0.6805555555555429,0.6888888888888971,0.6749999999999972,1.0082304526748826,0.02321459925301379,1.0292193392259166,38.888888888888886,0.9999999999742858,1.0205761316872592,2.954827119180649e-20,0.9990943482052981,0
335,223.88055555555556,0.6888888888888971,0.674999999999983,0.6763888888888943,1.0184804928131457,0.02232233356917575,0.9896607370064737,38.888888888888886,0.9999999999742858,0.9979466119096178,2.501383872992377e-21,0.9995402160435887,0
336,224.55555555555554,0.674999999999983,0.6583333333333599,0.6763888888888943,0.9979466119096178,0.02267552267023025,1.0053193770392934,38.888888888888886,0.9999999999742858,0.9733059548254935,7.229936601102793e-21,0.9988793699204497,0
337,225.2138888888889,0.6583333333333599,0.674999999999983,0.6763888888888943,0.9733059548254935,0.028939770041431067,1.283044806191295,41.666666666666664,1.0714285714010205,0.9979466119096178,2.7895742627740555e-14,0.9927673201968239,0
338,225.88888888888889,0.674999999999983,0.6805555555555713,0.6749999999999972,0.9999999999999789,0.028241130518669222,1.2520706205016279,41.666666666666664,1.0714285714010205,1.0082304526749248,4.597798175715907e-15,0.9921049707962399,0
339,226.56944444444446,0.6805555555555713,0.6888888888888687,0.6763888888888943,1.0061601642710627,0.02248423881956681,0.9968388068498745,38.888888888888886,0.9999999999742858,1.0184804928131037,8.493021201632092e-21,0.9990196929285902,0
340,227.25833333333333,0.6888888888888687,0.6888888888888971,0.6777777777777771,1.016393442622922,0.02261519415239236,1.0026447119895605,38.888888888888886,0.9999999999742858,1.016393442622964,5.6949668612946194e-21,0.9994532937634764,0
341,227.94722222222222,0.6888888888888971,0.6694444444444514,0.6777777777777771,1.016393442622964,0.02287782401048791,1.014288407668477,38.888888888888886,0.9999999999742858,0.987704918032798,6.444756003372788e-21,0.9988679543364982,0
342,228.61666666666667,0.6694444444444514,0.6666666666666572,0.6777777777777629,0.9877049180328188,0.022849778784824307,1.0130450224904113,38.888888888888886,0.9999999999742858,0.9836065573770567,1.2413686860690818e-20,0.9993420196821567,0
343,229.28333333333333,0.6666666666666572,0.6722222222222172,0.6777777777777629,0.9836065573770567,0.02883823295356682,1.2785431590450493,41.666666666666664,1.0714285714010205,0.9918032786885389,1.3000665709174842e-14,0.9929538382348151,0
344,229.95555555555555,0.6722222222222172,0.7055555555555486,0.674999999999983,0.9958847736625691,0.023291112653093235,1.0326115610865403,38.888888888888886,0.9999999999742858,1.0452674897119503,8.345389010895697e-20,0.9990247697646688,0
345,230.6611111111111,0.7055555555555486,0.6777777777778056,0.674999999999983,1.0452674897119503,0.023832001162082863,1.0565918550278595,38.888888888888886,0.9999999999742858,1.004115226337515,2.2814675269978195e-20,0.9984857643925849,0
346,231.3388888888889,0.6777777777778056,0.674999999999983,0.6763888888888943,1.0020533880903821,0.02419878864777985,1.0728533794914523,38.888888888888886,0.9999999999742858,0.9979466119096178,1.4937315389422658e-19,0.9982598049477773,0
347,232.01388888888889,0.674999999999983,0.6638888888888914,0.6763888888888943,0.9979466119096178,0.02868153578008693,1.2715959893097541,41.666666666666664,1.0714285714010205,0.9815195071868542,7.389027540868898e-15,0.9923301008691063,0
348,232.67777777777778,0.6638888888888914,0.6555555555555657,0.6763888888888943,0.9815195071868542,0.023029934503822153,1.0210322269234433,38.888888888888886,0.9999999999742858,0.9691991786447711,3.6902701706272784e-20,0.9971954292966045,0
349,233.33333333333334,0.6555555555555657,0.6583333333333314,0.6736111111111001,0.9731958762886908,0.021963566153749732,0.9737547823864464,38.888888888888886,0.9999999999742858,0.9773195876288792,6.266901670357517e-21,0.998911135290449,0
350,233.99166666666667,0.6583333333333314,0.669444444444423,0.6708333333333343,0.9813664596273249,0.028435741400628035,1.260698694635185,41.666666666666664,1.0714285714010205,0.9979296066252253,1.7492238330008535e-14,0.9917348100915055,0
351,234.6611111111111,0.669444444444423,0.6888888888888971,0.6694444444444372,0.9999999999999788,0.02883919385914458,1.2785857607972064,41.666666666666664,1.0714285714010205,1.0290456431535504,2.854991633730042e-14,0.9915558118385255,0
352,235.35,0.6888888888888971,0.6638888888888914,0.6708333333333201,1.0269151138716681,0.028652277079373036,1.2702988047110817,41.666666666666664,1.0714285714010205,0.9896480331263173,2.6912595721027225e-15,0.9931815915279031,0
353,236.01388888888889,0.6638888888888914,0.6611111111111256,0.6708333333333201,0.9896480331263173,0.022299747700633237,0.9886593924455008,36.111111111111114,0.9285714285475513,0.9855072463768527,4.642532608701828e-21,0.9982454314562512,0
354,236.675,0.6611111111111256,0.6722222222222172,0.6666666666666572,0.9916666666667026,0.022667104410968114,1.0049461534854092,38.888888888888886,0.9999999999742858,1.0083333333333402,2.9575784640696684e-20,0.9990105415848662,0
355,237.34722222222223,0.6722222222222172,0.6916666666666629,0.6666666666666572,1.0083333333333402,0.02952775021799857,1.3091129093796874,41.666666666666664,1.0714285714010205,1.037500000000009,1.049374210573481e-13,0.9912303313393671,0
356,238.0388888888889,0.6916666666666629,0.6666666666666572,0.6666666666666572,1.037500000000009,0.023079835691369077,1.023244596248189,38.888888888888886,0.9999999999742858,1.0,1.5118632087224574e-20,0.9982489078479369,0
357,238.70555555555555,0.6666666666666572,0.6666666666666856,0.6652777777777743,1.002087682672225,0.02281396621356946,1.011457272018341,38.888888888888886,0.9999999999742858,1.0020876826722676,4.156321822315554e-20,0.9977041622063079,0
358,239.37222222222223,0.6666666666666856,0.6666666666666572,0.6666666666666714,1.0000000000000213,0.022221915850963822,0.9852087171176859,38.888888888888886,0.9999999999742858,0.9999999999999787,8.460749848632587e-21,0.9992844383856101,0
359,240.0388888888889,0.6666666666666572,0.6750000000000114,0.6666666666666714,0.9999999999999787,0.021775933640708182,0.9654360942632882,38.888888888888886,0.9999999999742858,1.01250000000001,8.006902342153737e-21,0.9979450161767196,0
360,240.7138888888889,0.6750000000000114,0.6611111111110972,0.6680555555555543,1.0103950103950292,0.027356365900759464,1.212844578066399,41.666666666666664,1.0714285714010205,0.9896049896049707,6.27165322882831e-16,0.9927324053638038,0
361,241.375,0.6611111111110972,0.6777777777777771,0.6666666666666714,0.9916666666666388,0.022077791788411,0.9788189762993983,36.111111111111114,0.9285714285475513,1.0166666666666584,6.3288364148256416e-21,0.9984672210141015,0
362,242.05277777777778,0.6777777777777771,0.6722222222222172,0.6666666666666714,1.0166666666666584,0.02472592623471023,1.0962240262550915,41.666666666666664,1.0714285714010205,1.0083333333333186,2.9860477718564533e-18,0.995791387199588,0
363,242.725,0.6722222222222172,0.6805555555555713,0.6694444444444514,1.004149377593343,0.022626237836900397,1.003134333780921,36.111111111111114,0.9285714285475513,1.016597510373457,1.1610577688639223e-20,0.997630562165821,0
364,243.40555555555557,0.6805555555555713,0.6527777777777715,0.6722222222222172,1.0123966942149072,0.027991373403598648,1.2409976379298293,38.888888888888886,0.9999999999742858,0.9710743801652871,5.522040187815687e-16,0.9911727260503018,0
365,244.05833333333334,0.6527777777777715,0.6666666666666572,0.6694444444444514,0.9751037344398145,0.02271368932042643,1.0070114956094762,36.111111111111114,0.9285714285475513,0.9958506224066145,2.450478782277016e-20,0.997524920273821,0
366,244.725,0.6666666666666572,0.6777777777777771,0.6666666666666714,0.9999999999999787,0.028875762636053227,1.2802070376495875,41.666666666666664,1.0714285714010205,1.0166666666666584,2.945961617012438e-14,0.9918537904215474,0
367,245.40277777777777,0.6777777777777771,0.6666666666666856,0.6694444444444514,1.0124481327800716,0.02177157330553073,0.9652427787879174,36.111111111111114,0.9285714285475513,0.995850622406657,1.5100237617963248e-21,0.9976131310190397,0
368,246.06944444444446,0.6666666666666856,0.6472222222222115,0.6694444444444514,0.995850622406657,0.022549965784276163,0.9997528120605698,36.111111111111114,0.9285714285475513,0.966804979253086,6.1955205879175224e-21,0.9974558448739124,0
369,246.71666666666667,0.6472222222222115,0.46388888888887436,0.6694444444444514,0.966804979253086,0.022680645330008926,1.0055464901785307,36.111111111111114,0.9285714285475513,0.6929460580912574,9.991276521874164e-22,0.9973217324626695,0
370,247.18055555555554,0.46388888888887436,0.8527777777777885,0.6666666666666714,0.6958333333333065,0.033256238533537354,1.4744154519136572,97.22222222222223,2.499999999935715,1.2791666666666737,0.9976601600646973,0.40947091550581616,1
371,248.03333333333333,0.8527777777777885,0.6694444444444514,0.6694444444444514,1.2738589211618285,0.02159058795072468,0.9572187924484217,36.111111111111114,0.9285714285475513,1.0,6.479204027924773e-25,0.9974710784162043,0
372,248.70277777777778,0.6694444444444514,0.6611111111110972,0.6680555555555685,1.0020790020789931,0.02312456690363188,1.0252277547005977,38.888888888888886,0.9999999999742858,0.9896049896049496,3.51269388015775e-20,0.9984925602744581,0
373,249.36388888888888,0.6611111111110972,0.6666666666666856,0.6666666666666714,0.9916666666666388,0.023339193183687455,1.0347432115789084,38.888888888888886,0.9999999999742858,1.0000000000000213,9.444379880263942e-20,0.9984462769131075,0
374,250.03055555555557,0.6666666666666856,0.6555555555555372,0.6666666666666714,1.0000000000000213,0.023265639509854105,1.0314822091917761,36.111111111111114,0.9285714285475513,0.9833333333332989,3.4300792164790164e-20,0.9968656681193826,0
375,250.6861111111111,0.6555555555555372,0.6416666666666799,0.6666666666666714,0.9833333333332989,0.021764644269703218,0.9649355799602254,38.888888888888886,0.9999999999742858,0.962500000000013,3.5733075590264905e-21,0.9992951091320927,0
376,251.32777777777778,0.6416666666666799,0.6638888888888914,0.6638888888888914,0.966527196652736,0.023067125063989887,1.0226810705387948,36.111111111111114,0.9285714285475513,1.0,6.541057355794364e-20,0.9984624069651242,0
377,251.99166666666667,0.6638888888888914,0.6777777777777771,0.6624999999999943,1.0020964360587126,0.029379962412399,1.3025607365005845,41.666666666666664,1.0714285714010205,1.0230607966457101,6.696896590876675e-14,0.9927973528110188,0
378,252.66944444444445,0.6777777777777771,0.6527777777777715,0.6624999999999943,1.0230607966457101,0.023139097993364385,1.025871990614805,36.111111111111114,0.9285714285475513,0.9853249475890975,2.2468165757088037e-20,0.9962974131688905,0
379,253.32222222222222,0.6527777777777715,0.63611111111112,0.6624999999999943,0.9853249475890975,0.02241247827752078,0.9936573029668161,36.111111111111114,0.9285714285475513,0.9601677148847176,1.0985672624217388e-20,0.9971424462806695,0
380,253.95833333333334,0.63611111111112,0.6472222222222115,0.6624999999999943,0.9601677148847176,0.022693040226423877,1.006096017954519,38.888888888888886,0.9999999999742858,0.9769392033542899,7.667747789690625e-20,0.9985301833245959,0
381,254.60555555555555,0.6472222222222115,0.6694444444444514,0.6583333333333172,0.9831223628692061,0.023062329629127586,1.0224684649173716,38.888888888888886,0.9999999999742858,1.016877637130837,1.584546664418697e-19,0.9989224697312087,0
382,255.275,0.6694444444444514,0.6666666666666572,0.6583333333333172,1.016877637130837,0.022999609660395798,1.019687774883878,38.888888888888886,0.9999999999742858,1.0126582278481115,9.957156250568953e-20,0.9966130469132012,0
383,255.94166666666666,0.6666666666666572,0.6666666666666856,0.6597222222222143,1.0105263157894715,0.028625161954225292,1.2690966555426457,41.666666666666664,1.0714285714010205,1.0105263157895146,2.0545111090370695e-14,0.991671107370315,0
384,256.60833333333335,0.6666666666666856,0.6611111111110972,0.6597222222222143,1.0105263157895146,0.023362540411166872,1.0357783109910166,38.888888888888886,0.9999999999742858,1.0021052631578857,1.0509553925980401e-19,0.9979686322171357,0
385,257.26944444444445,0.6611111111110972,0.6527777777777715,0.6624999999999943,0.9979035639412874,0.022954755462430466,1.0176991638599167,36.111111111111114,0.9285714285475513,0.9853249475890975,4.558753268258271e-20,0.99565188333844,0
386,257.9222222222222,0.6527777777777715,0.6555555555555657,0.6624999999999943,0.9853249475890975,0.022518928778500823,0.998376786300767,38.888888888888886,0.9999999999742858,0.9895178197065227,4.440901679837059e-20,0.997553688857864,0
387,258.5777777777778,0.6555555555555657,0.6777777777777487,0.6583333333333314,0.9957805907173178,0.023378220466794636,1.0364734863122163,38.888888888888886,0.9999999999742858,1.0295358649788617,2.1894935731819897e-19,0.9989875097838474,0
388,259.25555555555553,0.6777777777777487,0.6750000000000114,0.6583333333333314,1.0295358649788617,0.023786334216015066,1.0545672108139275,41.666666666666664,1.0714285714010205,1.0253164556962227,1.2412184235409327e-18,0.9951656701542755,0
389,259.93055555555554,0.6750000000000114,0.6555555555555657,0.6638888888888772,1.0167364016736753,0.02217854377010243,0.9832858157607212,36.111111111111114,0.9285714285475513,0.9874476987448024,3.455212986300341e-21,0.9975008421102717,0
390,260.5861111111111,0.6555555555555657,0.6388888888889142,0.6638888888888772,0.9874476987448024,0.02245494254852123,0.995539956570415,38.888888888888886,0.9999999999742858,0.9623430962343646,1.2562698116604704e-20,0.9991313901708121,0
391,261.225,0.6388888888889142,0.6472222222221831,0.6638888888888772,0.9623430962343646,0.022607192379548013,1.0022899533624683,38.888888888888886,0.9999999999742858,0.9748953974894979,1.0715283437845142e-19,0.996529000306804,0
392,261.8722222222222,0.6472222222221831,0.6555555555555657,0.6583333333333314,0.9831223628691417,0.028745806375882556,1.2744454263995564,41.666666666666664,1.0714285714010205,0.9957805907173178,4.912102286882235e-14,0.9924270704133853,0
393,262.52777777777777,0.6555555555555657,0.6583333333333599,0.6555555555555657,1.0,0.021914785577527133,0.9715920953686912,36.111111111111114,0.9285714285475513,1.0042372881356183,1.009187004502403e-20,0.9970968902363214,0
394,263.18611111111113,0.6583333333333599,0.6611111111110972,0.6555555555555657,1.0042372881356183,0.023266576029851042,1.0315237298091218,38.888888888888886,0.9999999999742858,1.0084745762711498,1.2373837434681076e-19,0.9987750622921415,0
395,263.84722222222223,0.6611111111110972,0.6388888888888573,0.6555555555555657,1.0084745762711498,0.023540259081036657,1.0436574688424167,38.888888888888886,0.9999999999742858,0.9745762711863775,9.364200875748265e-20,0.9988284172871624,0
396,264.4861111111111,0.6388888888888573,0.6583333333333599,0.6555555555555657,0.9745762711863775,0.021953684407328734,0.973316675124246,36.111111111111114,0.9285714285475513,1.0042372881356183,2.061480135559049e-20,0.997526191061902,0
397,265.14444444444445,0.6583333333333599,0.6388888888889142,0.6569444444444628,1.002114164904875,0.02218436558834535,0.9835439260929204,36.111111111111114,0.9285714285475513,0.9725158562367978,1.818126022726649e-20,0.9947329568209913,0
398,265.78333333333336,0.6388888888889142,0.6777777777777487,0.6555555555555657,0.9745762711864642,0.022169311548598417,0.9828765051879911,36.111111111111114,0.9285714285475513,1.0338983050846855,7.643100392375959e-20,0.9963045102613095,0
399,266.4611111111111,0.6777777777777487,0.6666666666666856,0.6555555555555657,1.0338983050846855,0.0231059624240048,1.0244029250311415,38.888888888888886,0.9999999999742858,1.0169491525423862,1.6234170446253001e-19,0.994927971191131,0
400,267.1277777777778,0.6666666666666856,0.6611111111110972,0.6569444444444628,1.0147991543340387,0.02253753548166109,0.9992017145505749,38.888888888888886,0.9999999999742858,1.0063424947145385,1.8435054425716817e-20,0.9994225802175081,0
401,267.7888888888889,0.6611111111110972,0.6444444444444457,0.6583333333333599,1.0042194092826389,0.021052976774380363,0.9333837990614161,36.111111111111114,0.9285714285475513,0.9789029535864604,2.4230654593994475e-21,0.9949489945681882,0
402,268.43333333333334,0.6444444444444457,0.6499999999999773,0.6583333333333599,0.9789029535864604,0.02344764922011188,1.0395516103338134,38.888888888888886,0.9999999999742858,0.9873417721518244,1.887238416933875e-19,0.9991260564610291,0
403,269.0833333333333,0.6499999999999773,0.6500000000000341,0.6583333333333599,0.9873417721518244,0.0225778432934528,1.0009887615275983,38.888888888888886,0.9999999999742858,0.9873417721519108,5.142288800736085e-20,0.9979266755669888,0
404,269.73333333333335,0.6500000000000341,0.658333333333303,0.654166666666697,0.9936305732484138,0.028049664887462442,1.243581991071183,41.666666666666664,1.0714285714010205,1.0063694267514993,1.7426701696813575e-14,0.9917986076151422,0
405,270.39166666666665,0.658333333333303,0.6583333333333599,0.6541666666666686,1.006369426751543,0.021796579502907407,0.9663514286362336,36.111111111111114,0.9285714285475513,1.00636942675163,8.724096206012055e-21,0.9967530363292916,0
406,271.05,0.6583333333333599,0.6527777777777715,0.6583333333333314,1.000000000000043,0.023210179457629803,1.0290233875820807,38.888888888888886,0.9999999999742858,0.9915611814345924,1.0883525512089893e-19,0.9978392584643625,0
407,271.7027777777778,0.6527777777777715,0.6416666666666515,0.6555555555555372,0.995762711864425,0.023536823288420005,1.0435051429647184,38.888888888888886,0.9999999999742858,0.9788135593220382,1.5954217630282965e-19,0.9986124709313338,0
408,272.34444444444443,0.6416666666666515,0.6277777777777942,0.6555555555555372,0.9788135593220382,0.023304137129147934,1.033189001278063,38.888888888888886,0.9999999999742858,0.9576271186441196,2.3832094498721347e-19,0.9968775735234192,0
409,272.97222222222223,0.6277777777777942,0.6472222222222399,0.6513888888889028,0.9637526652452072,0.02366276897639368,1.0490889454823427,38.888888888888886,0.9999999999742858,0.9936034115138652,1.4987379462021664e-18,0.9972733229744473,0
410,273.61944444444447,0.6472222222222399,0.6611111111110972,0.6500000000000057,0.9957264957265142,0.024472635459310287,1.0849943788402086,41.666666666666664,1.0714285714010205,1.0170940170939868,1.0180625477850507e-17,0.9967125575955609,0
411,274.28055555555557,0.6611111111110972,0.6388888888888573,0.6500000000000057,1.0170940170939868,0.022461055975893353,0.9958109953943795,38.888888888888886,0.9999999999742858,0.9829059829059257,3.214011562544496e-20,0.9974520802201283,0
412,274.9194444444444,0.6388888888888573,0.6305555555555884,0.6500000000000057,0.9829059829059257,0.02432531391364676,1.078462877597004,41.666666666666664,1.0714285714010205,0.9700854700855122,1.4161924348226422e-17,0.9937430947389896,0
413,275.55,0.6305555555555884,0.6305555555555316,0.648611111111137,0.9721627408993694,0.022361602300144456,0.9914017163315682,36.111111111111114,0.9285714285475513,0.9721627408992818,5.475002491972507e-20,0.9966528033623541,0
414,276.18055555555554,0.6305555555555316,0.6500000000000341,0.6444444444444457,0.9784482758620298,0.02962021741316351,1.3132124428013285,41.666666666666664,1.0714285714010205,1.0086206896552234,8.61945063934666e-13,0.9918140082194074,0
415,276.8305555555556,0.6500000000000341,0.6277777777777374,0.6444444444444457,1.0086206896552234,0.022539642974173036,0.9992951502384767,36.111111111111114,0.9285714285475513,0.9741379310344181,2.4371106065376214e-20,0.9975610488538202,0
416,277.4583333333333,0.6277777777777374,0.6472222222222399,0.6402777777777544,0.9804772234273046,0.022662369962222942,1.0047362516837024,38.888888888888886,0.9999999999742858,1.01084598698488,3.482077276124263e-19,0.9981719650640448,0
417,278.10555555555555,0.6472222222222399,0.6444444444444457,0.6402777777777544,1.01084598698488,0.0228241431241056,1.0119084653826205,38.888888888888886,0.9999999999742858,1.0065075921909281,2.022819652432881e-19,0.9975437314968386,0
418,278.75,0.6444444444444457,0.63611111111112,0.6416666666666515,1.00432900432903,0.021232329834702825,0.9413354176192625,36.111111111111114,0.9285714285475513,0.9913419913420285,1.3844717398343225e-20,0.9946127835133804,0
419,279.3861111111111,0.63611111111112,0.6194444444444116,0.6416666666666515,0.9913419913420285,0.02328550589454511,1.0323629854266632,38.888888888888886,0.9999999999742858,0.965367965367937,2.6924041344716866e-19,0.9983886317939403,0
420,280.00555555555553,0.6194444444444116,0.6388888888889142,0.6374999999999886,0.9716775599128198,0.022658290924064812,1.0045554075126688,38.888888888888886,0.9999999999742858,1.0021786492375302,6.294989218135737e-19,0.9972954657001489,0
421,280.64444444444445,0.6388888888889142,0.6527777777777715,0.6374999999999886,1.0021786492375302,0.024825374557602885,1.1006330679990026,38.888888888888886,0.9999999999742858,1.0239651416122089,1.0483538190986813e-17,0.9979802137945967,0
422,281.2972222222222,0.6527777777777715,0.6305555555555884,0.637500000000017,1.0239651416121631,0.024108661148441114,1.0688575764924642,38.888888888888886,0.9999999999742858,0.9891067538126612,9.445104955769633e-19,0.9977584787328801,0
423,281.9277777777778,0.6305555555555884,0.625,0.637500000000017,0.9891067538126612,0.02459950875012096,1.0906193066328616,38.888888888888886,0.9999999999742858,0.9803921568627189,6.623851000678138e-18,0.9971455067156885,0
424,282.5527777777778,0.625,0.6194444444444116,0.637500000000017,0.9803921568627189,0.022701494901386177,1.0064708559985975,38.888888888888886,0.9999999999742858,0.9716775599127765,1.5821970837381342e-19,0.9991957359433976,0
425,283.1722222222222,0.6194444444444116,0.61388888888888,0.6333333333333542,0.9780701754385125,0.02125600614959174,0.9423851071228239,36.111111111111114,0.9285714285475513,0.9692982456139893,1.5068080365805074e-20,0.9973072924058204,0
426,283.7861111111111,0.61388888888888,0.61388888888888,0.6333333333333542,0.9692982456139893,0.02172593845462888,0.9632195575132801,36.111111111111114,0.9285714285475513,0.9692982456139893,4.323853038221391e-20,0.9972457752854784,0
427,284.4,0.61388888888888,0.6222222222222626,0.6277777777777942,0.9778761061946506,0.021387994379802714,0.9482368057717119,36.111111111111114,0.9285714285475513,0.9911504424779146,8.425068475869575e-20,0.9950359711554937,0
428,285.02222222222224,0.6222222222222626,0.6194444444444116,0.6236111111111313,0.9977728285078276,0.02135956301222209,0.9469763009904019,36.111111111111114,0.9285714285475513,0.9933184855233005,1.9692554749317817e-20,0.99840306926513,0
429,285.64166666666665,0.6194444444444116,0.6083333333333485,0.6208333333333371,0.9977628635346166,0.02353914775645136,1.0436081982630334,36.111111111111114,0.9285714285475513,0.979865771812099,1.707347623411635e-18,0.9959179998588681,0
430,286.25,0.6083333333333485,0.6111111111110858,0.6208333333333371,0.979865771812099,0.023397326744401228,1.0373205631968525,36.111111111111114,0.9285714285475513,0.9843400447426826,2.138709801751274e-18,0.9962495755509765,0
431,286.8611111111111,0.6111111111110858,0.6000000000000227,0.6194444444444116,0.9865470852018052,0.02020280363425563,0.8956913699149942,36.111111111111114,0.9285714285475513,0.9686098654709401,5.267445751059333e-21,0.9971003876065772,0
432,287.4611111111111,0.6000000000000227,0.625,0.6166666666666458,0.9729729729730427,0.026316758376030938,1.1667535748147932,38.888888888888886,0.9999999999742858,1.0135135135135478,7.97041825037004e-15,0.9920721994912676,0
433,288.0861111111111,0.625,0.6333333333333258,0.6166666666666458,1.0135135135135478,0.02259532701821975,1.0017639025264038,36.111111111111114,0.9285714285475513,1.0270270270270494,2.562669385692811e-19,0.9986723191640454,0
434,288.71944444444443,0.6333333333333258,0.6055555555555543,0.6166666666666458,1.0270270270270494,0.02058892484259736,0.912810055039787,36.111111111111114,0.9285714285475513,0.9819819819820131,3.512410829291892e-21,0.9980688086409267,0
435,289.325,0.6055555555555543,0.6027777777778169,0.61388888888888,0.986425339366528,0.02076855421442857,0.9207739238693418,36.111111111111114,0.9285714285475513,0.9819004524887657,1.9589309037939274e-20,0.9977220225054498,0
436,289.9277777777778,0.6027777777778169,0.6166666666666174,0.612499999999983,0.9841269841270754,0.021355425854454126,0.9467928800862627,36.111111111111114,0.9285714285475513,1.006802721088383,5.357649150623387e-20,0.9993237204897918,0
437,290.5444444444444,0.6166666666666174,0.6305555555555884,0.6138888888888516,1.0045248868778087,0.027607270220308126,1.2239684219527531,41.666666666666664,1.0714285714010205,1.0271493212670841,9.756127519354105e-14,0.991882566551178,0
438,291.175,0.6305555555555884,0.6166666666666742,0.6138888888888516,1.0271493212670841,0.021012965450689296,0.9316098968853738,38.888888888888886,0.9999999999742858,1.0045248868779013,2.864583006820821e-20,0.9982130338481245,0
439,291.7916666666667,0.6166666666666742,0.6305555555555316,0.6138888888888516,1.0045248868779013,0.021566272700221545,0.9561407757321649,36.111111111111114,0.9285714285475513,1.0271493212669915,2.4945541641763664e-19,0.9950627060563949,0
440,292.4222222222222,0.6305555555555316,0.6472222222222399,0.6166666666666458,1.022522522522518,0.029605121411863427,1.3125431615307932,38.888888888888886,0.9999999999742858,1.0495495495496137,2.352802468911369e-13,0.9938167382046381,0
441,293.06944444444446,0.6472222222222399,0.6222222222222058,0.6208333333333371,1.0425055928411855,0.019279440103068455,0.8547540445243612,36.111111111111114,0.9285714285475513,1.0022371364652918,1.6519962074904283e-21,0.992790363333016,0
442,293.69166666666666,0.6222222222222058,0.6305555555555316,0.6236111111111029,0.9977728285077819,0.02079650120107803,0.9220129536203714,36.111111111111114,0.9285714285475513,1.0111358574609994,1.2827786884708075e-20,0.997790970626927,0
443,294.3222222222222,0.6305555555555316,0.625,0.6263888888888687,1.0066518847006594,0.02830904475512167,1.2550815984127173,38.888888888888886,0.9999999999742858,0.9977827050998105,1.8043509394938262e-14,0.9938318920258175,0
444,294.9472222222222,0.625,0.6527777777778283,0.6236111111111029,1.0022271714922182,0.02118147561795257,0.9390807957414476,38.888888888888886,0.9999999999742858,1.0467706013363978,7.817668459602179e-20,0.9986759004808635,0
445,295.6,0.6527777777778283,0.6388888888888573,0.6277777777777658,1.0398230088496578,0.020967079354896955,0.9295755366676361,38.888888888888886,0.9999999999742858,1.017699115044217,3.0361819480123734e-20,0.9946938387858701,0
446,296.2388888888889,0.6388888888888573,0.63611111111112,0.6305555555555316,1.0132158590308256,0.020172925052245747,0.8943667028768921,33.333333333333336,0.8571428571208165,1.0088105726872771,8.174107027704975e-22,0.9972729617488956,0
447,296.875,0.63611111111112,0.375,0.63055555555556,1.0088105726872316,0.020821468202391207,0.923119865711075,38.888888888888886,0.9999999999742858,0.594713656387661,1.9703505047450047e-22,0.9973801874713892,0
448,297.25,0.375,0.8722222222222058,0.6305555555555316,0.5947136563876878,0.04108846525752659,1.8216572511657056,102.77777777777777,2.642857142789184,1.3832599118942996,0.999738872051239,0.38351869377973513,1
449,298.1222222222222,0.8722222222222058,0.5055555555555884,0.6333333333333258,1.3771929824561309,0.021595095745723457,0.9574186455554876,36.111111111111114,0.9285714285475513,0.7982456140351492,6.242549084365413e-26,0.9982161384975152,0
450,298.6277777777778,0.5055555555555884,0.34444444444443434,0.6333333333333258,0.7982456140351492,0.02117013969816889,0.9385782176981172,36.111111111111114,0.9285714285475513,0.5438596491227976,4.601192674314099e-19,0.9899907075558503,0
451,298.97222222222223,0.34444444444443434,0.32222222222219443,0.6277777777777658,0.5486725663716758,0.0447485925221661,1.9839290062685202,105.55555555555556,2.7142857142159187,0.5132743362831513,0.9986090064048767,0.3483014947637362,1
452,299.2944444444444,0.32222222222219443,0.2944444444444798,0.6277777777777658,0.5132743362831513,0.047820380819605816,2.120116751199003,116.66666666666667,2.9999999999228577,0.46902654867263166,0.9988538026809692,0.3462027347266034,1
453,299.5888888888889,0.2944444444444798,0.3555555555555543,0.5652777777777942,0.5208845208845683,0.0473100676992857,2.0974920172214824,116.66666666666667,2.9999999999228577,0.6289926289926084,0.9993234872817993,0.3981574774578461,1
454,299.94444444444446,0.3555555555555543,0.34722222222222854,0.4402777777777942,0.8075709779179481,0.04493253684428995,1.992084178434419,127.77777777777777,3.2857142856297963,0.7886435331230133,0.9996312856674194,0.25665544479200864,1
455,300.2916666666667,0.34722222222222854,0.3361111111111086,0.36527777777777715,0.9505703422053421,0.04486725528559979,1.9891899203011452,122.22222222222223,3.1428571427763274,0.9201520912547475,0.9997468590736389,0.30569145585742064,1
456,300.6277777777778,0.3361111111111086,0.3083333333333371,0.3513888888888914,0.9565217391304207,0.04528601029574972,2.0077554251434524,122.22222222222223,3.1428571427763274,0.8774703557312298,0.9996803998947144,0.2785485135288831,1
457,300.93611111111113,0.3083333333333371,0.3555555555555543,0.34583333333333144,0.8915662650602568,0.04450635459576815,1.9731893869528696,125.0,3.214285714203062,1.0281124497991987,0.9998620748519897,0.34948101555769967,1
458,301.2916666666667,0.3555555555555543,0.5916666666666401,0.34583333333333144,1.0281124497991987,0.04586409190212339,2.0333846751876172,158.33333333333334,4.071428571323879,1.7108433734939086,0.999882698059082,0.3211787861590947,1
459,301.8833333333333,0.5916666666666401,0.6500000000000341,0.34583333333333144,1.7108433734939086,0.023771853364565255,1.0539252022141594,38.888888888888886,0.9999999999742858,1.8795180722892655,1.7510224173400424e-11,0.9985665856186925,0
460,302.53333333333336,0.6500000000000341,0.669444444444423,0.34583333333333144,1.8795180722892655,0.0244895845824832,1.0857458182754691,44.44444444444444,1.1428571428277552,1.9357429718874988,5.409084985474877e-11,0.9970326872396451,0
461,303.2027777777778,0.669444444444423,0.29722222222221717,0.3513888888888914,1.905138339920874,0.03349823978712431,1.485144578339403,52.77777777777778,1.3571428571079593,0.8458498023715211,0.9922736287117004,0.33353772590336683,1
462,303.5,0.29722222222221717,0.34444444444443434,0.3513888888888914,0.8458498023715211,0.05068479534065638,2.247110579026638,102.77777777777777,2.642857142789184,0.9802371541501618,0.9999483823776245,0.25385637436169517,1
463,303.84444444444443,0.34444444444443434,0.30000000000001137,0.3513888888888914,0.9802371541501618,0.046135058894330006,2.045397997736561,136.11111111111111,3.499999999910001,0.8537549407114887,0.9998037219047546,0.31523316741794916,1
464,304.14444444444445,0.30000000000001137,0.30000000000001137,0.34583333333333144,0.8674698795181099,0.045090459444879806,1.9990856774849282,111.11111111111111,2.8571428570693884,0.8674698795181099,0.9997358918190002,0.278613280785312,1
465,304.44444444444446,0.30000000000001137,0.29722222222221717,0.34027777777777146,0.8816326530612743,0.043624166913351886,1.9340775929617744,105.55555555555556,2.7142857142159187,0.8734693877551034,0.9996805191040039,0.2787554745096653,1
466,304.7416666666667,0.29722222222221717,0.2638888888888573,0.32638888888888573,0.9106382978723337,0.044357588033397906,1.9665938208889095,119.44444444444444,3.071428571349592,0.8085106382977834,0.9996528625488281,0.2922684353847862,1
467,305.00555555555553,0.2638888888888573,0.2888888888888914,0.32222222222222285,0.8189655172412798,0.046561684265982506,2.0643124350836626,69.44444444444444,1.7857142856683677,0.8965517241379372,0.9999264478683472,0.3644816451171733,1
468,305.2944444444444,0.2888888888888914,0.3194444444444571,0.30000000000001137,0.9629629629629349,0.04533580274020372,2.0099629733427924,122.22222222222223,3.1428571427763274,1.0648148148148167,0.9998341798782349,0.3561883975362554,1
469,305.6138888888889,0.3194444444444571,0.28333333333335986,0.30000000000001137,1.0648148148148167,0.044452597169402495,1.9708060512665835,119.44444444444444,3.071428571349592,0.944444444444497,0.9995729327201843,0.2670002989430765,1
470,305.89722222222224,0.28333333333335986,0.48611111111108585,0.29861111111111427,0.9488372093024043,0.047311910939419506,2.097573737279273,116.66666666666667,2.9999999999228577,1.6279069767440841,0.999942421913147,0.37571002622219357,1
471,306.3833333333333,0.48611111111108585,0.61388888888888,0.29861111111111427,1.6279069767440841,0.022016562387536676,0.9761043705970884,38.888888888888886,0.9999999999742858,2.055813953488321,4.237258460770832e-11,0.9972122940121977,0
472,306.9972222222222,0.61388888888888,0.6444444444444457,0.30000000000001137,2.0462962962961893,0.023070304461479823,1.0228220291376517,36.111111111111114,0.9285714285475513,2.148148148148071,3.963933781908624e-12,0.9979460253800496,0
473,307.64166666666665,0.6444444444444457,0.6194444444444684,0.30000000000001137,2.148148148148071,0.020581775389046385,0.9124930839915528,38.888888888888886,0.9999999999742858,2.0648148148148167,9.845557257925214e-14,0.9975016664478831,0
474,308.2611111111111,0.6194444444444684,0.6222222222222058,0.3097222222222342,2.0,0.021414088306275867,0.9493936800933318,38.888888888888886,0.9999999999742858,2.00896860986534,3.9119787053829014e-13,0.9994396567061237,0
475,308.8833333333333,0.6222222222222058,0.6305555555555884,0.40277777777777146,1.54482758620688,0.026501549715944015,1.174946299517345,38.888888888888886,0.9999999999742858,1.5655172413794165,1.2901045509661202e-10,0.9923676820417815,0
476,309.5138888888889,0.6305555555555884,0.6555555555555088,0.549999999999983,1.1464646464647417,0.020970484261342143,0.9297264932068143,36.111111111111114,0.9285714285475513,1.1919191919191439,1.5538403759122332e-18,0.998829400829722,0
477,310.1694444444444,0.6555555555555088,0.63611111111112,0.6166666666666742,1.0630630630629743,0.02296879405077197,1.0183215647232284,38.888888888888886,0.9999999999742858,1.0315315315315332,2.426518041805997e-19,0.999212178353176,0
478,310.80555555555554,0.63611111111112,0.6388888888889142,0.6208333333333371,1.0246085011185762,0.022542745512866794,0.9994327013023356,38.888888888888886,0.9999999999742858,1.0290827740492514,2.852828834939928e-19,0.9990325076263262,0
479,311.44444444444446,0.6388888888889142,0.6333333333333258,0.6263888888888971,1.0199556541020225,0.02166937819773502,0.9607119583257047,36.111111111111114,0.9285714285475513,1.0110864745010832,2.8334571050992456e-20,0.9972553005617909,0
480,312.0777777777778,0.6333333333333258,0.6444444444444457,0.6319444444444571,1.0021978021977702,0.021614033476687593,0.9582582499241401,33.333333333333336,0.8571428571208165,1.0197802197802015,7.542101962700661e-21,0.9988762908765199,0
481,312.72222222222223,0.6444444444444457,0.6388888888888573,0.6347222222222229,1.0153172866520797,0.027731787365131474,1.2294888900048022,38.888888888888886,0.9999999999742858,1.0065645514222687,6.04041895170028e-15,0.991788775990778,0
482,313.3611111111111,0.6388888888888573,0.6583333333333599,0.6374999999999886,1.0021786492374412,0.020713385877291258,0.9183280354490501,36.111111111111114,0.9285714285475513,1.0326797385621516,2.2140595772168502e-20,0.993852588659689,0
483,314.01944444444445,0.6583333333333599,0.6611111111110972,0.6374999999999886,1.0326797385621516,0.019907501613243676,0.8825991537786961,36.111111111111114,0.9285714285475513,1.0370370370370336,1.000783124128677e-21,0.9967547323470672,0
484,314.68055555555554,0.6611111111110972,0.6444444444444457,0.6388888888888857,1.0347826086956355,0.022133213719538615,0.9812761078101386,36.111111111111114,0.9285714285475513,1.00869565217392,9.550126520525751e-21,0.9987351671769441,0
485,315.325,0.6444444444444457,0.6444444444444457,0.6416666666666799,1.0043290043289856,0.02791808286854741,1.237748301801524,50.0,1.2857142856812247,1.0043290043289856,3.500829183836207e-12,0.9864052549164908,0
486,315.96944444444443,0.6444444444444457,0.33333333333337123,0.6444444444444457,1.0,0.02101763693686747,0.9318170072414518,36.111111111111114,0.9285714285475513,0.5172413793104026,2.1774616755618932e-23,0.9983655227091621,0
487,316.3027777777778,0.33333333333337123,0.9611111111111086,0.6416666666666799,0.5194805194805678,0.04468940294455612,1.9813048361377825,94.44444444444444,2.42857142850898,1.4978354978354629,0.9997460246086121,0.3937363447815813,1
488,317.2638888888889,0.9611111111111086,0.6555555555555088,0.6444444444444457,1.4913793103448207,0.023679876326100045,1.0498473998915183,38.888888888888886,0.9999999999742858,1.0172413793102704,1.1829980001823886e-24,0.9981020987079505,0
489,317.9194444444444,0.6555555555555088,0.6444444444444457,0.6444444444444457,1.0172413793102704,0.02133649236775831,0.9459534638872611,36.111111111111114,0.9285714285475513,1.0,3.2369201034269535e-21,0.9980587592976078,0
490,318.56388888888887,0.6444444444444457,0.6277777777777942,0.6444444444444457,1.0,0.021266169423908,0.9428356959252473,36.111111111111114,0.9285714285475513,0.9741379310345063,2.0407838181390307e-21,0.9993649587501313,0
491,319.19166666666666,0.6277777777777942,0.6388888888889142,0.6444444444444457,0.9741379310345063,0.02208070191037418,0.978947996566833,38.888888888888886,0.9999999999742858,0.9913793103448648,5.674368529234272e-20,0.9993640970428634,0
492,319.8305555555556,0.6388888888889142,0.6388888888888573,0.6444444444444457,0.9913793103448648,0.022106161224955387,0.9800767353679998,38.888888888888886,0.9999999999742858,0.9913793103447767,3.3831024662693936e-20,0.9994328589083901,0
493,320.46944444444443,0.6388888888888573,0.6444444444444457,0.6444444444444457,0.9913793103447767,0.020976795671004998,0.930006309576332,36.111111111111114,0.9285714285475513,1.0,2.151858664768417e-20,0.9931000529885889,0
494,321.1138888888889,0.6444444444444457,0.6500000000000341,0.6444444444444457,1.0,0.024493592555936108,1.0859235117925476,38.888888888888886,0.9999999999742858,1.0086206896552234,3.410903740408541e-17,0.9909791011500837,0
495,321.7638888888889,0.6500000000000341,0.6388888888888573,0.6444444444444457,1.0086206896552234,0.021594232686669528,0.9573803818293075,36.111111111111114,0.9285714285475513,0.9913793103447767,6.598645524637463e-21,0.9975910779562678,0
496,322.40277777777777,0.6388888888888573,0.63611111111112,0.6416666666666799,0.9956709956709259,0.027487516807290866,1.218659153967019,38.888888888888886,0.9999999999742858,0.9913419913419846,1.4936492171005239e-15,0.9942956221888282,0
497,323.0388888888889,0.63611111111112,0.625,0.6416666666666799,0.9913419913419846,0.02063901948888401,0.9150310013584363,33.333333333333336,0.8571428571208165,0.9740259740259539,1.2296747634713793e-21,0.9965090574782044,0
498,323.6638888888889,0.625,0.6472222222222399,0.6388888888888857,0.9782608695652222,0.02249789723158647,0.997444352594625,38.888888888888886,0.9999999999742858,1.0130434782609024,2.273415182228557e-19,0.9991982673951789,0
499,324.31111111111113,0.6472222222222399,0.6638888888888914,0.6388888888888857,1.0130434782609024,0.021917377347097887,0.9717070014816921,36.111111111111114,0.9285714285475513,1.0391304347826178,2.780190551059952e-20,0.9981064189653381,0
500,324.975,0.6638888888888914,0.6416666666666515,0.6388888888888857,1.0391304347826178,0.022353867115846696,0.9910587769086231,36.111111111111114,0.9285714285475513,1.0043478260869378,1.1501034418612767e-20,0.9986790224321767,0
501,325.6166666666667,0.6416666666666515,0.63611111111112,0.6402777777777828,1.0021691973969316,0.0285525188906431,1.2658760250641892,38.888888888888886,0.9999999999742858,0.9934924078091166,9.019513448290696e-15,0.9943740980290141,0
502,326.2527777777778,0.63611111111112,0.6444444444444457,0.6402777777777544,0.9934924078091607,0.02151619425234531,0.953920547570098,36.111111111111114,0.9285714285475513,1.0065075921909281,2.081869329864914e-20,0.99677103493767,0
503,326.89722222222224,0.6444444444444457,0.6611111111110972,0.6430555555555486,1.0021598272138357,0.02243741477106604,0.9947628624955221,36.111111111111114,0.9285714285475513,1.028077753779687,4.8352681148073843e-20,0.9985839078616872,0
504,327.55833333333334,0.6611111111110972,0.6472222222222399,0.6430555555555486,1.028077753779687,0.021504185530851712,0.953388140860601,36.111111111111114,0.9285714285475513,1.006479481641507,3.47135754852933e-21,0.9982973071737193,0
505,328.2055555555556,0.6472222222222399,0.658333333333303,0.6430555555555486,1.006479481641507,0.023791935516690538,1.0548155444990013,38.888888888888886,0.9999999999742858,1.0237580993520157,8.716287491782583e-19,0.9987149830852706,0
506,328.8638888888889,0.658333333333303,0.6527777777777715,0.6458333333333428,1.0193548387096156,0.022247213336795857,0.9863302812406911,38.888888888888886,0.9999999999742858,1.0107526881720184,2.5365734206421544e-20,0.9991277116104269,0
507,329.51666666666665,0.6527777777777715,0.6472222222222399,0.6472222222222399,1.0085836909870871,0.021522649226898612,0.9542067288895368,36.111111111111114,0.9285714285475513,1.0,7.63752904014473e-21,0.9966745835697334,0
508,330.1638888888889,0.6472222222222399,0.6333333333333258,0.6472222222222399,1.0,0.021523105478929907,0.954226956824943,36.111111111111114,0.9285714285475513,0.9785407725321504,5.258170665323655e-21,0.9975178047758426,0
509,330.7972222222222,0.6333333333333258,0.6638888888888914,0.6472222222222399,0.9785407725321504,0.023142095651159347,1.0260048917836484,36.111111111111114,0.9285714285475513,1.0257510729613493,6.434984883919392e-19,0.9956599208554884,0
510,331.4611111111111,0.6638888888888914,0.6583333333333599,0.6472222222222399,1.0257510729613493,0.022478465782467993,0.9965828592298698,38.888888888888886,0.9999999999742858,1.0171673819742622,4.064224631513151e-20,0.9983447757010209,0
