beat_index,peak_time_s,rr_prev_s,rr_next_s,rr_baseline_s,prematurity_index,aa_ratio,morph_index,qrs_width_ms,width_index,pause_index,pvc_score,morphology_score,is_pvc_candidate
0,0.14166666666666666,,0.6805555555555556,0.8583333333333485,,0.03484891053967995,0.8653362705207466,58.333333333333336,0.7241379310254934,0.7928802588996624,0.7028560638427734,0.3523932209302889,1
1,0.8222222222222222,0.6805555555555556,1.5000000000000002,0.8583333333333485,0.7928802588996624,0.03855229924907391,0.9572954314944212,227.77777777777777,2.8275862068614503,1.74757281553395,0.9935868978500366,0.47640935742550145,1
2,2.3222222222222224,1.5000000000000002,0.6749999999999998,0.8583333333333485,1.74757281553395,0.03223476097483571,0.8004240996667961,52.77777777777778,0.6551724137849703,0.7864077669902771,7.727047659500386e-07,0.3473373199659493,0
3,2.9972222222222222,0.6749999999999998,1.4166666666666665,0.8583333333333485,0.7864077669902771,0.0447052291832127,1.1100793595865395,227.77777777777777,2.8275862068614503,1.6504854368931745,0.9937717318534851,0.7679289996238048,1
4,4.413888888888889,1.4166666666666665,0.6500000000000004,0.8583333333333485,1.6504854368931745,0.03159920478954096,0.7846425498113667,52.77777777777778,0.6551724137849703,0.7572815533980453,1.7694910638965666e-06,0.372526398206076,0
5,5.063888888888889,0.6500000000000004,1.4444444444444446,0.6805555555555556,0.955102040816327,0.046541050089717935,1.1556647851271866,230.55555555555554,2.8620689654817117,2.122448979591837,0.9948122501373291,0.6859072695107763,1
6,6.508333333333334,1.4444444444444446,0.6999999999999993,1.0486111111111112,1.3774834437086094,0.03175039121242321,0.78839667277545,50.0,0.6206896551647086,0.6675496688741714,8.570092191462209e-09,0.34680495251631016,0
7,7.208333333333333,0.6999999999999993,1.436111111111111,0.6999999999999993,1.0,0.043657000780068164,1.0840507106852144,227.77777777777777,2.8275862068614503,2.051587301587303,0.9936042428016663,0.7352153666198061,1
8,8.644444444444444,1.436111111111111,0.6861111111111118,1.058333333333333,1.3569553805774281,0.032114462635597966,0.7974369613427069,52.77777777777778,0.6551724137849703,0.6482939632545941,4.005606513146631e-08,0.3371922935144265,0
9,9.330555555555556,0.6861111111111118,1.386111111111111,0.6999999999999993,0.9801587301587321,0.043277167434224814,1.074619036471547,225.0,2.793103448241189,1.980158730158732,0.9939287900924683,0.7313843900853684,1
10,10.716666666666667,1.386111111111111,0.6527777777777768,1.0430555555555552,1.3288948069241016,0.028188978753263715,0.6999629361831353,50.0,0.6206896551647086,0.6258322237017303,2.124947551251921e-09,0.31884523349995736,0
11,11.369444444444444,0.6527777777777768,1.5138888888888893,1.0430555555555552,0.6258322237017303,0.04308991257605238,1.0699692951138273,227.77777777777777,2.8275862068614503,1.451398135818909,0.9904049634933472,0.7474325781560015,1
12,12.883333333333333,1.5138888888888893,0.7027777777777775,1.0430555555555552,1.451398135818909,0.03329019251941629,0.8266316103876088,55.55555555555556,0.6896551724052319,0.673768308921438,6.880121361518832e-08,0.29902487471006456,0
13,13.58611111111111,0.7027777777777775,1.43888888888889,1.0444444444444443,0.6728723404255318,0.04387831629612904,1.0895462151446274,227.77777777777777,2.8275862068614503,1.3776595744680864,0.988440990447998,0.7364622246462742,1
14,15.025,1.43888888888889,0.6666666666666661,1.0444444444444443,1.3776595744680864,0.032152090877263784,0.7983713114215214,52.77777777777778,0.6551724137849703,0.638297872340425,7.495786036315621e-08,0.28726082970124533,0
15,15.691666666666666,0.6666666666666661,1.4222222222222207,1.0444444444444443,0.638297872340425,0.04763670795904553,1.1828711591494419,230.55555555555554,2.8620689654817117,1.3617021276595733,0.9870579838752747,0.721190127019708,1
16,17.113888888888887,1.4222222222222207,0.68888888888889,1.0444444444444443,1.3617021276595733,0.033269377476536376,0.8261147502821565,55.55555555555556,0.6896551724052319,0.6595744680851076,4.0054237615549937e-07,0.3328318742951275,0
17,17.802777777777777,0.68888888888889,1.4750000000000014,1.0444444444444443,0.6595744680851076,0.05117013263365109,1.2706099286759007,230.55555555555554,2.8620689654817117,1.412234042553193,0.9878178834915161,0.713380613535394,1
18,19.27777777777778,1.4750000000000014,0.7027777777777757,1.0444444444444443,1.412234042553193,0.03328749284098146,0.8265645744420879,52.77777777777778,0.6551724137849703,0.67287234042553,4.9932221912740715e-08,0.34208667355083777,0
19,19.980555555555554,0.7027777777777757,1.4111111111111114,1.0444444444444443,0.67287234042553,0.04486328216569543,1.1140039866778384,227.77777777777777,2.8275862068614503,1.3510638297872346,0.98723304271698,0.7157970663351116,1
20,21.391666666666666,1.4111111111111114,0.658333333333335,1.0569444444444445,1.3350854139290411,0.03246879362279707,0.8062353843133098,52.77777777777778,0.6551724137849703,0.6228646517739832,1.1246005726661679e-07,0.3325990040328618,0
21,22.05,0.658333333333335,1.3888888888888893,1.0569444444444445,0.6228646517739832,0.049849412249507306,1.2378150081484882,230.55555555555554,2.8620689654817117,1.3140604467805523,0.9835600852966309,0.7002562299652099,1
22,23.43888888888889,1.3888888888888893,0.7861111111111114,1.0458333333333334,1.3280212483399738,0.033572373845138434,0.8336384789590945,52.77777777777778,0.6551724137849703,0.7516600265604252,2.3774575197421655e-07,0.315566774906918,0
23,24.225,0.7861111111111114,1.375,1.0875000000000004,0.7228607918263091,0.03467434835379412,0.8610017019913689,152.77777777777777,1.8965517241143874,1.2643678160919536,0.8951274156570435,0.7704485699943608,1
24,25.6,1.375,0.6388888888888857,1.0805555555555557,1.2724935732647813,0.03362802950117908,0.835020469302143,55.55555555555556,0.6896551724052319,0.5912596401028247,8.644272497804195e-07,0.3398652417988815,0
25,26.238888888888887,0.6388888888888857,1.3972222222222257,1.0805555555555557,0.5912596401028247,0.043523757967169736,1.0807421470313827,222.22222222222223,2.7586206896209275,1.2930591259640134,0.9755374789237976,0.4280641561207865,1
26,27.636111111111113,1.3972222222222257,0.6888888888888864,1.0805555555555557,1.2930591259640134,0.033942221019772345,0.8428221857035545,58.333333333333336,0.7241379310254934,0.6375321336760902,1.1157600283695501e-06,0.2889678333421901,0
27,28.325,0.6888888888888864,1.3694444444444436,1.0805555555555557,0.6375321336760902,0.04618303203865048,1.1467748083591305,227.77777777777777,2.8275862068614503,1.2673521850899734,0.9822065830230713,0.744794375033546,1
28,29.694444444444443,1.3694444444444436,0.6972222222222229,1.0777777777777775,1.2706185567010304,0.03219821957423538,0.7995167370311954,52.77777777777778,0.6551724137849703,0.6469072164948461,1.2928849457694014e-07,0.34454825423823787,0
29,30.391666666666666,0.6972222222222229,1.4166666666666679,1.0777777777777775,0.6469072164948461,0.043824549732068674,1.088211133005697,225.0,2.793103448241189,1.314432989690723,0.9848707318305969,0.7199500844321269,1
30,31.808333333333334,1.4166666666666679,0.7666666666666693,1.0777777777777775,1.314432989690723,0.03398205400833697,0.8438112820406971,52.77777777777778,0.6551724137849703,0.7113402061855696,1.3650743824200617e-07,0.30777217566749027,0
31,32.575,0.7666666666666693,1.30833333333333,1.0777777777777775,0.7113402061855696,0.034596500021142965,0.8590686434021799,161.11111111111111,1.9999999999751723,1.2139175257731931,0.9098427295684814,0.7584648458859901,1
32,33.88333333333333,1.30833333333333,0.6694444444444443,1.0472222222222207,1.2493368700265237,0.03370927897503461,0.8370379819187242,52.77777777777778,0.6551724137849703,0.639257294429709,2.2430338049161946e-06,0.32772602465987005,0
33,34.55277777777778,0.6694444444444443,1.3833333333333329,1.0374999999999996,0.6452476572958501,0.04553286965078146,1.1306305706415458,222.22222222222223,2.7586206896209275,1.3333333333333333,0.9863390922546387,0.7350434893246662,1
34,35.93611111111111,1.3833333333333329,0.7361111111111143,1.0374999999999996,1.3333333333333333,0.03461933032605864,0.8596355446511613,58.333333333333336,0.7241379310254934,0.7095046854083031,2.08044684768538e-06,0.3221610358533784,0
35,36.672222222222224,0.7361111111111143,0.3999999999999986,1.0374999999999996,0.7095046854083031,0.04452483149747035,1.1055998892624064,225.0,2.793103448241189,0.38554216867469754,0.7571070194244385,0.7346808456118673,1
36,37.07222222222222,0.3999999999999986,1.0305555555555515,0.7513888888888918,0.5323475046210682,0.050255417448585187,1.247896557882505,130.55555555555554,1.6206896551522947,1.371534195933446,0.9815040826797485,0.30493383233942595,1
37,38.102777777777774,1.0305555555555515,0.7972222222222243,0.8986111111111104,1.1468315301390999,0.042097245054064474,1.0453202831923207,83.33333333333333,1.0344827586078478,0.8871715610510077,7.461073892045533e-07,0.9985472862650842,0
38,38.9,0.7972222222222243,0.3361111111111157,0.7819444444444468,1.0195381882770866,0.046139444673381505,1.145692486773762,227.77777777777777,2.8275862068614503,0.4298401420959193,0.1497979462146759,0.7755825295736323,0
39,39.236111111111114,0.3361111111111157,0.38333333333333286,0.7819444444444468,0.4298401420959193,0.045511987229174225,1.1301120374491673,133.33333333333334,1.6551724137725565,0.4902309058614544,0.9781246185302734,0.18542379443212087,1
40,39.61944444444445,0.38333333333333286,0.7194444444444414,0.7513888888888918,0.5101663585951915,0.04530561536152063,1.1249875999981767,130.55555555555554,1.6206896551522947,0.9574861367837262,0.9817294478416443,0.2703584371037261,1
41,40.33888888888889,0.7194444444444414,0.68888888888889,0.7277777777777779,0.9885496183206065,0.04006665414609238,0.9948985071297041,80.55555555555556,0.9999999999875862,0.9465648854961847,8.432758477283642e-06,0.9996349768086874,0
42,41.02777777777778,0.68888888888889,0.34166666666666856,0.7041666666666657,0.9783037475345197,0.03696839369616517,0.9179653375894614,208.33333333333334,2.5862068965196197,0.48520710059171934,0.11547975242137909,0.7856248153847296,0
43,41.36944444444445,0.34166666666666856,0.34444444444444144,0.7041666666666657,0.48520710059171934,0.03442780148510333,0.8548796756623527,147.22222222222223,1.8275862068738644,0.4891518737672548,0.03275837376713753,0.9441562865777273,0
44,41.71388888888889,0.34444444444444144,0.34444444444444144,0.5444444444444443,0.6326530612244845,0.03809879611092685,0.9460344563833972,127.77777777777777,1.586206896532033,0.6326530612244845,0.03786500170826912,0.9556541490690258,0
45,42.05833333333333,0.34444444444444144,0.24166666666666714,0.3916666666666657,0.8794326241134697,0.03568697434437293,0.8861463043490841,161.11111111111111,1.9999999999751723,0.6170212765957473,0.09184436500072479,0.8946659731323847,0
46,42.3,0.24166666666666714,0.375,0.36388888888888715,0.6641221374045846,0.03441320584853573,0.85451725016561,200.0,2.4827586206588346,1.030534351145043,0.1415732502937317,0.35435409872133616,0
47,42.675,0.375,0.36666666666666714,0.3597222222222207,1.0424710424710468,0.042473651896852385,1.0546668736163085,202.77777777777777,2.517241379279096,1.0193050193050248,0.41271400451660156,0.3947119444722259,0
48,43.041666666666664,0.36666666666666714,0.3972222222222257,0.3555555555555543,1.031250000000005,0.037456987205428456,0.9300976446991809,63.888888888888886,0.7931034482660165,1.1171875000000138,0.7637499570846558,0.2734486659808816,1
49,43.43888888888889,0.3972222222222257,0.40833333333333144,0.37083333333333357,1.0711610486891472,0.04222369773167122,1.0484602404174683,122.22222222222223,1.51724137929151,1.1011235955056122,0.21421268582344055,0.9699522139523644,0
50,43.84722222222222,0.40833333333333144,0.3527777777777814,0.37083333333333357,1.1011235955056122,0.04472333273355717,1.1105288903895305,166.66666666666666,2.0689655172156955,0.9513108614232302,0.5044415593147278,0.9242522768727028,1
51,44.2,0.3527777777777814,0.3583333333333272,0.3597222222222243,0.9806949806949852,0.03281741204122322,0.8148919580013807,183.33333333333334,2.2758620689372653,0.9961389961389734,0.1980317234992981,0.8931152821538446,0
52,44.55833333333333,0.3583333333333272,0.32777777777778283,0.3555555555555543,1.0078124999999862,0.03239672527847321,0.8044458491073583,183.33333333333334,2.2758620689372653,0.9218750000000175,0.1608787328004837,0.843325043783217,0
53,44.88611111111111,0.32777777777778283,0.32222222222222285,0.3555555555555543,0.9218750000000175,0.035711719982010316,0.8867607653882725,158.33333333333334,1.965517241354911,0.906250000000005,0.1218600794672966,0.8935002495895941,0
54,45.208333333333336,0.32222222222222285,0.32222222222222285,0.3555555555555543,0.906250000000005,0.03864290885911782,0.9595453664511957,177.77777777777777,2.2068965516967416,0.906250000000005,0.22107703983783722,0.9165580537895819,0
55,45.53055555555556,0.32222222222222285,0.29999999999999716,0.3555555555555543,0.906250000000005,0.040703357213486245,1.0107085353123753,166.66666666666666,2.0689655172156955,0.843749999999995,0.16924762725830078,0.940040897066335,0
56,45.830555555555556,0.29999999999999716,0.31666666666667,0.3555555555555543,0.843749999999995,0.04328843191148773,1.0748987456674186,130.55555555555554,1.6206896551522947,0.8906250000000125,0.07568874210119247,0.9597626374812513,0
57,46.147222222222226,0.31666666666667,0.30833333333333,0.3402777777777821,0.930612244897957,0.04303854797414315,1.0686938563019797,158.33333333333334,1.965517241354911,0.9061224489795705,0.17120791971683502,0.9474131546394461,0
58,46.455555555555556,0.30833333333333,0.2888888888888914,0.32500000000000284,0.9487179487179302,0.038645810851083595,0.9596174260612625,163.88888888888889,2.0344827585954337,0.8888888888888888,0.1185624897480011,0.9257480422904947,0
59,46.74444444444445,0.2888888888888914,0.3333333333333286,0.32222222222222285,0.8965517241379372,0.03841652120112096,0.9539239152026734,152.77777777777777,1.8965517241143874,1.0344827586206728,0.15370887517929077,0.9166080599227076,0
60,47.077777777777776,0.3333333333333286,0.3555555555555543,0.32222222222222285,1.0344827586206728,0.03458852382904599,0.8588705858957825,166.66666666666666,2.0689655172156955,1.103448275862063,0.18881797790527344,0.8713548550976467,0
61,47.43333333333333,0.3555555555555543,0.44166666666667,0.32222222222222285,1.103448275862063,0.04128405444201288,1.0251278777323574,180.55555555555554,2.2413793103170034,1.3706896551724215,0.44914132356643677,0.848180752859649,0
62,47.875,0.44166666666667,0.43333333333333,0.32222222222222285,1.3706896551724215,0.03815318725843061,0.947385047607093,208.33333333333334,2.5862068965196197,1.3448275862068837,0.5404340624809265,0.8743413574882566,1
63,48.30833333333333,0.43333333333333,0.4222222222222243,0.32222222222222285,1.3448275862068837,0.03445756101639422,0.855618637122579,86.11111111111111,1.0689655172281094,1.3103448275862106,0.2728922367095947,0.8217332472892003,0
64,48.730555555555554,0.4222222222222243,0.3527777777777814,0.3277777777777757,1.2881355932203533,0.03913228032287939,0.9716969910154282,130.55555555555554,1.6206896551522947,1.0762711864406957,0.15214724838733673,0.17033044248820917,0
65,49.083333333333336,0.3527777777777814,0.3555555555555543,0.343055555555555,1.028340080971672,0.04725410291633658,1.1733706606944554,138.88888888888889,1.7241379310130795,1.0364372469635608,0.4128850996494293,0.1334010098225089,0
66,49.43888888888889,0.3555555555555543,0.34722222222222143,0.35416666666666785,1.003921568627444,0.04568995815324557,1.134531248647224,158.33333333333334,1.965517241354911,0.9803921568627396,0.44094812870025635,0.13699060221559767,0
67,49.78611111111111,0.34722222222222143,0.43055555555555713,0.35416666666666785,0.9803921568627396,0.04332901764324199,1.0759065334349187,175.0,2.17241379307648,1.2156862745098043,0.49516943097114563,0.1351794610598172,0
68,50.21666666666667,0.43055555555555713,0.46944444444444144,0.3555555555555543,1.2109375000000087,0.042933176173185005,1.0660773601232727,200.0,2.4827586206588346,1.3203124999999962,0.2936069369316101,0.1638151625170975,0
69,50.68611111111111,0.46944444444444144,1.6083333333333343,0.3888888888888893,1.2071428571428482,0.04622554993961898,1.1478305739852197,105.55555555555556,1.3103448275699405,4.135714285714284,0.4418254792690277,0.3158087404620855,0
70,52.294444444444444,1.6083333333333343,0.6777777777777771,0.4263888888888907,3.771986970684025,0.031440965380213806,0.78071329353919,50.0,0.6206896551647086,1.5895765472312622,0.00017105470760725439,0.4272076183870838,0
71,52.97222222222222,0.6777777777777771,1.4166666666666643,0.4319444444444436,1.5691318327974293,0.03465965316547121,0.8606368045164977,197.22222222222223,2.448275862038573,3.279742765273313,0.8893536925315857,0.9485024779276661,1
72,54.388888888888886,1.4166666666666643,0.7000000000000028,0.4319444444444436,3.279742765273313,0.035973017206950494,0.893249059071649,61.111111111111114,0.758620689645755,1.620578778135058,0.7159982323646545,0.2872304130606186,1
73,55.08888888888889,0.7000000000000028,0.375,0.4499999999999993,1.5555555555555642,0.04228647108406361,1.0500189708858272,172.22222222222223,2.137931034456219,0.8333333333333347,0.28465956449508667,0.9253343602936012,0
74,55.46388888888889,0.375,0.32222222222222285,0.4499999999999993,0.8333333333333347,0.047294764005270475,1.1743803196625113,158.33333333333334,1.965517241354911,0.7160493827160519,0.18699803948402405,0.9310707305881665,0
75,55.78611111111111,0.32222222222222285,0.30555555555555713,0.4499999999999993,0.7160493827160519,0.04102758465865239,1.0187594546626682,150.0,1.8620689654941258,0.6790123456790169,0.13481372594833374,0.9147559660029619,0
76,56.09166666666667,0.30555555555555713,0.3166666666666629,0.4499999999999993,0.6790123456790169,0.03773388307362994,0.9369732696240763,175.0,2.17241379307648,0.7037037037036964,0.11193789541721344,0.8759003932981833,0
77,56.40833333333333,0.3166666666666629,0.2749999999999986,0.4499999999999993,0.7037037037036964,0.03383073983788844,0.8400539869658975,169.44444444444446,2.1034482758359574,0.6111111111111089,0.10300424695014954,0.8578866388179449,0
78,56.68333333333333,0.2749999999999986,0.23333333333333428,0.4222222222222207,0.6513157894736832,0.035219262322421174,0.8745325072321668,102.77777777777777,1.2758620689496787,0.5526315789473726,0.11546985805034637,0.8333309012405483,0
79,56.916666666666664,0.23333333333333428,0.3305555555555557,0.3486111111111114,0.6693227091633487,0.03528291353190767,0.8761130358449182,166.66666666666666,2.0689655172156955,0.9482071713147406,0.23703370988368988,0.2114298261259937,0
80,57.24722222222222,0.3305555555555557,0.30555555555555713,0.3263888888888893,1.0127659574468078,0.03588976657805756,0.8911818556036182,155.55555555555554,1.9310344827346488,0.9361702127659611,0.09264159202575684,0.23964538372153166,0
81,57.55277777777778,0.30555555555555713,0.2944444444444443,0.31944444444444287,0.9565217391304445,0.040030749649431964,0.9940069595101687,138.88888888888889,1.7241379310130795,0.9217391304347867,0.14509491622447968,0.21650061172202534,0
82,57.84722222222222,0.2944444444444443,0.31666666666667,0.31111111111111,0.9464285714285743,0.04015240330189757,0.9970277517326387,144.44444444444446,1.7931034482536028,1.0178571428571572,0.1293688267469406,0.22952723718877188,0
83,58.16388888888889,0.31666666666667,0.30277777777777715,0.31111111111111,1.0178571428571572,0.034210460269425154,0.8494828573947844,52.77777777777778,0.6551724137849703,0.9732142857142871,0.6994802951812744,0.2840975419559053,1
84,58.46666666666667,0.30277777777777715,0.375,0.30555555555555713,0.9909090909090837,0.041256818691126226,1.0244515844786486,147.22222222222223,1.8275862068738644,1.2272727272727209,0.1429114043712616,0.32036659699997116,0
85,58.84166666666667,0.375,0.34166666666666146,0.30555555555555713,1.2272727272727209,0.04289476276356525,1.0651235134720123,80.55555555555556,0.9999999999875862,1.1181818181817953,0.18479837477207184,0.9496100636144862,0
86,59.18333333333333,0.34166666666666146,0.34444444444444855,0.31111111111111,1.098214285714273,0.03940708934412022,0.9785207972654177,188.88888888888889,2.344827586177788,1.1071428571428743,0.34838414192199707,0.8767412387945416,0
87,59.52777777777778,0.34444444444444855,0.48611111111110716,0.31111111111111356,1.1071428571428616,0.036288574961935834,0.9010847006054638,186.11111111111111,2.3103448275575267,1.5624999999999751,0.39600908756256104,0.8668307334993561,0
88,60.013888888888886,0.48611111111110716,1.4250000000000043,0.32361111111111285,1.5021459227467608,0.04989097675357782,1.2388470998948706,122.22222222222223,1.51724137929151,4.40343347639484,0.0010208095191046596,0.9704365737547085,0
89,61.43888888888889,1.4250000000000043,0.7361111111111072,0.3361111111111086,4.239669421487648,0.03477785276740193,0.8635718289154758,55.55555555555556,0.6896551724052319,2.190082644628104,0.0012000947026535869,0.36844736395469513,0
90,62.175,0.7361111111111072,0.7833333333333385,0.343055555555555,2.145748987854243,0.029600079746260954,0.7350021053192264,194.44444444444446,2.4137931034183113,2.283400809716618,0.3181951344013214,0.8764487537365401,0
91,62.958333333333336,0.7833333333333385,0.5999999999999943,0.3597222222222243,2.1776061776061795,0.04854761401637804,1.2054899451671386,97.22222222222223,1.2068965517091557,1.6679536679536426,0.8275797963142395,0.306145536693408,1
92,63.55833333333333,0.5999999999999943,0.81388888888889,0.4305555555555536,1.3935483870967673,0.04087566257476822,1.014987064437488,80.55555555555556,0.9999999999875862,1.8903225806451724,0.0019835340790450573,0.9916702805731139,0
93,64.37222222222222,0.81388888888889,0.9111111111111114,0.5430555555555507,1.4987212276214987,0.04083501797253747,1.0139778148521643,80.55555555555556,0.9999999999875862,1.6777493606138263,0.0008607751806266606,0.9987158076288014,0
94,65.28333333333333,0.9111111111111114,0.6666666666666714,0.6680555555555507,1.3638253638253741,0.03954843692118821,0.9820306110097495,77.77777777777777,0.9655172413673244,0.9979209979210122,2.0177223632344976e-05,0.9973436392924291,0
95,65.95,0.6666666666666714,1.2111111111111086,0.7013888888888893,0.9504950495049567,0.03884909820933591,0.9646652717961751,116.66666666666667,1.4482758620509868,1.726732673267322,0.9729746580123901,0.22672810050191283,1
96,67.16111111111111,1.2111111111111086,0.99444444444444,0.7597222222222229,1.5941499085923172,0.033668543007378204,0.8360264636307219,55.55555555555556,0.6896551724052319,1.3089579524680004,0.3667748272418976,0.3149033507873553,0
97,68.15555555555555,0.99444444444444,0.9166666666666714,0.7986111111111143,1.2452173913043374,0.03989135368545895,0.9905456064370876,80.55555555555556,0.9999999999875862,1.147826086956523,3.3080818866437767e-06,0.9977020673228336,0
98,69.07222222222222,0.9166666666666714,0.8861111111111057,0.8625000000000007,1.0628019323671545,0.0407079702807244,1.0108230827784999,80.55555555555556,0.9999999999875862,1.0273752012882378,3.1374643185699824e-06,0.999074666405088,0
99,69.95833333333333,0.8861111111111057,0.8638888888888943,0.8499999999999979,1.0424836601307153,0.03855303939614702,0.9573138101495344,72.22222222222223,0.8965517241268014,1.0163398692810546,3.1382887755171396e-07,0.9975037602673676,0
100,70.82222222222222,0.8638888888888943,0.7138888888888886,0.875,0.9873015873015935,0.039747188165635314,0.9869658201157957,80.55555555555556,0.9999999999875862,0.8158730158730155,4.297472969483351e-06,0.9977916236865854,0
101,71.53611111111111,0.7138888888888886,1.1388888888888857,0.875,0.8158730158730155,0.043080519045717046,1.0697360435607222,125.0,1.5517241379117717,1.301587301587298,0.9691054821014404,0.23834859061595876,1
102,72.675,1.1388888888888857,0.6555555555555515,0.8986111111111086,1.267387944358578,0.04073832796872214,1.011576897118942,83.33333333333333,1.0344827586078478,0.7295208655332278,1.43636825100657e-07,0.999425023327678,0
103,73.33055555555555,0.6555555555555515,1.1444444444444457,0.8986111111111086,0.7295208655332278,0.03091305177562438,0.7676046257880869,208.33333333333334,2.5862068965196197,1.2735703245749663,0.9677969217300415,0.2677820846030553,1
104,74.475,1.1444444444444457,0.6722222222222314,0.9013888888888886,1.2696456086286614,0.031981512359207376,0.7941356616878571,50.0,0.6206896551647086,0.7457627118644172,9.580522601027042e-05,0.32671665661518146,0
105,75.14722222222223,0.6722222222222314,1.12777777777778,0.9013888888888886,0.7457627118644172,0.04329116847557301,1.0749666975236727,102.77777777777777,1.2758620689496787,1.2511556240369828,0.9601568579673767,0.2497064142504939,1
106,76.275,1.12777777777778,0.9055555555555515,0.9013888888888886,1.2511556240369828,0.0319500361770963,0.7933540739246695,52.77777777777778,0.6551724137849703,1.0046224961479158,0.00016322826559189707,0.33360925884398834,0
107,77.18055555555556,0.9055555555555515,0.7000000000000028,0.8958333333333286,1.0108527131782954,0.04053169445881145,1.006445962806745,80.55555555555556,0.9999999999875862,0.7813953488372166,1.772301402525045e-06,0.9995667711422103,0
108,77.88055555555556,0.7000000000000028,0.3999999999999915,0.875,0.8000000000000033,0.04333697298321509,1.076104073160449,122.22222222222223,1.51724137929151,0.4571428571428474,0.9062556028366089,0.2480292984448803,1
109,78.28055555555555,0.3999999999999915,1.4916666666666742,0.7888888888888914,0.5070422535211143,0.03518219699103056,0.8736121348264169,180.55555555555554,2.2413793103170034,1.8908450704225388,0.9821684956550598,0.16370247330943427,1
110,79.77222222222223,1.4916666666666742,0.6833333333333229,0.80972222222222,1.8421955403087622,0.03183412971558739,0.79047599069113,50.0,0.6206896551647086,0.8439108061749465,1.0783904826894286e-06,0.3916591558133492,0
111,80.45555555555555,0.6833333333333229,0.26388888888889994,0.8027777777777771,0.8512110726643476,0.03568510019227324,0.8860997671184156,211.11111111111111,2.620689655139881,0.32871972318340503,0.7729806900024414,0.2906728195601008,1
112,80.71944444444445,0.26388888888889994,1.1027777777777743,0.6916666666666629,0.38152610441768875,0.040206108875165826,0.9983613194040072,33.333333333333336,0.41379310344313913,1.5943775100401643,0.8261117339134216,0.5807235777413843,1
113,81.82222222222222,1.1027777777777743,1.0861111111111086,0.8027777777777771,1.3737024221453256,0.030757837627218874,0.7637504900279362,47.22222222222222,0.586206896544447,1.352941176470586,0.02075282670557499,0.38136914370541264,0
114,82.90833333333333,1.0861111111111086,0.6638888888888914,0.8027777777777771,1.352941176470586,0.039455788558660373,0.9797300516161236,77.77777777777777,0.9655172413673244,0.8269896193771664,2.720763916386204e-07,0.9977796515363019,0
115,83.57222222222222,0.6638888888888914,1.3361111111111086,0.8027777777777771,0.8269896193771664,0.040818408728137405,1.0135653892875558,108.33333333333333,1.344827586190202,1.6643598615916937,0.9860659241676331,0.3012773030684668,1
116,84.90833333333333,1.3361111111111086,0.7277777777777743,0.8027777777777771,1.6643598615916937,0.03351127686945849,0.8321213747438916,55.55555555555556,0.6896551724052319,0.9065743944636642,0.0011178826680406928,0.3113174398028733,0
117,85.6361111111111,0.7277777777777743,1.2027777777777828,0.7138888888888886,1.0194552529182834,0.043803977034226955,1.0877002905905622,116.66666666666667,1.4482758620509868,1.6848249027237432,0.961944043636322,0.263557226330794,1
118,86.83888888888889,1.2027777777777828,0.9805555555555543,0.9069444444444414,1.326186830015324,0.030905272797897867,0.7674114653285465,50.0,0.6206896551647086,1.081163859111794,9.522842447040603e-06,0.34519623691689266,0
119,87.81944444444444,0.9805555555555543,0.9138888888888914,1.0333333333333314,0.9489247311827962,0.0389795498980103,0.9679045288062931,75.0,0.9310344827470629,0.8844086021505417,3.1464114726986736e-06,0.9982144460552992,0
120,88.73333333333333,0.9138888888888914,0.9444444444444429,0.9472222222222229,0.9648093841642249,0.0369016614607674,0.9163083037594694,69.44444444444444,0.8620689655065398,0.9970674486803496,4.796900725523301e-07,0.9961939812644922,0
121,89.67777777777778,0.9444444444444429,0.9805555555555543,0.9624999999999986,0.981240981240981,0.040019851955763734,0.9937363579490265,80.55555555555556,0.9999999999875862,1.018759018759019,2.555466562625952e-05,0.9992527093345944,0
122,90.65833333333333,0.9805555555555543,0.9666666666666686,0.9805555555555543,1.0,0.04050723581801817,1.005838628210676,80.55555555555556,0.9999999999875862,0.9858356940509947,1.2676243386522401e-05,0.9986501150550151,0
123,91.625,0.9666666666666686,0.9833333333333343,0.9736111111111114,0.9928673323823126,0.04070666517452304,1.010790675575077,77.77777777777777,0.9655172413673244,1.0099857346647654,8.272226295957807e-06,0.9983439571776194,0
124,92.60833333333333,0.9833333333333343,0.7333333333333343,0.9736111111111114,1.0099857346647654,0.040696539316983485,1.0105392395426902,77.77777777777777,0.9655172413673244,0.7532097004279608,5.628054395856452e-07,0.9997093686555336,0
125,93.34166666666667,0.7333333333333343,1.0944444444444485,0.9736111111111114,0.7532097004279608,0.04294348009014877,1.066333217564412,122.22222222222223,1.51724137929151,1.1241084165477928,0.8757050633430481,0.2412208034190476,1
126,94.43611111111112,1.0944444444444485,0.9722222222222143,0.9736111111111114,1.1241084165477928,0.030199323186031603,0.749881970292759,47.22222222222222,0.586206896544447,0.9985734664764537,1.1389660130589618e-06,0.4153910006382065,0
127,95.40833333333333,0.9722222222222143,1.00277777777778,0.9763888888888843,0.9957325746799397,0.040274731664592646,1.000065297742375,77.77777777777777,0.9655172413673244,1.027027027027034,6.349320301524131e-06,0.9993891542393734,0
128,96.41111111111111,1.00277777777778,1.0222222222222257,0.9763888888888843,1.027027027027034,0.041164367960926644,1.0221559325102252,80.55555555555556,0.9999999999875862,1.0469416785206345,1.0253739674226381e-05,0.9985269917909707,0
129,97.43333333333334,1.0222222222222257,0.9555555555555486,0.9763888888888843,1.0469416785206345,0.041128549094228264,1.021266511175582,77.77777777777777,0.9655172413673244,0.978662873399713,6.680612045784073e-07,0.9996780861544075,0
130,98.38888888888889,0.9555555555555486,0.9444444444444429,0.9763888888888843,0.978662873399713,0.04107130974937743,1.0198451961205857,77.77777777777777,0.9655172413673244,0.9672830725462334,7.114144864317495e-06,0.999605940224268,0
131,99.33333333333333,0.9444444444444429,0.9583333333333428,0.9763888888888843,0.9672830725462334,0.040996561702597245,1.0179891209943397,77.77777777777777,0.9655172413673244,0.9815078236131011,1.4037647815712262e-05,0.9990891924766785,0
132,100.29166666666667,0.9583333333333428,0.9277777777777771,0.9694444444444414,0.9885386819484369,0.040586702195752396,1.0078118646153558,77.77777777777777,0.9655172413673244,0.9570200573065926,4.435385562828742e-06,0.9991304161328024,0
133,101.21944444444445,0.9277777777777771,0.9805555555555543,0.9652777777777786,0.9611510791366892,0.04132046959648125,1.0260321055394854,80.55555555555556,0.9999999999875862,1.0158273381294942,5.978476474410854e-05,0.9995296429435376,0
134,102.2,0.9805555555555543,0.9861111111111143,0.9652777777777786,1.0158273381294942,0.041042855057431986,1.0191386352374598,80.55555555555556,0.9999999999875862,1.0215827338129522,1.092018555937102e-05,0.9986279179839372,0
135,103.18611111111112,0.9861111111111143,0.9805555555555543,0.9763888888888843,1.0099573257468073,0.04098008194427698,1.0175799107096248,80.55555555555556,0.9999999999875862,1.0042674253200603,1.1562410691112746e-05,0.9986435426700437,0
136,104.16666666666667,0.9805555555555543,0.9666666666666686,0.9763888888888843,1.0042674253200603,0.04003017629323144,0.9939927224534413,77.77777777777777,0.9655172413673244,0.9900426742532071,3.524686462696991e-06,0.9987497557309639,0
137,105.13333333333334,0.9666666666666686,0.9277777777777771,0.9736111111111114,0.9928673323823126,0.03967880539658204,0.9852678017437991,75.0,0.9310344827470629,0.9529243937232516,1.201940790451772e-06,0.9987394743538187,0
138,106.06111111111112,0.9277777777777771,0.9083333333333314,0.9625000000000057,0.9639249639249575,0.040814095635361446,1.0134582905128922,80.55555555555556,0.9999999999875862,0.9437229437229362,2.6059517040266655e-05,0.9992311621471885,0
139,106.96944444444445,0.9083333333333314,0.99444444444444,0.9569444444444457,0.9492017416545686,0.04007208027595597,0.9950332438232421,75.0,0.9310344827470629,1.0391872278664671,1.4798813936067745e-05,0.9986611619139536,0
140,107.96388888888889,0.99444444444444,1.0166666666666657,0.9625000000000057,1.0331890331890226,0.04189133986617291,1.0402074339063128,80.55555555555556,0.9999999999875862,1.0562770562770492,8.924559551815037e-06,0.9989366022513981,0
141,108.98055555555555,1.0166666666666657,0.9500000000000028,0.9736111111111114,1.0442225392296707,0.04193149807501265,1.0412046058158508,80.55555555555556,0.9999999999875862,0.97574893009986,2.5065451154659968e-06,0.9992917951107687,0
142,109.93055555555556,0.9500000000000028,0.9666666666666686,0.9736111111111114,0.97574893009986,0.03941618548191889,0.978746664239075,75.0,0.9310344827470629,0.9928673323823126,2.665197143869591e-06,0.9995249692035681,0
143,110.89722222222223,0.9666666666666686,0.9444444444444429,0.9736111111111114,0.9928673323823126,0.04178775045909945,1.03763519650221,77.77777777777777,0.9655172413673244,0.9700427960057042,4.6990453483886085e-06,0.999821100463903,0
144,111.84166666666667,0.9444444444444429,0.9333333333333371,0.9666666666666686,0.97701149425287,0.041179612439233376,1.022534469451544,80.55555555555556,0.9999999999875862,0.9655172413793124,2.0940717149642296e-05,0.9995111631801228,0
145,112.775,0.9333333333333371,0.9749999999999943,0.9583333333333357,0.9739130434782625,0.0386966944359089,0.9608809206968645,77.77777777777777,0.9655172413673244,1.0173913043478175,1.0067669791169465e-05,0.9987427650012517,0
146,113.75,0.9749999999999943,0.9749999999999943,0.9583333333333357,1.0173913043478175,0.04007517488868553,0.9951100864159268,77.77777777777777,0.9655172413673244,1.0173913043478175,2.18293985199125e-06,0.9996718627522659,0
147,114.725,0.9749999999999943,0.9805555555555543,0.9583333333333357,1.0173913043478175,0.04088454885453805,1.0152077204085284,80.55555555555556,0.9999999999875862,1.0231884057970977,7.722186637693085e-06,0.9996375305907775,0
148,115.70555555555555,0.9805555555555543,0.9611111111111228,0.9708333333333314,1.0100143061516458,0.04020612583055456,0.9983617404247113,77.77777777777777,0.9655172413673244,0.9899856938483688,2.3782517928339075e-06,0.9995472421898288,0
149,116.66666666666667,0.9611111111111228,0.9194444444444372,0.9708333333333314,0.9899856938483688,0.03887426927328758,0.965290296632466,75.0,0.9310344827470629,0.9470672389127268,9.061874948201876e-07,0.9993469066741092,0
150,117.58611111111111,0.9194444444444372,0.9138888888888914,0.9638888888888957,0.9538904899135304,0.040360083487715005,1.0021846761435664,77.77777777777777,0.9655172413673244,0.9481268011527337,1.2621212590602227e-05,0.9993785831124498,0
151,118.5,0.9138888888888914,0.9000000000000057,0.9555555555555628,0.9563953488372047,0.039328764454814084,0.9765759052572746,77.77777777777777,0.9655172413673244,0.9418604651162779,8.373903256142512e-06,0.9994291357104642,0
152,119.4,0.9000000000000057,0.9722222222222143,0.9527777777777828,0.94460641399417,0.042773923173994095,1.062122935314721,83.33333333333333,1.0344827586078478,1.0204081632652924,0.0002904091088566929,0.9992174627707263,0
153,120.37222222222222,0.9722222222222143,0.9750000000000085,0.9527777777777828,1.0204081632652924,0.042071844158200956,1.0446895513802203,86.11111111111111,1.0689655172281094,1.0233236151603533,5.394313848228194e-05,0.9988388175813716,0
154,121.34722222222223,0.9750000000000085,0.9305555555555429,0.9666666666666686,1.0086206896551793,0.04129110010229306,1.0253028291238295,77.77777777777777,0.9655172413673244,0.9626436781609046,2.1880130134377396e-06,0.9997714563926561,0
155,122.27777777777777,0.9305555555555429,0.9277777777777771,0.9666666666666686,0.9626436781609046,0.041153946880693786,1.0218971657779559,80.55555555555556,0.9999999999875862,0.9597701149425262,3.233035022276454e-05,0.9995320969872724,0
156,123.20555555555555,0.9277777777777771,0.9277777777777914,0.9458333333333329,0.9809104258443464,0.040527974809050904,1.006353599866223,77.77777777777777,0.9655172413673244,0.9809104258443614,6.949639555386966e-06,0.9990468710560855,0
157,124.13333333333334,0.9277777777777914,0.8916666666666657,0.9291666666666671,0.9985052316891023,0.03984554620236732,0.9894081569166694,77.77777777777777,0.9655172413673244,0.9596412556053796,2.0573604615492513e-06,0.9997438369839955,0
158,125.025,0.8916666666666657,0.9361111111111029,0.9277777777777843,0.9610778443113696,0.0414946898809031,1.0303581842844438,83.33333333333333,1.0344827586078478,1.0089820359281279,0.00010813697008416057,0.9990037817627572,0
159,125.96111111111111,0.9361111111111029,0.9472222222222229,0.9277777777777843,1.0089820359281279,0.04184492276682079,1.039054846952525,80.55555555555556,0.9999999999875862,1.0209580838323289,1.0976105841109529e-05,0.9988531507512799,0
160,126.90833333333333,0.9472222222222229,0.9388888888888971,0.9291666666666671,1.0194319880418536,0.04325965235989422,1.0741841181666585,86.11111111111111,1.0689655172281094,1.010463378176391,5.160908040124923e-05,0.9981457784432142,0
161,127.84722222222223,0.9388888888888971,0.7361111111111143,0.9333333333333229,1.005952380952401,0.04323019243854171,1.0734525963463712,83.33333333333333,1.0344827586078478,0.7886904761904884,8.690721188031603e-06,0.9973952712307774,0
162,128.58333333333334,0.7361111111111143,1.0833333333333144,0.9333333333333229,0.7886904761904884,0.04289440335849754,1.0651145890541156,130.55555555555554,1.6206896551522947,1.1607142857142785,0.9166602492332458,0.28258340852842445,1
163,129.66666666666666,1.0833333333333144,0.61944444444444,0.9333333333333229,1.1607142857142785,0.0424807766391133,1.0548437886991908,86.11111111111111,1.0689655172281094,0.6636904761904788,7.450763064298371e-07,0.9983815215890356,0
164,130.2861111111111,0.61944444444444,1.125,0.9291666666666671,0.6666666666666615,0.028322602498470302,0.7032809587996077,202.77777777777777,2.517241379279096,1.2107623318385643,0.9324195981025696,0.272613591544445,1
165,131.4111111111111,1.125,0.7944444444444514,0.9319444444444471,1.207153502235466,0.03625684899585884,0.9002969104353099,55.55555555555556,0.6896551724052319,0.8524590163934477,0.000423505058279261,0.3998741065750018,0
166,132.20555555555555,0.7944444444444514,0.4166666666666856,0.9319444444444471,0.8524590163934477,0.043576350427044976,1.0820480748891312,127.77777777777777,1.586206896532033,0.4470938897168596,0.7932760715484619,0.28469847549897137,1
167,132.62222222222223,0.4166666666666856,0.7638888888888857,0.9138888888888843,0.45592705167175557,0.03975718951702601,0.9872141645253788,183.33333333333334,2.2758620689372653,0.835866261398177,0.9451770782470703,0.23134213398887576,1
168,133.38611111111112,0.7638888888888857,0.63055555555556,0.8652777777777771,0.8828250401284079,0.04168964065353274,1.035199023550578,86.11111111111111,1.0689655172281094,0.728731942215094,0.0002177567221224308,0.9994156962229936,0
169,134.01666666666668,0.63055555555556,1.1777777777777771,0.7791666666666686,0.8092691622103424,0.03392628940351877,0.842426586381259,211.11111111111111,2.620689655139881,1.5115864527629188,0.9776460528373718,0.2806238591274465,1
170,135.19444444444446,1.1777777777777771,0.5944444444444343,0.7791666666666686,1.5115864527629188,0.03218915725360551,0.7992917097745416,50.0,0.6206896551647086,0.7629233511586304,0.000721102871466428,0.40666360173857335,0
171,135.7888888888889,0.5944444444444343,1.24444444444444,0.75,0.7925925925925791,0.04410362053578053,1.095140763939791,125.0,1.5517241379117717,1.6592592592592534,0.9127951860427856,0.9675625847082079,1
172,137.03333333333333,1.24444444444444,0.6277777777777658,0.7791666666666686,1.597147950089117,0.031940168004792956,0.7931090364963658,50.0,0.6206896551647086,0.8057040998217295,0.0002403149992460385,0.3913355267784709,0
173,137.6611111111111,0.6277777777777658,1.3000000000000114,0.6972222222222229,0.900398406374484,0.04009005707305209,0.9954796272055103,116.66666666666667,1.4482758620509868,1.8645418326693373,0.9142469763755798,0.9493044122176836,1
174,138.9611111111111,1.3000000000000114,0.6555555555555657,0.7791666666666686,1.668449197860973,0.03290668484486851,0.8171086986044299,52.77777777777778,0.6551724137849703,0.8413547237076758,0.0006161133642308414,0.36154774276638235,0
175,139.61666666666667,0.6555555555555657,1.2861111111110972,0.7097222222222257,0.9236790606653718,0.044116376974712816,1.095457520163152,125.0,1.5517241379117717,1.8121330724070166,0.9184577465057373,0.9356193299124236,1
176,140.90277777777777,1.2861111111110972,0.6138888888889085,0.7097222222222257,1.8121330724070166,0.034712656209378356,0.8619529276213687,52.77777777777778,0.6551724137849703,0.864970645792587,0.02369694970548153,0.3569477450284097,0
177,141.51666666666668,0.6138888888889085,1.2166666666666401,0.7097222222222257,0.864970645792587,0.04937958838995694,1.2261487718120019,125.0,1.5517241379117717,1.7142857142856684,0.9249073266983032,0.9380633678290251,1
178,142.73333333333332,1.2166666666666401,0.6083333333333485,0.9166666666666714,1.3272727272726914,0.03133455941340412,0.7780711179000002,52.77777777777778,0.6551724137849703,0.6636363636363768,2.371991467953194e-05,0.3572139658396961,0
179,143.34166666666667,0.6083333333333485,1.3527777777777885,0.9166666666666714,0.6636363636363768,0.04150362231322557,1.030579986273456,133.33333333333334,1.6551724137725565,1.4757575757575798,0.9237164258956909,0.9556174542982772,1
180,144.69444444444446,1.3527777777777885,0.6416666666666515,0.9361111111111029,1.4451038575667898,0.03509620577600709,0.8714768796303833,55.55555555555556,0.6896551724052319,0.6854599406528088,1.9644956410047598e-05,0.319354934848193,0
181,145.3361111111111,0.6416666666666515,1.2888888888888914,0.9361111111111029,0.6854599406528088,0.03977798019535374,0.9877304196325573,211.11111111111111,2.620689655139881,1.3768545994065429,0.9832801818847656,0.9438485318074188,1
182,146.625,1.2888888888888914,0.6277777777777658,0.9361111111111029,1.3768545994065429,0.03188502973363109,0.7917398933813796,55.55555555555556,0.6896551724052319,0.6706231454005865,1.2146798326284625e-05,0.33730370047341873,0
183,147.25277777777777,0.6277777777777658,1.2805555555555657,0.9361111111111029,0.6706231454005865,0.03586419625175166,0.890546916649749,208.33333333333334,2.5862068965196197,1.3679525222552156,0.9836268424987793,0.9530254821782972,1
184,148.53333333333333,1.2805555555555657,0.6055555555555543,0.9361111111111029,1.3679525222552156,0.03139950065968624,0.7796836795264749,50.0,0.6206896551647086,0.646884272997037,1.6548507346669794e-06,0.3651918186721162,0
185,149.13888888888889,0.6055555555555543,1.3055555555555713,0.9291666666666458,0.6517189835575619,0.03323474207313234,0.8252547156255349,208.33333333333334,2.5862068965196197,1.4050822122571487,0.9878827333450317,0.9437547340136874,1
186,150.44444444444446,1.3055555555555713,0.663888888888863,0.9291666666666458,1.4050822122571487,0.03238885022956109,0.8042503030960124,50.0,0.6206896551647086,0.7144992526158327,2.771870867945836e-06,0.3404353682330753,0
187,151.10833333333332,0.663888888888863,1.3055555555555713,0.9402777777777516,0.706056129985221,0.0339157915113506,0.8421659123252713,216.66666666666666,2.689655172380404,1.3884785819793761,0.9841547012329102,0.9385953991180797,1
188,152.4138888888889,1.3055555555555713,0.63055555555556,0.9722222222222143,1.34285714285717,0.032270083300821484,0.801301191356645,52.77777777777778,0.6551724137849703,0.6485714285714383,2.961485961350263e-06,0.3543865366465082,0
189,153.04444444444445,0.63055555555556,1.2861111111110972,0.9722222222222143,0.6485714285714383,0.03654511555035732,0.9074548818416628,219.44444444444446,2.7241379310006657,1.3228571428571394,0.9863091707229614,0.9159723010193925,1
190,154.33055555555555,1.2861111111110972,0.5916666666666686,0.9722222222222143,1.3228571428571394,0.02995710199834022,0.7438673553176566,47.22222222222222,0.586206896544447,0.6085714285714354,1.399195781459639e-07,0.34193226040720964,0
191,154.92222222222222,0.5916666666666686,1.375,0.9722222222222143,0.6085714285714354,0.03301895952977584,0.8198966008833544,216.66666666666666,2.689655172380404,1.4142857142857257,0.9907586574554443,0.8929080780212224,1
192,156.29722222222222,1.375,0.6583333333333314,0.9722222222222143,1.4142857142857257,0.03273003437723081,0.8127222757727234,52.77777777777778,0.6551724137849703,0.6771428571428607,8.759031402405526e-07,0.3496971714239532,0
193,156.95555555555555,0.6583333333333314,1.3083333333333371,0.9722222222222143,0.6771428571428607,0.03575960900251295,0.8879499017417163,213.88888888888889,2.6551724137601425,1.3457142857143005,0.9830543398857117,0.9259384824891698,1
194,158.26388888888889,1.3083333333333371,0.6333333333333258,0.9749999999999801,1.341880341880373,0.03173012171730113,0.7878933592129125,52.77777777777778,0.6551724137849703,0.649572649572655,1.685042093413358e-06,0.3534555533330723,0
195,158.8972222222222,0.6333333333333258,1.2888888888888914,0.9749999999999801,0.649572649572655,0.03612759869719735,0.8970874852430911,208.33333333333334,2.5862068965196197,1.3219373219373516,0.9831815361976624,0.9247844804870059,1
196,160.1861111111111,1.2888888888888914,0.6166666666666742,0.9749999999999801,1.3219373219373516,0.03131549278440383,0.7775976728087474,52.77777777777778,0.6551724137849703,0.6324786324786532,1.9635870103229536e-06,0.34945531100343563,0
197,160.80277777777778,0.6166666666666742,1.3388888888889028,0.9722222222222143,0.6342857142857272,0.033056363161752644,0.8208253736598199,205.55555555555554,2.5517241378993574,1.3771428571428825,0.9875307083129883,0.9044290931180436,1
198,162.14166666666668,1.3388888888889028,0.6527777777777715,0.9722222222222143,1.3771428571428825,0.03424894161953822,0.8504383910822298,55.55555555555556,0.6896551724052319,0.6714285714285704,7.624124918947928e-06,0.36527181574500944,0
199,162.79444444444445,0.6527777777777715,1.3444444444444343,0.9722222222222143,0.6714285714285704,0.034488930254895474,0.8563975693598679,202.77777777777777,2.517241379279096,1.3828571428571437,0.9816022515296936,0.9284995279377716,1
200,164.13888888888889,1.3444444444444343,0.6333333333333258,0.9736111111111114,1.3808844507845826,0.032448984254997947,0.8057434962115814,52.77777777777778,0.6551724137849703,0.6504992867332302,1.4464637843047967e-06,0.34771776787470215,0
201,164.7722222222222,0.6333333333333258,1.2972222222222456,0.9736111111111114,0.6504992867332302,0.033802522885964414,0.8393533294255249,197.22222222222223,2.448275862038573,1.3323823109843318,0.9804353713989258,0.9210989996128658,1
202,166.06944444444446,1.2972222222222456,0.6027777777777601,0.9736111111111114,1.3323823109843318,0.03304032092201597,0.8204270274363783,55.55555555555556,0.6896551724052319,0.6191155492153883,1.6218733435380273e-05,0.3040261945449071,0
203,166.67222222222222,0.6027777777777601,1.3583333333333485,0.9708333333333314,0.6208869814019858,0.0334968202284522,0.8317624006577893,194.44444444444446,2.4137931034183113,1.3991416309013058,0.9853864908218384,0.9155065077231866,1
204,168.03055555555557,1.3583333333333485,0.6611111111110972,0.9708333333333314,1.3991416309013058,0.037401077723459734,0.9287093515828588,61.111111111111114,0.758620689645755,0.6809728183118611,7.110003934940323e-05,0.3058953564509268,0
205,168.69166666666666,0.6611111111110972,1.3583333333333485,0.9749999999999943,0.6780626780626677,0.03680016468549283,0.913788028674084,186.11111111111111,2.3103448275575267,1.3931623931624169,0.9736799597740173,0.9224314635336361,1
206,170.05,1.3583333333333485,0.6166666666666458,0.9791666666666714,1.3872340425532002,0.03344393415382424,0.8304491820270682,55.55555555555556,0.6896551724052319,0.6297872340425289,3.6042547435499728e-06,0.36649752480782793,0
207,170.66666666666666,0.6166666666666458,1.313888888888897,0.9791666666666714,0.6297872340425289,0.03393971996208519,0.8427600817267632,200.0,2.4827586206588346,1.3418439716312076,0.9813505411148071,0.9449079171997317,1
208,171.98055555555555,1.313888888888897,0.6111111111111143,0.9791666666666714,1.3418439716312076,0.036187596376048056,0.8985772927249478,58.333333333333336,0.7241379310254934,0.6241134751773052,4.055542012793012e-05,0.40004424206151523,0
209,172.59166666666667,0.6111111111111143,1.3027777777777771,0.9791666666666714,0.6241134751773052,0.03247098680242964,0.8062898433438631,202.77777777777777,2.517241379279096,1.330496453900702,0.9831356406211853,0.933686215239854,1
210,173.89444444444445,1.3027777777777771,0.6444444444444457,0.9791666666666714,1.330496453900702,0.03278472296650576,0.8140802527984139,52.77777777777778,0.6551724137849703,0.6581560283687924,4.355367764219409e-06,0.34902155986946304,0
211,174.5388888888889,0.6444444444444457,1.36388888888888,0.9791666666666714,0.6581560283687924,0.036318269066526875,0.9018220374497249,202.77777777777777,2.517241379279096,1.392907801418424,0.9829670190811157,0.9256747560977749,1
212,175.90277777777777,1.36388888888888,0.6138888888889085,0.9819444444444372,1.3889674681753903,0.033361746529129495,0.828408374106966,52.77777777777778,0.6551724137849703,0.6251768033946498,1.1847325822600396e-06,0.37178066498067397,0
213,176.51666666666668,0.6138888888889085,1.35277777777776,0.9819444444444372,0.6251768033946498,0.03812019417373424,0.9465657935064052,205.55555555555554,2.5517241378993574,1.37765205091937,0.9861663579940796,0.9269202972587063,1
214,177.86944444444444,1.35277777777776,0.6027777777777885,0.9819444444444372,1.37765205091937,0.03302868710875352,0.8201381472267947,52.77777777777778,0.6551724137849703,0.6138613861386293,1.1056496305172914e-06,0.3864034702538913,0
215,178.47222222222223,0.6027777777777885,1.3361111111111086,0.9736111111111114,0.6191155492154173,0.03528815401477623,0.8762431627220854,200.0,2.4827586206588346,1.3723252496433636,0.9839651584625244,0.9440989560058181,1
216,179.80833333333334,1.3361111111111086,0.6527777777777715,0.9736111111111114,1.3723252496433636,0.035691196939556004,0.8862511559702986,55.55555555555556,0.6896551724052319,0.6704707560627607,1.1752243153750896e-05,0.40009814195437354,0
217,180.4611111111111,0.6527777777777715,1.3666666666666742,0.9777777777777743,0.6676136363636322,0.039022104785397006,0.968961212845288,202.77777777777777,2.517241379279096,1.3977272727272854,0.9784548878669739,0.9583889858403967,1
218,181.82777777777778,1.3666666666666742,0.6111111111111143,0.9777777777777743,1.3977272727272854,0.03219347492009486,0.7993989221194725,52.77777777777778,0.6551724137849703,0.6250000000000054,6.204678584253998e-07,0.3578792601339811,0
219,182.4388888888889,0.6111111111111143,1.3333333333333144,0.9777777777777743,0.6250000000000054,0.0439444527287922,1.0911884545460895,197.22222222222223,2.448275862038573,1.363636363636349,0.9801436066627502,0.9417229691065367,1
220,183.7722222222222,1.3333333333333144,0.6000000000000227,0.9930555555555429,1.3426573426573407,0.032118767523033616,0.7975438563698652,52.77777777777778,0.6551724137849703,0.6041958041958347,1.1293418538116384e-06,0.349242804724586,0
221,184.37222222222223,0.6000000000000227,1.3499999999999943,0.9930555555555429,0.6041958041958347,0.04647055163865647,1.1539142320747588,202.77777777777777,2.517241379279096,1.359440559440571,0.9795256853103638,0.9398809071416462,1
222,185.72222222222223,1.3499999999999943,0.6527777777777715,0.9930555555555429,1.359440559440571,0.034392961839786844,0.8540145694573794,58.333333333333336,0.7241379310254934,0.6573426573426594,9.705338015919551e-06,0.33463479250310746,0
223,186.375,0.6527777777777715,1.3777777777777658,0.9930555555555429,0.6573426573426594,0.04231113065503369,1.0506312947962575,200.0,2.4827586206588346,1.3874125874125929,0.9772107005119324,0.9453854445139358,1
224,187.75277777777777,1.3777777777777658,0.625,0.9930555555555429,1.3874125874125929,0.03537851803569991,0.8784869994344647,58.333333333333336,0.7241379310254934,0.6293706293706374,1.3156460227037314e-05,0.2908987555679116,0
225,188.37777777777777,0.625,1.3472222222222285,0.9930555555555429,0.6293706293706374,0.048703458888376724,1.2093597424786375,197.22222222222223,2.448275862038573,1.3566433566433802,0.973018229007721,0.9561822383679371,1
226,189.725,1.3472222222222285,0.6111111111111143,0.9930555555555429,1.3566433566433802,0.0322687021840936,0.8012668967293538,52.77777777777778,0.6551724137849703,0.6153846153846264,1.0080140100399149e-06,0.3374320558673597,0
227,190.3361111111111,0.6111111111111143,1.319444444444457,0.9930555555555429,0.6153846153846264,0.05106858831028316,1.2680884729197528,186.11111111111111,2.3103448275575267,1.3286713286713583,0.9598417282104492,0.9593127524888905,1
228,191.65555555555557,1.319444444444457,0.6583333333333314,0.9861111111111143,1.338028169014093,0.03563582842431323,0.8848762956448977,58.333333333333336,0.7241379310254934,0.6676056338028128,2.7832513296743855e-05,0.33202111553570635,0
229,192.3138888888889,0.6583333333333314,1.3888888888888857,0.9888888888888943,0.6657303370786462,0.050241017109599495,1.2475389818366793,127.77777777777777,1.586206896532033,1.4044943820224611,0.8855386972427368,0.9482628630759797,1
230,193.70277777777778,1.3888888888888857,0.63055555555556,0.9888888888888943,1.4044943820224611,0.032065649642243885,0.7962248817405662,55.55555555555556,0.6896551724052319,0.6376404494382033,8.211196700358414e-07,0.32984125143749654,0
231,194.33333333333334,0.63055555555556,1.3166666666666629,0.9888888888888943,0.6376404494382033,0.04970459722146493,1.2342190938332083,127.77777777777777,1.586206896532033,1.3314606741572923,0.8610061407089233,0.9393641512265086,1
232,195.65,1.3166666666666629,0.6388888888888857,0.9874999999999972,1.3333333333333333,0.03248595491973335,0.80666151794154,52.77777777777778,0.6551724137849703,0.6469760900140633,2.8171948542876635e-06,0.32292546189060267,0
233,196.2888888888889,0.6388888888888857,1.3000000000000114,0.9874999999999972,0.6469760900140633,0.042178330641243926,1.0473337263248674,116.66666666666667,1.4482758620509868,1.3164556962025469,0.8599961400032043,0.9617741949641985,1
234,197.5888888888889,1.3000000000000114,0.6583333333333314,0.9791666666666714,1.3276595744680904,0.031238952404966158,0.775697092117382,50.0,0.6206896551647086,0.6723404255319098,6.504606062662788e-07,0.32947947824216584,0
235,198.24722222222223,0.6583333333333314,1.3777777777777658,0.9791666666666714,0.6723404255319098,0.04306068096026947,1.0692434423686152,127.77777777777777,1.586206896532033,1.4070921985815412,0.9110768437385559,0.9131476528507089,1
236,199.625,1.3777777777777658,0.6500000000000057,0.9791666666666714,1.4070921985815412,0.03180693745420645,0.7898007773290475,52.77777777777778,0.6551724137849703,0.6638297872340452,4.2660332155719516e-07,0.3228181624706442,0
237,200.275,0.6500000000000057,1.3416666666666686,0.9791666666666714,0.6638297872340452,0.04407094515694675,1.0943293988204803,127.77777777777777,1.586206896532033,1.3702127659574421,0.901845395565033,0.922841560807558,1
238,201.61666666666667,1.3416666666666686,0.5999999999999943,0.9791666666666714,1.3702127659574421,0.03212806834388851,0.7977748058459526,52.77777777777778,0.6551724137849703,0.6127659574467997,1.0629136113493587e-06,0.35609105313533096,0
239,202.21666666666667,0.5999999999999943,1.3388888888888744,0.9791666666666714,0.6127659574467997,0.0513631765301053,1.2754034181370497,127.77777777777777,1.586206896532033,1.3673758865248014,0.8489686846733093,0.9528762802108575,1
240,203.55555555555554,1.3388888888888744,0.6611111111111256,0.9791666666666714,1.3673758865248014,0.03802397701713711,0.9441766170827961,61.111111111111114,0.758620689645755,0.6751773049645505,0.00011719996109604836,0.2893176736557227,0
241,204.21666666666667,0.6611111111111256,1.3916666666666515,0.9805555555555685,0.6742209631728104,0.04736627058838755,1.1761559057280142,144.44444444444446,1.7931034482536028,1.4192634560906174,0.9227200150489807,0.9410214352944843,1
242,205.60833333333332,1.3916666666666515,0.5944444444444628,0.9805555555555685,1.4192634560906174,0.03085063870673043,0.7660548415500129,50.0,0.6206896551647086,0.6062322946175744,5.548276149625053e-08,0.33843749490333674,0
243,206.20277777777778,0.5944444444444628,1.36944444444444,0.9805555555555685,0.6062322946175744,0.05442624965199296,1.3514628481329622,122.22222222222223,1.51724137929151,1.396600566572215,0.8491100072860718,0.9354403202438196,1
244,207.57222222222222,1.36944444444444,1.9527777777777828,1.0,1.36944444444444,0.03671774808974014,0.9117415351541088,61.111111111111114,0.758620689645755,1.9527777777777828,0.015193128027021885,0.2837288839391899,0
245,209.525,1.9527777777777828,0.6472222222222115,1.3402777777777715,1.4569948186528603,0.039997314654146465,0.9931767322899436,66.66666666666667,0.8275862068862783,0.48290155440413934,3.973021078795824e-10,0.2720118395083777,0
246,210.17222222222222,0.6472222222222115,1.4194444444444514,1.0,0.6472222222222115,0.04675421066488153,1.160957793553493,133.33333333333334,1.6551724137725565,1.4194444444444514,0.9077026844024658,0.946131818229575,1
247,211.59166666666667,1.4194444444444514,0.6472222222222115,1.3402777777777715,1.0590673575129634,0.0324435957248164,0.8056096931589557,52.77777777777778,0.6551724137849703,0.48290155440413934,3.9862857903472104e-08,0.33925953583790247,0
248,212.23888888888888,0.6472222222222115,1.3361111111111086,1.0,0.6472222222222115,0.04659565675651728,1.1570207279288964,144.44444444444446,1.7931034482536028,1.3361111111111086,0.9075707197189331,0.9317871461838914,1
249,213.575,1.3361111111111086,0.580555555555577,1.3374999999999915,0.9989615784008352,0.030812771299121775,0.7651145527212688,50.0,0.6206896551647086,0.43406022845277065,1.1735691174408203e-07,0.3486021396381649,0
250,214.15555555555557,0.580555555555577,1.35833333333332,0.9986111111111171,0.5813630041724798,0.05286353877891568,1.3126590411309849,119.44444444444444,1.4827586206712484,1.3602225312934417,0.8225635290145874,0.9435370185588392,1
251,215.51388888888889,1.35833333333332,0.6555555555555657,1.3472222222222143,1.0082474226804083,0.033481358529878776,0.8313784699014976,55.55555555555556,0.6896551724052319,0.48659793814434027,1.1992786994596827e-06,0.34376273103821575,0
252,216.16944444444445,0.6555555555555657,1.4166666666666572,0.9958333333333371,0.6582984658298542,0.043162472686256,1.071771041400291,127.77777777777777,1.586206896532033,1.4225941422593993,0.9088104963302612,0.9396801706570775,1
253,217.5861111111111,1.4166666666666572,0.5999999999999943,1.3472222222222143,1.0515463917525765,0.03159698790063602,0.7845875020538485,50.0,0.6206896551647086,0.44536082474226646,1.4083467725356513e-08,0.32675007867030115,0
254,218.1861111111111,0.5999999999999943,1.3888888888888857,0.9958333333333371,0.602510460251038,0.05347799625670196,1.3279166871803711,122.22222222222223,1.51724137929151,1.3947001394700054,0.8453418016433716,0.9437617268946029,1
255,219.575,1.3888888888888857,0.63055555555556,0.9958333333333371,1.3947001394700054,0.03260463760209344,0.8096085377518707,52.77777777777778,0.6551724137849703,0.6331938633193883,5.729312988478341e-07,0.315212862141799,0
256,220.20555555555555,0.63055555555556,1.3166666666666629,0.9958333333333371,0.6331938633193883,0.04474841619385365,1.111151739931986,147.22222222222223,1.8275862068738644,1.3221757322175645,0.9112720489501953,0.9447824367114821,1
257,221.5222222222222,1.3166666666666629,0.6638888888888914,0.9861111111111143,1.3352112676056256,0.03432978387333678,0.8524457919828373,55.55555555555556,0.6896551724052319,0.6732394366197187,8.870982128428295e-06,0.35667524426918734,0
258,222.1861111111111,0.6638888888888914,1.4000000000000057,0.9902777777777771,0.670406732117815,0.03893854315590789,0.9668862868949225,163.88888888888889,2.0344827585954337,1.413744740532966,0.9518767595291138,0.9185895990572344,1
259,223.5861111111111,1.4000000000000057,0.61944444444444,0.9902777777777771,1.413744740532966,0.03313675987398741,0.8228217112798482,55.55555555555556,0.6896551724052319,0.6255259467040633,1.888050178422418e-06,0.3096521923691782,0
260,224.20555555555555,0.61944444444444,1.38611111111112,0.9902777777777771,0.6255259467040633,0.04970421666527654,1.2342096442100297,133.33333333333334,1.6551724137725565,1.399719495091174,0.8941999077796936,0.940359114145329,1
261,225.59166666666667,1.38611111111112,0.6166666666666742,0.9902777777777771,1.399719495091174,0.03174827403041762,0.7883441008484555,52.77777777777778,0.6551724137849703,0.6227208976157164,2.405569432539778e-07,0.34994535942936583,0
262,226.20833333333334,0.6166666666666742,1.3194444444444287,0.9902777777777771,0.6227208976157164,0.04285027143300256,1.0640187454473193,122.22222222222223,1.51724137929151,1.3323983169705318,0.8712896704673767,0.9540382747439903,1
263,227.52777777777777,1.3194444444444287,0.6638888888888914,0.9902777777777771,1.3323983169705318,0.035750553009947866,0.887725031617779,55.55555555555556,0.6896551724052319,0.670406732117815,1.323490960203344e-05,0.36832224826334736,0
264,228.19166666666666,0.6638888888888914,1.375,0.9902777777777771,0.670406732117815,0.04441702675838655,1.102922980589551,133.33333333333334,1.6551724137725565,1.3884992987377287,0.9037245512008667,0.9477699777770048,1
265,229.56666666666666,1.375,0.6277777777777942,0.9902777777777771,1.3884992987377287,0.033056769145685144,0.8208354546814817,52.77777777777778,0.6551724137849703,0.6339410939691614,1.12535542484693e-06,0.3292420427097478,0
266,230.19444444444446,0.6277777777777942,1.3499999999999943,0.9902777777777771,0.6339410939691614,0.04484604837884818,1.1135760530464451,133.33333333333334,1.6551724137725565,1.3632538569424917,0.8847848773002625,0.9554695877446759,1
267,231.54444444444445,1.3499999999999943,0.63055555555556,0.99166666666666,1.3613445378151294,0.03319479839447337,0.8242628707332168,55.55555555555556,0.6896551724052319,0.6358543417367034,3.8972166294115596e-06,0.3416245241904818,0
268,232.175,0.63055555555556,1.3361111111111086,0.99166666666666,0.6358543417367034,0.04875690483146553,1.2106868632508716,136.11111111111111,1.689655172392818,1.3473389355742362,0.8741905093193054,0.9478360119258412,1
269,233.51111111111112,1.3361111111111086,0.6555555555555372,0.99166666666666,1.3473389355742362,0.035070952720956866,0.8708498188661298,55.55555555555556,0.6896551724052319,0.6610644257702941,7.575536074000411e-06,0.38067778015894954,0
270,234.16666666666666,0.6555555555555372,1.4083333333333314,0.99166666666666,0.6610644257702941,0.04402018050941615,1.0930688575269896,125.0,1.5517241379117717,1.4201680672268984,0.9055231213569641,0.9512736873225305,1
271,235.575,1.4083333333333314,0.6527777777777999,0.99166666666666,1.4201680672268984,0.03555574060496875,0.8828876281705793,55.55555555555556,0.6896551724052319,0.6582633053221555,2.8204692625877215e-06,0.3658961143217788,0
272,236.2277777777778,0.6527777777777999,1.3138888888888687,0.99166666666666,0.6582633053221555,0.03694300051658344,0.9173347973810122,161.11111111111111,1.9999999999751723,1.324929971988784,0.9370175004005432,0.9312276992061159,1
273,237.54166666666666,1.3138888888888687,0.625,0.98888888888888,1.32865168539325,0.03412075805138046,0.8472554539661507,52.77777777777778,0.6551724137849703,0.632022471910118,5.384663381846622e-06,0.3637140453914005,0
274,238.16666666666666,0.625,1.3222222222222229,0.984722222222203,0.6346967559943707,0.03757774206748461,0.9330961189803193,177.77777777777777,2.2068965516967416,1.3427362482369805,0.9685729742050171,0.9189684054149427,1
275,239.48888888888888,1.3222222222222229,0.6638888888888914,0.984722222222203,1.3427362482369805,0.03396149980440105,0.843300898849315,52.77777777777778,0.6551724137849703,0.6741889985895785,3.7602758311550133e-06,0.3687284597117364,0
276,240.15277777777777,0.6638888888888914,0.5638888888888971,0.98888888888888,0.6713483146067502,0.04350551787080376,1.0802892256424832,183.33333333333334,2.2758620689372653,0.570224719101137,0.6116802096366882,0.9191171748573064,1
277,240.71666666666667,0.5638888888888971,1.0583333333333371,0.6597222222222143,0.8547368421052859,0.03735909157228183,0.9276667898811828,52.77777777777778,0.6551724137849703,1.6042105263158144,0.9830775856971741,0.4414755354486812,1
278,241.775,1.0583333333333371,0.674999999999983,0.8611111111111143,1.229032258064516,0.04077704322486821,1.0125382389470474,77.77777777777777,0.9655172413673244,0.7838709677419128,1.1608814531882672e-07,0.9991865187011966,0
279,242.45,0.674999999999983,0.3527777777777885,0.6694444444444372,1.0082987551867075,0.044453813719594754,1.103836440761554,211.11111111111111,2.620689655139881,0.5269709543568682,0.08982282131910324,0.8152677050422963,0
280,242.80277777777778,0.3527777777777885,0.3361111111111086,0.6694444444444372,0.5269709543568682,0.04284177234925748,1.0638077039738008,130.55555555555554,1.6206896551522947,0.5020746887966822,0.023138942196965218,0.9597944365760449,0
281,243.13888888888889,0.3361111111111086,0.3361111111111086,0.6583333333333456,0.5105485232067377,0.043359539690823116,1.0766644290021972,136.11111111111111,1.689655172392818,0.5105485232067377,0.027059821411967278,0.9398002761511666,0
282,243.475,0.3361111111111086,0.32777777777778283,0.6444444444444457,0.521551724137926,0.037943048065475056,0.9421670633801442,150.0,1.8620689654941258,0.5086206896551793,0.07389377057552338,0.8710841581807965,0
283,243.80277777777778,0.32777777777778283,0.25,0.5944444444444485,0.5514018691588832,0.036994152407381554,0.9186049543451138,163.88888888888889,2.0344827585954337,0.4205607476635485,0.05373756214976311,0.8601552673578987,0
284,244.05277777777778,0.25,0.6416666666666799,0.4583333333333428,0.5454545454545342,0.039980049897481496,0.9927480296443645,172.22222222222223,2.137931034456219,1.4,0.5141639113426208,0.34596611461206317,1
285,244.69444444444446,0.6416666666666799,0.36388888888888005,0.4583333333333428,1.4,0.04782517842697637,1.1875510854167746,175.0,2.17241379307648,0.7939393939393582,0.3996967673301697,0.20485613348594556,0
286,245.05833333333334,0.36388888888888005,0.3527777777777601,0.3583333333333343,1.015503875968965,0.0450460953082307,1.1185434354156554,161.11111111111111,1.9999999999751723,0.9844961240309558,0.4139862060546875,0.1511632113747467,0
287,245.4111111111111,0.3527777777777601,0.39166666666667993,0.3527777777777743,0.9999999999999597,0.044581228546906396,1.1070002892081032,169.44444444444446,2.1034482758359574,1.1102362204724894,0.4580133557319641,0.15359561756104578,0
288,245.80277777777778,0.39166666666667993,0.4138888888888914,0.3527777777777743,1.1102362204724894,0.0477876229733126,1.1866185427430482,133.33333333333334,1.6551724137725565,1.1732283464567117,0.3307815492153168,0.14080535065198807,0
289,246.21666666666667,0.4138888888888914,1.3666666666666742,0.3527777777777743,1.1732283464567117,0.040118511892611904,0.9961861912574393,105.55555555555556,1.3103448275699405,3.874015748031556,0.004086412023752928,0.9574620031242165,0
290,247.58333333333334,1.3666666666666742,0.9666666666666686,0.35833333333332007,3.8139534883722552,0.0445137314711473,1.1053242635618516,77.77777777777777,0.9655172413673244,2.6976744186047563,0.829260528087616,0.22892187239935818,1
291,248.55,0.9666666666666686,1.1166666666666458,0.37777777777778,2.5588235294117547,0.039911769239456024,0.9910525468000102,169.44444444444446,2.1034482758359574,2.955882352941104,0.351907342672348,0.14309838276876002,0
292,249.66666666666666,1.1166666666666458,0.9972222222222342,0.4027777777777857,2.7724137931033423,0.03892425374844842,0.9665314653992878,138.88888888888889,1.7241379310130795,2.4758620689654984,0.631727397441864,0.27167115513130635,1
293,250.6638888888889,0.9972222222222342,0.6444444444444457,0.5277777777777857,1.8894736842105209,0.047143942817574204,1.1706352658844887,108.33333333333333,1.344827586190202,1.2210526315789314,0.21689383685588837,0.9685415848492545,0
294,251.30833333333334,0.6444444444444457,0.42222222222221717,0.6430555555555628,1.0021598272138135,0.0380521796093694,0.9448769180564383,163.88888888888889,2.0344827585954337,0.6565874730021446,0.09029270708560944,0.9118583980973227,0
295,251.73055555555555,0.42222222222221717,0.36666666666667425,0.5333333333333314,0.79166666666666,0.04105408891244549,1.0194175840496442,208.33333333333334,2.5862068965196197,0.6875000000000167,0.13211338222026825,0.8594252496607204,0
296,252.09722222222223,0.36666666666667425,0.36944444444444,0.5333333333333314,0.6875000000000167,0.03733419187001377,0.9270485032500071,152.77777777777777,1.8965517241143874,0.6927083333333275,0.12133404612541199,0.8889584444345249,0
297,252.46666666666667,0.36944444444444,0.34444444444443434,0.5333333333333314,0.6927083333333275,0.04281719230420186,1.0631973547781368,163.88888888888889,2.0344827585954337,0.6458333333333167,0.117476686835289,0.8939362059120743,0
298,252.8111111111111,0.34444444444443434,0.30555555555557135,0.5333333333333314,0.6458333333333167,0.046862762365126105,1.163653250082654,172.22222222222223,2.137931034456219,0.5729166666666983,0.08310595154762268,0.9031644658587472,0
299,253.11666666666667,0.30555555555557135,0.3138888888888687,0.5333333333333314,0.5729166666666983,0.04069952557541451,1.0106133915805444,166.66666666666666,2.0689655172156955,0.5885416666666309,0.046855367720127106,0.8906398489408391,0
300,253.43055555555554,0.3138888888888687,0.3111111111111313,0.3958333333333286,0.7929824561403093,0.03809999005688958,0.9460641033574515,166.66666666666666,2.0689655172156955,0.7859649122807623,0.18379764258861542,0.8749589471743519,0
301,253.74166666666667,0.3111111111111313,0.19444444444442865,0.36805555555555713,0.8452830188679759,0.036069056289600256,0.8956338137258799,158.33333333333334,1.965517241354911,0.5283018867924076,0.07643285393714905,0.8775659862461351,0
302,253.9361111111111,0.19444444444442865,0.4361111111111313,0.3555555555555543,0.5468749999999575,0.03519977015289801,0.8740484955078884,152.77777777777777,1.8965517241143874,1.2265625000000613,0.10322050005197525,0.2342046075069505,0
303,254.37222222222223,0.4361111111111313,0.32499999999998863,0.3555555555555543,1.2265625000000613,0.03381813891872939,0.839741092467293,177.77777777777777,2.2068965516967416,0.9140624999999712,0.21524108946323395,0.8413817750764364,0
304,254.69722222222222,0.32499999999998863,0.30000000000001137,0.3347222222222115,0.9709543568464702,0.03636165980310794,0.90289947653137,141.66666666666666,1.758620689633341,0.8962655601660379,0.10374769568443298,0.8711983431993159,0
305,254.99722222222223,0.30000000000001137,0.20833333333331439,0.31944444444442865,0.9391304347826908,0.03513672801735063,0.8724830908620783,152.77777777777777,1.8965517241143874,0.6521739130434512,0.05249863862991333,0.8609012287500346,0
306,255.20555555555555,0.20833333333331439,0.4138888888888914,0.3125,0.666666666666606,0.0319788590535017,0.7940697772275298,169.44444444444446,2.1034482758359574,1.3244444444444525,0.07306234538555145,0.21734650814148093,0
307,255.61944444444444,0.4138888888888914,0.2083333333333428,0.3125,1.3244444444444525,0.0367924070638507,0.9135953985092968,144.44444444444446,1.7931034482536028,0.6666666666666969,0.1342889666557312,0.8574925325761693,0
308,255.82777777777778,0.2083333333333428,0.3027777777777487,0.30833333333335133,0.675675675675667,0.03267612674302106,0.8113836907088792,158.33333333333334,1.965517241354911,0.9819819819818304,0.07518108189105988,0.251932054417208,0
309,256.13055555555553,0.3027777777777487,0.30555555555559977,0.30694444444444,0.9864253393664354,0.03126271581319023,0.7762871633342158,166.66666666666666,2.0689655172156955,0.9954751131223303,0.04967951029539108,0.2302546212958369,0
310,256.43611111111113,0.30555555555559977,0.283333333333303,0.30416666666667425,1.0045662100457824,0.03328781472247056,0.826572567108803,152.77777777777777,1.8965517241143874,0.9315068493149457,0.05833858624100685,0.22769789574140964,0
311,256.71944444444443,0.283333333333303,0.2750000000000341,0.30138888888888005,0.9400921658985445,0.03784444841760533,0.9397187271124982,122.22222222222223,1.51724137929151,0.912442396313504,0.09812809526920319,0.22098437905269142,0
312,256.99444444444447,0.2750000000000341,0.29444444444442297,0.30138888888888005,0.912442396313504,0.044412304406834816,1.102805719475313,133.33333333333334,1.6551724137725565,0.9769585253455796,0.2544126510620117,0.19205236505398326,0
313,257.2888888888889,0.29444444444442297,0.3083333333333371,0.29722222222221717,0.9906542056074212,0.03750007977465155,0.9311676799617241,155.55555555555554,1.9310344827346488,1.0373831775701239,0.06403598934412003,0.1658271457112382,0
314,257.59722222222223,0.3083333333333371,0.29722222222221717,0.29722222222221717,1.0373831775701239,0.03840554136690681,0.9536512740026281,155.55555555555554,1.9310344827346488,1.0,0.07704562693834305,0.2108292262881516,0
315,257.89444444444445,0.29722222222221717,0.3055555555555429,0.29583333333332007,1.0046948356807792,0.040449007641764324,1.0043927593987556,155.55555555555554,1.9310344827346488,1.0328638497652618,0.09073497354984283,0.2350163312029812,0
316,258.2,0.3055555555555429,0.3055555555555429,0.29999999999998295,1.0185185185185344,0.03939365361164577,0.9781871734461619,161.11111111111111,1.9999999999751723,1.0185185185185344,0.08565515279769897,0.21802154877765262,0
317,258.50555555555553,0.3055555555555429,0.45277777777778283,0.29999999999998295,1.0185185185185344,0.03526080209624907,0.875563984899785,169.44444444444446,2.1034482758359574,1.5092592592593619,0.14944760501384735,0.1697110732376193,0
318,258.9583333333333,0.45277777777778283,0.19722222222225128,0.3041666666666458,1.4885844748859633,0.03343433233760863,0.8302107585095014,163.88888888888889,2.0344827585954337,0.6484018264841582,0.10899587720632553,0.8668165576119423,0
319,259.15555555555557,0.19722222222225128,0.3361111111111086,0.30138888888888005,0.6543778801844474,0.0416974204618342,1.0353922046341955,188.88888888888889,2.344827586177788,1.1152073732719137,0.09509778767824173,0.31967939125151673,0
320,259.4916666666667,0.3361111111111086,0.3333333333333144,0.30138888888888005,1.1152073732719137,0.04246894915087235,1.054550099329694,147.22222222222223,1.8275862068738644,1.105990783410108,0.1275927871465683,0.17921602452744045,0
321,259.825,0.3333333333333144,0.3944444444444457,0.3055555555555429,1.090909090909074,0.03955846459700757,0.9822796090834666,183.33333333333334,2.2758620689372653,1.2909090909091485,0.361785888671875,0.9647710758327626,0
322,260.21944444444443,0.3944444444444457,0.34444444444443434,0.30694444444444,1.28506787330319,0.041239320266454944,1.0240170796028707,144.44444444444446,1.7931034482536028,1.1221719457013406,0.25988632440567017,0.9583109701025696,0
323,260.56388888888887,0.34444444444443434,0.3972222222222399,0.32083333333332575,1.0735930735930674,0.04489509062563691,1.1147938252601788,169.44444444444446,2.1034482758359574,1.2380952380953225,0.43363815546035767,0.9377888294986539,0
324,260.9611111111111,0.3972222222222399,1.36388888888888,0.3347222222222115,1.1867219917013356,0.04902164639306517,1.2172606835516704,122.22222222222223,1.51724137929151,4.0746887966806025,0.0022003590129315853,0.9760649230811212,0
325,262.325,1.36388888888888,0.8222222222222513,0.34027777777777146,4.0081632653061705,0.04056231505034526,1.0072063053273193,88.88888888888889,1.1034482758483708,2.416326530612375,1.2834624385504867e-07,0.9925970059928831,0
326,263.14722222222224,0.8222222222222513,1.3138888888888687,0.36944444444444,2.225563909774541,0.032012679302075735,0.794909570705028,166.66666666666666,2.0689655172156955,3.5563909774435967,0.053992994129657745,0.7812502207184424,0
327,264.4611111111111,1.3138888888888687,1.0,0.3958333333333428,3.3192982456139046,0.042559040699628035,1.0567871702624256,88.88888888888889,1.1034482758483708,2.5263157894736237,5.7103366088995244e-06,0.9968844500702095,0
328,265.4611111111111,1.0,0.9833333333333485,0.3958333333333428,2.5263157894736237,0.040563714877648725,1.0072410645585088,80.55555555555556,0.9999999999875862,2.4842105263157683,3.272947287769057e-05,0.9991150382260372,0
329,266.44444444444446,0.9833333333333485,0.6722222222222172,0.6097222222222456,1.6127562642368651,0.04173810625949538,1.0364024771467666,80.55555555555556,0.9999999999875862,1.1025056947607694,0.0006520389579236507,0.9979640305769322,0
330,267.1166666666667,0.6722222222222172,0.38055555555553156,0.7472222222222342,0.8996282527880829,0.04294582681676398,1.0663914893331903,105.55555555555556,1.3103448275699405,0.5092936802973574,0.9255484938621521,0.3380459018708536,1
331,267.4972222222222,0.38055555555553156,1.6833333333333371,0.7472222222222342,0.5092936802973574,0.03719851067149833,0.9236793918349042,169.44444444444446,2.1034482758359574,2.252788104089188,0.9881861209869385,0.17035451224160159,1
332,269.18055555555554,1.6833333333333371,0.6333333333333258,0.9027777777777999,1.8646153846153433,0.03673448993730922,0.9121572533993193,83.33333333333333,1.0344827586078478,0.701538461538436,7.636238129931565e-16,0.9981992446239087,0
333,269.81388888888887,0.6333333333333258,0.3972222222222399,0.9027777777777999,0.701538461538436,0.040234063214688115,0.9990554559934293,197.22222222222223,2.448275862038573,0.44000000000000883,0.5616387724876404,0.8271607064702438,1
334,270.2111111111111,0.3972222222222399,0.48888888888888005,0.9027777777777999,0.44000000000000883,0.03965361603557278,0.9846423225717102,158.33333333333334,1.965517241354911,0.5415384615384384,0.23799914121627808,0.9251516666727809,0
335,270.7,0.48888888888888005,0.3361111111111086,0.7472222222222342,0.6542750929367807,0.034354288512770864,0.8530542687750803,175.0,2.17241379307648,0.44981412639404145,0.9537992477416992,0.1818933297522456,1
336,271.0361111111111,0.3361111111111086,0.32499999999998863,0.6527777777777715,0.5148936170212777,0.03665055272413171,0.9100730012983468,163.88888888888889,2.0344827585954337,0.4978723404255193,0.9321331977844238,0.2605162721911896,1
337,271.3611111111111,0.32499999999998863,0.30555555555559977,0.5611111111111029,0.5792079207920674,0.0396759573636601,0.9851970819953528,163.88888888888889,2.0344827585954337,0.5445544554456313,0.95298171043396,0.264120035275042,1
338,271.6666666666667,0.30555555555559977,0.7138888888888459,0.44305555555556,0.689655172413886,0.04087660130261706,1.0150103740687841,144.44444444444446,1.7931034482536028,1.6112852664575672,0.8415114879608154,0.19359526311178604,1
339,272.38055555555553,0.7138888888888459,0.21666666666669698,0.44305555555556,1.6112852664575672,0.03043407842900809,0.7557111977577371,161.11111111111111,1.9999999999751723,0.48902821316620776,0.13636188209056854,0.8607726665302641,0
340,272.59722222222223,0.21666666666669698,0.3111111111111313,0.38888888888888573,0.5571428571429397,0.03628601120673861,0.9010210397814513,111.11111111111111,1.3793103448104638,0.8000000000000584,0.4900888502597809,0.26570351288321215,0
341,272.90833333333336,0.3111111111111313,0.2694444444444457,0.36666666666667425,0.848484848484886,0.03879428385925082,0.9633041719930797,166.66666666666666,2.0689655172156955,0.7348484848484731,0.38815179467201233,0.29439028505170706,0
342,273.1777777777778,0.2694444444444457,0.283333333333303,0.3305555555555486,0.815126050420189,0.05434876017427313,1.3495387003011863,94.44444444444444,1.172413793088894,0.8571428571427835,0.9864752888679504,0.1325695021400667,1
343,273.4611111111111,0.283333333333303,0.4111111111110972,0.31805555555556,0.8908296943230364,0.050737533033999,1.259868011112496,116.66666666666667,1.4482758620509868,1.2925764192139122,0.8425264358520508,0.12975206611943751,1
344,273.8722222222222,0.4111111111110972,0.13333333333332575,0.31805555555556,1.2925764192139122,0.045909043214297104,1.139971368488023,122.22222222222223,1.51724137929151,0.419213973799097,0.19558317959308624,0.9267227095192836,0
345,274.00555555555553,0.13333333333332575,0.18055555555559977,0.30833333333336554,0.4324324324323627,0.04267192261653133,1.0595901507708436,133.33333333333334,1.6551724137725565,0.5855855855856678,0.14561061561107635,0.2556917332569834,0
346,274.18611111111113,0.18055555555559977,0.4111111111110972,0.2944444444444514,0.613207547169947,0.032181489921115004,0.7991013215873809,58.333333333333336,0.7241379310254934,1.3962264150942594,0.011508170515298843,0.8635443052851093,0
347,274.59722222222223,0.4111111111110972,0.669444444444423,0.2944444444444514,1.3962264150942594,0.03818199222285372,0.9481003061359928,122.22222222222223,1.51724137929151,2.273584905660251,0.375074177980423,0.16899242619605842,0
348,275.26666666666665,0.669444444444423,0.29722222222221717,0.29722222222221717,2.252336448598097,0.044454456770796374,1.1038524084207992,113.88888888888889,1.4137931034307252,1.0,0.37390565872192383,0.9197803477163236,0
349,275.56388888888887,0.29722222222221717,0.2888888888888914,0.2902777777777601,1.0239234449761214,0.04674620767237186,1.1607590705637616,180.55555555555554,2.2413793103170034,0.995215311004854,0.32706141471862793,0.8730196909579135,0
350,275.85277777777776,0.2888888888888914,0.6000000000000227,0.2930555555555543,0.9857819905213399,0.04783396403528984,1.1877692416062937,88.88888888888889,1.1034482758483708,2.0473933649289964,0.0347270630300045,0.9308905138177883,0
351,276.4527777777778,0.6000000000000227,0.4305555555555429,0.2930555555555543,2.0473933649289964,0.04145486141245305,1.029369200186652,130.55555555555554,1.6206896551522947,1.4691943127961717,0.1358303725719452,0.9422402785349226,0
352,276.8833333333333,0.4305555555555429,0.3611111111111427,0.3541666666666572,1.2156862745098007,0.038681047586721765,0.9604923924498887,152.77777777777777,1.8965517241143874,1.0196078431373714,0.19203974306583405,0.3979535499206128,0
353,277.24444444444447,0.3611111111111427,0.2888888888888914,0.38611111111111995,0.9352517985612114,0.0411648302213931,1.0221674109393024,155.55555555555554,1.9310344827346488,0.7482014388489103,0.45544716715812683,0.2467857825537761,0
354,277.53333333333336,0.2888888888888914,0.27222222222218306,0.32916666666667993,0.8776371308016601,0.03938294566674349,0.9779212835528142,133.33333333333334,1.6551724137725565,0.8270042194091304,0.21135105192661285,0.2525402257539721,0
355,277.80555555555554,0.27222222222218306,0.28333333333335986,0.32916666666667993,0.8270042194091304,0.04179387124710465,1.0377871823113225,122.22222222222223,1.51724137929151,0.860759493670932,0.4533510208129883,0.2511642867200282,0
356,278.0888888888889,0.28333333333335986,0.2861111111110972,0.32916666666667993,0.860759493670932,0.03930882658525189,0.976080826317305,152.77777777777777,1.8965517241143874,0.8691983122362097,0.20441731810569763,0.2581168880189574,0
357,278.375,0.2861111111110972,0.30277777777780557,0.2930555555555543,0.9763033175355018,0.040538738458690764,1.0066208729686617,138.88888888888889,1.7241379310130795,1.0331753554503362,0.0869828537106514,0.2141104939541399,0
358,278.6777777777778,0.30277777777780557,0.283333333333303,0.2930555555555543,1.0331753554503362,0.0425196817975133,1.0558098460063639,147.22222222222223,1.8275862068738644,0.9668246445496638,0.12188106775283813,0.28284078390358297,0
359,278.9611111111111,0.283333333333303,0.3361111111111086,0.2888888888888914,0.9807692307691173,0.041727357966333235,1.036135585362336,113.88888888888889,1.4137931034307252,1.1634615384615195,0.19355139136314392,0.1343741514254348,0
360,279.2972222222222,0.3361111111111086,0.3777777777777942,0.2958333333333485,1.1361502347417174,0.039566424612753455,0.9824772649135101,100.0,1.2413793103294173,1.2769953051643093,0.18948161602020264,0.27908556734263146,0
361,279.675,0.3777777777777942,0.2055555555555202,0.2958333333333485,1.2769953051643093,0.04616475677664142,1.1463210137691475,102.77777777777777,1.2758620689496787,0.6948356807510185,0.24940252304077148,0.9181109057148162,0
362,279.88055555555553,0.2055555555555202,0.591666666666697,0.2874999999999943,0.7149758454105192,0.03585496689745115,0.8903177417657703,83.33333333333333,1.0344827586078478,2.0579710144928995,0.16573116183280945,0.3407719579291345,0
363,280.47222222222223,0.591666666666697,1.2555555555555316,0.2874999999999943,2.0579710144928995,0.03420693573962567,0.8493953394946607,122.22222222222223,1.51724137929151,4.367149758454109,0.00022607907885685563,0.9468839344614357,0
364,281.72777777777776,1.2555555555555316,0.9055555555555657,0.2944444444444514,4.264150943396045,0.03625450597202211,0.9002387306105399,72.22222222222223,0.8965517241268014,3.0754716981131693,1.1369761902801923e-11,0.9948574755386936,0
365,282.6333333333333,0.9055555555555657,1.1083333333333485,0.3194444444444571,2.834782608695572,0.02594968994989299,0.6443589648761607,47.22222222222222,0.586206896544447,3.4695652173912146,3.511045633786125e-06,0.821558158198385,0
366,283.7416666666667,1.1083333333333485,0.6527777777777715,0.3569444444444514,3.1050583657587367,0.03546259874591816,0.8805748147226973,194.44444444444446,2.4137931034183113,1.8287937743190128,0.12461107224225998,0.8879765885443067,0
367,284.39444444444445,0.6527777777777715,1.1083333333333485,0.4847222222222456,1.346704871060094,0.04179633942168035,1.037848469764768,116.66666666666667,1.4482758620509868,2.286532951289319,0.8697327375411987,0.31493238935312406,1
368,285.5027777777778,1.1083333333333485,0.8527777777777601,0.6222222222222342,1.78124999999999,0.03811130719031232,0.9463451200629198,97.22222222222223,1.2068965517091557,1.3705357142856593,0.0028822303283959627,0.9958105006202375,0
369,286.35555555555555,0.8527777777777601,0.8277777777777828,0.7527777777777658,1.1328413284132788,0.035398453872382996,0.8789820278958397,72.22222222222223,0.8965517241268014,1.0996309963099873,2.0238285287632607e-06,0.9912235387035833,0
370,287.18333333333334,0.8277777777777828,0.8583333333333485,0.8402777777777715,0.9851239669421622,0.040252148479456615,0.9995045327457235,88.88888888888889,1.1034482758483708,1.021487603305811,0.00025549533893354237,0.9958841122914535,0
371,288.0416666666667,0.8583333333333485,0.4249999999999545,0.8555555555555543,1.0032467532467724,0.03884419627313276,0.9645435514001376,80.55555555555556,0.9999999999875862,0.4967532467531943,5.091403181722853e-06,0.9936084294257046,0
372,288.46666666666664,0.4249999999999545,0.4361111111111313,0.8555555555555543,0.4967532467531943,0.03549844757211152,0.881464979984116,183.33333333333334,2.2758620689372653,0.5097402597402841,0.905868649482727,0.3952894822606207,1
373,288.90277777777777,0.4361111111111313,0.8388888888889028,0.8555555555555543,0.5097402597402841,0.037296895742101946,0.9261223999161501,66.66666666666667,0.8275862068862783,0.9805194805194982,0.11828505992889404,0.9680934694876188,0
374,289.7416666666667,0.8388888888889028,0.8055555555555429,0.8458333333333314,0.9917898193760449,0.038759058073078195,0.9624294774915666,136.11111111111111,1.689655172392818,0.9523809523809396,0.1666114181280136,0.989396633466721,0
375,290.5472222222222,0.8055555555555429,0.8027777777778056,0.8333333333333428,0.9666666666666405,0.03630081160510869,0.9013885497359791,69.44444444444444,0.8620689655065398,0.9633333333333557,0.0003395392850507051,0.9637030501943655,0
376,291.35,0.8027777777778056,0.8027777777777487,0.8166666666666629,0.9829931972789502,0.03656193144750694,0.9078724388183248,75.0,0.9310344827470629,0.9829931972788806,5.452740879263729e-06,0.9920823174279081,0
377,292.15277777777777,0.8027777777777487,0.7555555555555884,0.8166666666666629,0.9829931972788806,0.039320828006379635,0.9763788346291519,72.22222222222223,0.8965517241268014,0.9251700680272554,3.1304707590606995e-06,0.9907740281115207,0
378,292.90833333333336,0.7555555555555884,0.7972222222222172,0.8041666666666742,0.9395509499136762,0.03687840616535642,0.9157308495352438,80.55555555555556,0.9999999999875862,0.9913644214162193,1.9201586837880313e-05,0.9981769193307033,0
379,293.7055555555556,0.7972222222222172,0.8527777777777601,0.8027777777777771,0.993079584775081,0.03595172678597934,0.8927203948122593,75.0,0.9310344827470629,1.0622837370242002,2.450605643389281e-05,0.9879842116001003,0
380,294.55833333333334,0.8527777777777601,0.8277777777777828,0.8027777777777771,1.0622837370242002,0.03986319488137825,0.9898463927707731,77.77777777777777,0.9655172413673244,1.0311418685121179,0.0009071321110241115,0.9580786146632305,0
381,295.3861111111111,0.8277777777777828,0.8027777777777487,0.8027777777777771,1.0311418685121179,0.03324005129153463,0.825386549280604,66.66666666666667,0.8275862068862783,0.9999999999999646,6.173760084493551e-06,0.9769832573733962,0
382,296.18888888888887,0.8027777777777487,0.8083333333333371,0.8027777777777771,0.9999999999999646,0.03449199220821596,0.8564736009839796,102.77777777777777,1.2758620689496787,1.006920415224919,0.12871725857257843,0.9705264801179542,0
383,296.9972222222222,0.8083333333333371,0.7722222222222399,0.8041666666666742,1.0051813471502542,0.03172431974067706,0.7877492898364021,202.77777777777777,2.517241379279096,0.9602763385146934,0.44778451323509216,0.8734389830946868,0
384,297.76944444444445,0.7722222222222399,0.7555555555555316,0.8027777777777771,0.9619377162629985,0.03464525674708645,0.860279325823448,108.33333333333333,1.344827586190202,0.9411764705882062,0.042337000370025635,0.9866739380902001,0
385,298.525,0.7555555555555316,0.7722222222222399,0.8027777777777487,0.9411764705882395,0.037816748099459875,0.9390308981495545,69.44444444444444,0.8620689655065398,0.9619377162630326,2.5218234895874048e-06,0.9936193175459112,0
386,299.2972222222222,0.7722222222222399,0.7916666666666856,0.799999999999983,0.9652777777778204,0.04095023297588907,1.0168387284292124,80.55555555555556,0.9999999999875862,0.9895833333333781,1.806070577003993e-05,0.99735633768255,0
387,300.0888888888889,0.7916666666666856,0.7777777777777715,0.7944444444444514,0.9965034965035117,0.03488969229165187,0.8663489256829934,194.44444444444446,2.4137931034183113,0.9790209790209625,0.3526778817176819,0.9747626031580316,0
388,300.8666666666667,0.7777777777777715,0.7444444444444116,0.7944444444444514,0.9790209790209625,0.039728080324245754,0.9864913516761893,102.77777777777777,1.2758620689496787,0.9370629370628876,0.11437606811523438,0.9628028949144651,0
389,301.6111111111111,0.7444444444444116,0.7666666666667084,0.7847222222222285,0.9486725663716319,0.0478776409780416,1.1888537874977794,122.22222222222223,1.51724137929151,0.9769911504425232,0.2159428894519806,0.9721968605815492,0
390,302.3777777777778,0.7666666666667084,0.7277777777777601,0.7750000000000057,0.9892473118280035,0.04554990092387675,1.1310534756366881,191.66666666666666,2.3793103447980495,0.9390681003583933,0.31788235902786255,0.9442448915015955,0
391,303.10555555555555,0.7277777777777601,0.7472222222222058,0.7722222222222399,0.9424460431654231,0.03974506888078602,0.9869131959729098,77.77777777777777,0.9655172413673244,0.9676258992805321,2.0092236809432507e-05,0.9942997874022184,0
392,303.85277777777776,0.7472222222222058,0.7416666666666742,0.7694444444444741,0.9711191335739484,0.04149853591050078,1.0304536853734831,83.33333333333333,1.0344827586078478,0.9638989169674816,2.4172288249246776e-05,0.9987095926359906,0
393,304.59444444444443,0.7416666666666742,0.7194444444444343,0.76111111111112,0.9744525547445242,0.039632773157019144,0.9841247712762693,72.22222222222223,0.8965517241268014,0.9452554744525304,1.4999488939793082e-06,0.9975129805989195,0
394,305.31388888888887,0.7194444444444343,0.76111111111112,0.7513888888888687,0.9574861367837462,0.040992999973520315,1.0179006793957845,86.11111111111111,1.0689655172281094,1.0129390018484679,0.00012776734365615994,0.9977355442342515,0
395,306.075,0.76111111111112,0.7833333333333599,0.7541666666666629,1.0092081031307718,0.03805696636788368,0.9449957784654577,77.77777777777777,0.9655172413673244,1.0386740331492117,5.5542814152431674e-06,0.9983389034392548,0
396,306.85833333333335,0.7833333333333599,0.7722222222221831,0.7541666666666629,1.0386740331492117,0.03959156140238589,0.9831014386812561,80.55555555555556,0.9999999999875862,1.0239410681399164,7.620127234986285e-06,0.9981866428210071,0
397,307.63055555555553,0.7722222222221831,0.7472222222222626,0.7541666666666629,1.0239410681399164,0.041238743066303325,1.0240027470966657,83.33333333333333,1.0344827586078478,0.9907918968693035,1.606127443665173e-05,0.9981119998029897,0
398,308.3777777777778,0.7472222222222626,0.7444444444444116,0.7472222222222342,1.000000000000038,0.03779454853196134,0.9384796587951856,72.22222222222223,0.8965517241268014,0.9962825278809809,1.6159182223418611e-06,0.9972859647901205,0
399,309.1222222222222,0.7444444444444116,0.7111111111111086,0.7472222222222342,0.9962825278809809,0.03853014986431782,0.9567454382320107,75.0,0.9310344827470629,0.9516728624535129,2.1040832507424057e-06,0.997861976663678,0
400,309.8333333333333,0.7111111111111086,0.7361111111111427,0.7458333333333087,0.9534450651769368,0.03914856074512086,0.9721012515689653,75.0,0.9310344827470629,0.9869646182496093,5.222435902396683e-06,0.9984571976477885,0
401,310.56944444444446,0.7361111111111427,0.7166666666666401,0.7458333333333087,0.9869646182496093,0.03914991393025118,0.9721348526243746,77.77777777777777,0.9655172413673244,0.9608938547485996,4.210432052786928e-06,0.9987014167419808,0
402,311.2861111111111,0.7166666666666401,0.7833333333333599,0.7430555555555429,0.9644859813083919,0.03991443930379744,0.9911188473954512,83.33333333333333,1.0344827586078478,1.0542056074766892,8.613122918177396e-05,0.9980570603317898,0
403,312.06944444444446,0.7833333333333599,0.7722222222221831,0.7458333333333371,1.0502793296089687,0.040466938826690994,1.004838010181353,83.33333333333333,1.0344827586078478,1.0353817504654916,2.134969508915674e-05,0.9979112071759288,0
404,312.84166666666664,0.7722222222221831,0.7583333333333826,0.7541666666666913,1.0239410681398777,0.04113474759653425,1.0214204267151274,83.33333333333333,1.0344827586078478,1.0055248618784856,1.603362034074962e-05,0.9987661268004209,0
405,313.6,0.7583333333333826,0.7333333333332916,0.7527777777778226,1.0073800738007435,0.03758245151609581,0.93321305970054,75.0,0.9310344827470629,0.9741697416973035,1.94516883311735e-06,0.9976957077058667,0
406,314.3333333333333,0.7333333333332916,0.73888888888888,0.7458333333333371,0.9832402234636263,0.03990537217244434,0.9908937006833185,83.33333333333333,1.0344827586078478,0.9906890130353648,3.00860501738498e-05,0.9973183726025405,0
407,315.0722222222222,0.73888888888888,0.7444444444444684,0.7416666666666458,0.9962546816479562,0.04178543431003292,1.0375776840071516,83.33333333333333,1.0344827586078478,1.0037453183521206,3.657607521745376e-05,0.9971201705444033,0
408,315.81666666666666,0.7444444444444684,0.7416666666666742,0.7416666666666458,1.0037453183521206,0.041106928026186824,1.0207296365905834,80.55555555555556,0.9999999999875862,1.0000000000000384,1.664967385295313e-05,0.9964876841615304,0
409,316.55833333333334,0.7416666666666742,0.7083333333333144,0.7402777777777771,1.001876172607891,0.03973308347234245,0.9866155852733898,75.0,0.9310344827470629,0.956848030018737,4.732897650683299e-06,0.9943366032105531,0
410,317.26666666666665,0.7083333333333144,0.7666666666667084,0.7402777777777771,0.956848030018737,0.04089916593110902,1.0155706782838236,77.77777777777777,0.9655172413673244,1.0356472795497758,2.1050220311735757e-05,0.9981941555057758,0
411,318.03333333333336,0.7666666666667084,0.7777777777777715,0.7430555555555713,1.0317757009346136,0.041150045440639146,1.021800288787133,83.33333333333333,1.0344827586078478,1.046728971962586,2.7541704184841365e-05,0.9989784637354726,0
412,318.81111111111113,0.7777777777777715,0.7805555555555088,0.7513888888889255,1.035120147874248,0.039474305165756944,0.9801898390665634,80.55555555555556,0.9999999999875862,1.0388170055451738,9.755680366652086e-06,0.9982492585313936,0
413,319.59166666666664,0.7805555555555088,0.7555555555555884,0.7513888888889255,1.0388170055451738,0.041034251700672646,1.018925004551829,80.55555555555556,0.9999999999875862,1.0055452865064642,6.242609288165113e-06,0.9994107367878892,0
414,320.34722222222223,0.7555555555555884,0.7444444444444116,0.7500000000000284,1.007407407407413,0.039057710225139874,0.9698453345569915,77.77777777777777,0.9655172413673244,0.9925925925925112,7.905228812887799e-06,0.9947011027587179,0
415,321.09166666666664,0.7444444444444116,0.716666666666697,0.74444444444444,0.9999999999999618,0.03959062573571988,0.9830782050624519,88.88888888888889,1.1034482758483708,0.9626865671642255,6.954126729397103e-05,0.9979271035095689,0
416,321.80833333333334,0.716666666666697,0.7166666666666401,0.74444444444444,0.9626865671642255,0.0386396902103267,0.9594654439084851,86.11111111111111,1.0689655172281094,0.9626865671641492,0.0003458573773968965,0.988245481786147,0
417,322.525,0.7166666666666401,0.580555555555577,0.74444444444444,0.9626865671641492,0.03439534137970209,0.85407365601601,80.55555555555556,0.9999999999875862,0.7798507462686902,2.7176203730050474e-05,0.9893653628358905,0
418,323.10555555555555,0.580555555555577,0.9111111111110972,0.7430555555555429,0.7813084112149955,0.02862885072053448,0.7108854345272745,61.111111111111114,0.758620689645755,1.2261682242990675,0.9894120097160339,0.5759094750686491,1
419,324.01666666666665,0.9111111111110972,0.7666666666667084,0.75,1.2148148148147964,0.031835635054603455,0.7905133698926561,63.888888888888886,0.7931034482660165,1.0222222222222779,1.95469765458256e-05,0.9564823937508952,0
420,324.78333333333336,0.7666666666667084,0.7638888888888573,0.7611111111111484,1.0072992700729981,0.03581381513768076,0.8892958989083148,63.888888888888886,0.7931034482660165,1.0036496350364057,9.450866969018534e-07,0.9895162158965407,0
421,325.5472222222222,0.7638888888888573,0.7361111111111427,0.7597222222222229,1.005484460694656,0.03993698958008075,0.9916787952295735,75.0,0.9310344827470629,0.9689213893967501,3.713877276823041e-06,0.9941887250287185,0
422,326.28333333333336,0.7361111111111427,0.7111111111111086,0.75,0.9814814814815236,0.03725583239379798,0.9251027524113598,77.77777777777777,0.9655172413673244,0.9481481481481447,6.827412562415702e-06,0.9955629293408517,0
423,326.99444444444447,0.7111111111111086,0.7083333333333144,0.7402777777777771,0.960600375234519,0.040403734402367,1.0032685757290862,75.0,0.9310344827470629,0.956848030018737,4.4674681703327224e-05,0.9858657657739995,0
424,327.7027777777778,0.7083333333333144,0.658333333333303,0.7263888888889198,0.975143403441615,0.03825290146389801,0.949861059549528,80.55555555555556,0.9999999999875862,0.9063097514339541,4.540189547697082e-05,0.9897114079461302,0
425,328.3611111111111,0.658333333333303,0.6555555555555657,0.7166666666666686,0.9186046511627459,0.03434186784959963,0.8527458502282866,88.88888888888889,1.1034482758483708,0.9147286821705544,0.0004194891080260277,0.9896742116885371,0
426,329.01666666666665,0.6555555555555657,0.6888888888889255,0.7138888888888744,0.9182879377432235,0.03949238923657172,0.980638886171691,102.77777777777777,1.2758620689496787,0.9649805447471527,0.008177453652024269,0.9934157065768051,0
427,329.7055555555556,0.6888888888889255,0.6805555555555429,0.7097222222222115,0.9706457925636671,0.03910397643428006,0.9709941747430546,83.33333333333333,1.0344827586078478,0.9589041095890378,5.817820056108758e-05,0.9950040249393358,0
428,330.3861111111111,0.6805555555555429,0.7333333333333485,0.7097222222222115,0.9589041095890378,0.03868880875973522,0.9606851107990801,86.11111111111111,1.0689655172281094,1.0332681017612895,0.0005519294645637274,0.9898700718953031,0
429,331.11944444444447,0.7333333333333485,0.6861111111110745,0.7097222222222115,1.0332681017612895,0.03659736837490572,0.9087523761856368,88.88888888888889,1.1034482758483708,0.9667318982387105,0.0014649928780272603,0.980600821120772,0
430,331.80555555555554,0.6861111111110745,0.6888888888889255,0.69861111111112,0.9821073558647463,0.03614522692372035,0.8975252132397222,75.0,0.9310344827470629,0.9860834990060041,2.130106986442115e-05,0.9911418149679758,0
431,332.49444444444447,0.6888888888889255,0.6861111111110745,0.6888888888889255,1.0,0.04007036577346054,0.9949906708655164,77.77777777777777,0.9655172413673244,0.9959677419353777,2.6960866307490505e-05,0.9954384849299318,0
432,333.18055555555554,0.6861111111110745,0.6444444444444457,0.6875,0.9979797979797447,0.034539157478977844,0.8576447658458688,77.77777777777777,0.9655172413673244,0.9373737373737392,6.625887908739969e-05,0.9868165830398408,0
433,333.825,0.6444444444444457,0.6861111111111313,0.6861111111110745,0.9392712550607807,0.03863093758071231,0.959248106615856,75.0,0.9310344827470629,1.0000000000000828,6.84176484355703e-05,0.9894345088457088,0
434,334.5111111111111,0.6861111111111313,0.6972222222221944,0.6861111111110745,1.0000000000000828,0.036052757861158365,0.895229106058844,77.77777777777777,0.9655172413673244,1.0161943319838194,7.813926640665159e-05,0.9898342627863421,0
435,335.2083333333333,0.6972222222221944,0.6972222222222513,0.6861111111111029,1.0161943319837774,0.03958944733940056,0.9830489442029198,91.66666666666667,1.1379310344686326,1.0161943319838602,0.0005013102199882269,0.9945073395046244,0
436,335.90555555555557,0.6972222222222513,0.7638888888888573,0.6875000000000284,1.0141414141414145,0.04191443041042763,1.0407807971805225,88.88888888888889,1.1034482758483708,1.1111111111110192,0.0004026971000712365,0.9983674586392417,0
437,336.6694444444444,0.7638888888888573,0.7250000000000227,0.6875000000000284,1.1111111111110192,0.04148810255209307,1.0301946137608067,80.55555555555556,0.9999999999875862,1.054545454545444,2.8603846658370458e-05,0.9979992479626502,0
438,337.39444444444445,0.7250000000000227,0.6916666666666629,0.69305555555556,1.0460921843687636,0.04193615056439174,1.0413201321765202,83.33333333333333,1.0344827586078478,0.997995991983956,3.4522632631706074e-05,0.9990221178171614,0
439,338.0861111111111,0.6916666666666629,0.7333333333333485,0.6902777777777942,1.0020120724345782,0.03947599243373703,0.9802317357617153,77.77777777777777,0.9655172413673244,1.0623742454728338,2.8461265173973516e-05,0.9977976871462575,0
440,338.81944444444446,0.7333333333333485,0.6861111111110745,0.6944444444444287,1.0560000000000458,0.03853378872964451,0.9568357952073642,77.77777777777777,0.9655172413673244,0.9879999999999697,1.1012006325472612e-05,0.9966494288066255,0
441,339.50555555555553,0.6861111111110745,0.7444444444444684,0.6944444444444287,0.9879999999999697,0.0359301972432875,0.8921857929010242,69.44444444444444,0.8620689655065398,1.072000000000059,9.132349805440754e-05,0.983160099641025,0
442,340.25,0.7444444444444684,0.7138888888889028,0.6972222222222229,1.0677290836653721,0.03946122040448569,0.979864930243195,83.33333333333333,1.0344827586078478,1.0239043824701386,3.6177036236040294e-05,0.9976264202000451,0
443,340.9638888888889,0.7138888888889028,0.7722222222221831,0.705555555555577,1.0118110236220361,0.04037938314987141,1.0026639077009982,75.0,0.9310344827470629,1.0944881889762892,1.7212159946211614e-05,0.9972840289287502,0
444,341.7361111111111,0.7722222222221831,0.8083333333333371,0.7194444444444628,1.0733590733589915,0.03490355376024161,0.866693120992047,75.0,0.9310344827470629,1.1235521235521002,8.295850420836359e-05,0.9841022247760349,0
445,342.5444444444444,0.8083333333333371,0.7972222222222172,0.7291666666666856,1.108571428571405,0.04136705091879645,1.0271887703276792,83.33333333333333,1.0344827586078478,1.093333333333298,3.0765826522838324e-05,0.9990875103381387,0
446,343.34166666666664,0.7972222222222172,0.7833333333333599,0.7388888888889085,1.0789473684210171,0.04168260243452598,1.0350242569340007,80.55555555555556,0.9999999999875862,1.0601503759398574,1.2861736649938393e-05,0.9979186186957638,0
447,344.125,0.7833333333333599,0.76111111111112,0.7388888888889085,1.0601503759398574,0.03943788192147114,0.9792854103804887,77.77777777777777,0.9655172413673244,1.0300751879699095,1.978866566787474e-05,0.9893323612925765,0
448,344.8861111111111,0.76111111111112,0.7583333333333258,0.7527777777777942,1.0110701107010966,0.03919175973124123,0.9731739292785629,83.33333333333333,1.0344827586078478,1.007380073800706,1.9114220776828006e-05,0.997686425622845,0
449,345.64444444444445,0.7583333333333258,0.7527777777777942,0.7597222222222229,0.9981718464350897,0.040189448856682096,0.9979476330637956,80.55555555555556,0.9999999999875862,0.9908592321755235,1.2202552170492709e-05,0.9965568012417414,0
450,346.39722222222224,0.7527777777777942,0.7638888888888573,0.7597222222222229,0.9908592321755235,0.03935962043059651,0.9773420926242065,77.77777777777777,0.9655172413673244,1.005484460694656,7.578614713565912e-06,0.9967294699312903,0
451,347.1611111111111,0.7638888888888573,0.7861111111110972,0.7624999999999886,1.0018214936247458,0.03944973766198568,0.9795798012846011,80.55555555555556,0.9999999999875862,1.0309653916211265,1.2117064215999562e-05,0.9984081409115942,0
452,347.9472222222222,0.7861111111110972,0.7833333333333599,0.7680555555555202,1.023508137432217,0.04125924071935246,1.024511726068154,80.55555555555556,0.9999999999875862,1.0198915009042406,8.401436389249284e-06,0.9986230486959389,0
453,348.73055555555555,0.7833333333333599,0.7861111111110972,0.7777777777777715,1.0071428571428995,0.040162543407715426,0.9972795415652396,83.33333333333333,1.0344827586078478,1.0107142857142761,2.29794950428186e-05,0.9972939091753632,0
454,349.51666666666665,0.7861111111110972,0.7638888888889142,0.7833333333333599,1.0035460992907284,0.03916127135673295,0.972416869850229,83.33333333333333,1.0344827586078478,0.9751773049645382,3.308843224658631e-05,0.9932742050407621,0
455,350.28055555555557,0.7638888888889142,0.7583333333333258,0.773611111111137,0.9874326750448829,0.038923575221858284,0.966514616847644,80.55555555555556,0.9999999999875862,0.9802513464990598,7.112293133104686e-06,0.9987763805845622,0
456,351.0388888888889,0.7583333333333258,0.76111111111112,0.7638888888888857,0.9927272727272669,0.04003766146129899,0.9941785873002754,77.77777777777777,0.9655172413673244,0.9963636363636521,4.027566319564357e-06,0.9995213353082746,0
457,351.8,0.76111111111112,0.73888888888888,0.7624999999999886,0.9981785063752542,0.04067729839151054,1.0100614664808563,80.55555555555556,0.9999999999875862,0.9690346083788736,7.632228516740724e-06,0.9981761163238858,0
458,352.5388888888889,0.73888888888888,0.73888888888888,0.7624999999999886,0.9690346083788736,0.04053620965054613,1.0065580799178933,75.0,0.9310344827470629,0.9690346083788736,2.4144226699718274e-05,0.9880194164254525,0
459,353.27777777777777,0.73888888888888,0.7805555555555657,0.7624999999999886,0.9690346083788736,0.03879728648276007,0.9633787303935872,75.0,0.9310344827470629,1.0236794171220687,6.2835415519657545e-06,0.9972744715035078,0
460,354.05833333333334,0.7805555555555657,0.8083333333333371,0.7638888888888857,1.0218181818181993,0.041475760907531245,1.0298881573318441,86.11111111111111,1.0689655172281094,1.0581818181818274,7.927135447971523e-05,0.9981624713942194,0
461,354.8666666666667,0.8083333333333371,0.7805555555555657,0.7722222222222399,1.0467625899280384,0.04123533940859372,1.0239182305817174,86.11111111111111,1.0689655172281094,1.0107913669064648,2.1689742425223812e-05,0.9991982527180492,0
462,355.64722222222224,0.7805555555555657,0.7694444444444457,0.7722222222222399,1.0107913669064648,0.03798276875417975,0.9431533711898848,69.44444444444444,0.8620689655065398,0.9964028776978205,6.13799727489095e-07,0.9967358539706184,0
463,356.4166666666667,0.7694444444444457,0.7444444444444116,0.7666666666666799,1.0036231884057814,0.03949282109778515,0.9806496097543231,77.77777777777777,0.9655172413673244,0.9710144927535636,3.6547899071592838e-06,0.9974800610574261,0
464,357.1611111111111,0.7444444444444116,0.73888888888888,0.762500000000017,0.976320582877895,0.040833339759476506,1.0139361430004816,77.77777777777777,0.9655172413673244,0.9690346083788374,5.83208748139441e-06,0.9982792971410235,0
465,357.9,0.73888888888888,0.7305555555555543,0.7597222222222229,0.9725776965264957,0.03942721294207256,0.9790204880428873,77.77777777777777,0.9655172413673244,0.9616087751371091,4.487291789700976e-06,0.9991136601790478,0
466,358.63055555555553,0.7305555555555543,0.7638888888889142,0.7527777777777658,0.9704797047970618,0.03722026944959427,0.9242196859100142,69.44444444444444,0.8620689655065398,1.0147601476015258,2.2118967990536476e-06,0.9954904747522813,0
467,359.39444444444445,0.7638888888889142,0.8027777777777487,0.7541666666666629,1.0128913443830956,0.040566560382072646,1.007311721521605,80.55555555555556,0.9999999999875862,1.0644567219152523,1.611051629879512e-05,0.9997210510427572,0
468,360.1972222222222,0.8027777777777487,0.7916666666666856,0.7666666666666799,1.0471014492753064,0.040848236252688845,1.0143060390942353,83.33333333333333,1.0344827586078478,1.0326086956521807,1.3085036698612384e-05,0.9994793417621435,0
469,360.9888888888889,0.7916666666666856,0.76111111111112,0.7750000000000057,1.0215053763441029,0.040381464650051144,1.002715593609531,80.55555555555556,0.9999999999875862,0.9820788530465991,4.780214112543035e-06,0.9990086116387478,0
470,361.75,0.76111111111112,0.76111111111112,0.7666666666666799,0.9927536231884001,0.04085102940565278,1.0143753961137627,77.77777777777777,0.9655172413673244,0.9927536231884001,4.23684696215787e-06,0.9993238928272115,0
471,362.5111111111111,0.76111111111112,0.7777777777777715,0.762500000000017,0.998178506375217,0.041745313470605214,1.0365814400206717,102.77777777777777,1.2758620689496787,1.0200364298724645,0.006935346405953169,0.9943644759155601,0
472,363.2888888888889,0.7777777777777715,0.7527777777777942,0.762500000000017,1.0200364298724645,0.04091857261932261,1.0160525674144116,80.55555555555556,0.9999999999875862,0.9872495446265933,6.3615329963795375e-06,0.998609324314248,0
473,364.0416666666667,0.7527777777777942,0.7138888888888459,0.76111111111112,0.989051094890521,0.03977670833296544,0.9876988379090927,75.0,0.9310344827470629,0.9379562043794947,1.8471509974915534e-06,0.9984575001935265,0
474,364.75555555555553,0.7138888888888459,0.7722222222222399,0.76111111111112,0.9379562043794947,0.03750493513600901,0.931288243853795,86.11111111111111,1.0689655172281094,1.014598540145997,0.00022878397430758923,0.9953841061377988,0
475,365.52777777777777,0.7722222222222399,0.8000000000000114,0.762500000000017,1.0127504553734068,0.04061145366004353,1.0084264703366805,77.77777777777777,0.9655172413673244,1.0491803278688439,6.994913292146521e-06,0.9986178036408617,0
476,366.3277777777778,0.8000000000000114,0.7972222222222172,0.768055555555577,1.0415913200723184,0.038941365754543995,0.9669563750824474,72.22222222222223,0.8965517241268014,1.0379746835442683,1.7296536043431843e-06,0.9946592150749376,0
477,367.125,0.7972222222222172,0.7833333333333599,0.7750000000000057,1.0286738351254339,0.041072452570191015,1.0198735736017002,86.11111111111111,1.0689655172281094,1.0107526881720699,2.950153429992497e-05,0.9986284918229065,0
478,367.90833333333336,0.7833333333333599,0.7722222222221831,0.7750000000000057,1.0107526881720699,0.040192149641510334,0.9980146964822657,77.77777777777777,0.9655172413673244,0.9964157706092611,2.86040221908479e-06,0.9990869917137567,0
479,368.68055555555554,0.7722222222221831,0.7416666666666742,0.7722222222222115,0.9999999999999631,0.041125045966402964,1.0211795247097053,86.11111111111111,1.0689655172281094,0.9604316546762821,4.099207581020892e-05,0.9970791040641532,0
480,369.4222222222222,0.7416666666666742,0.7472222222222058,0.7722222222222115,0.9604316546762821,0.039914197067199175,0.9911128323978148,77.77777777777777,0.9655172413673244,0.9676258992805677,5.4529905355593655e-06,0.9994213492772727,0
481,370.1694444444444,0.7472222222222058,0.7555555555555884,0.7722222222222115,0.9676258992805677,0.03788823659128118,0.9408060349885489,72.22222222222223,0.8965517241268014,0.9784172661871064,3.195131284883246e-06,0.9945050045867301,0
482,370.925,0.7555555555555884,0.7777777777777715,0.7638888888888857,0.9890909090909562,0.04001598847747825,0.9936404235901318,80.55555555555556,0.9999999999875862,1.018181818181814,1.1565045497263782e-05,0.9990454330027008,0
483,371.7027777777778,0.7777777777777715,0.8027777777777487,0.7722222222222115,1.0071942446043223,0.040944216854558874,1.0166893416072358,80.55555555555556,0.9999999999875862,1.039568345323718,1.1561141946003772e-05,0.9994444988919554,0
484,372.50555555555553,0.8027777777777487,0.7888888888888914,0.7750000000000057,1.0358422939067649,0.041024662561957755,1.0186868958303639,83.33333333333333,1.0344827586078478,1.0179211469534009,1.0954438948829193e-05,0.999715646309571,0
485,373.2944444444444,0.7888888888888914,0.7694444444444457,0.7805555555555657,1.01067615658362,0.04050889890354979,1.005879924429387,80.55555555555556,0.9999999999875862,0.985765124555149,6.274295628827531e-06,0.9986373029294568,0
486,374.06388888888887,0.7694444444444457,0.7750000000000341,0.7749999999999773,0.9928315412186688,0.0393801897400145,0.9778528509011024,80.55555555555556,0.9999999999875862,1.0000000000000733,9.308353583037388e-06,0.9981252017326812,0
487,374.8388888888889,0.7750000000000341,0.7694444444444457,0.7736111111111086,1.0017953321364925,0.04004507643528465,0.994362709151874,83.33333333333333,1.0344827586078478,0.9946140035906692,1.4271410691435449e-05,0.9991395712331714,0
488,375.60833333333335,0.7694444444444457,0.7583333333333258,0.7708333333333144,0.9981981981982244,0.04070967717674877,1.0108654668592938,80.55555555555556,0.9999999999875862,0.9837837837837982,6.802144071116345e-06,0.9993092248503403,0
489,376.3666666666667,0.7583333333333258,0.7555555555555316,0.7694444444444457,0.9855595667869922,0.03907571900598453,0.9702925121304481,75.0,0.9310344827470629,0.9819494584837217,2.0223544652253622e-06,0.9990361570079682,0
490,377.1222222222222,0.7555555555555316,0.7861111111111541,0.7694444444444457,0.9819494584837217,0.04096706015253072,1.0172565654879033,77.77777777777777,0.9655172413673244,1.0216606498195486,6.530676728289109e-06,0.9995808792367316,0
491,377.90833333333336,0.7861111111111541,0.8194444444444002,0.7722222222222399,1.0179856115108237,0.040773058355929245,1.0124392903264805,83.33333333333333,1.0344827586078478,1.061151079136609,2.9055441700620577e-05,0.9995320261284149,0
492,378.72777777777776,0.8194444444444002,0.8166666666666629,0.7763888888889028,1.0554561717351656,0.04161757142034834,1.0334094662732543,88.88888888888889,1.1034482758483708,1.0518783542039118,8.405870175920427e-05,0.9983286152470656,0
493,379.5444444444444,0.8166666666666629,0.7888888888888914,0.7805555555555941,1.046263345195673,0.03956471476479982,0.9824348075331087,77.77777777777777,0.9655172413673244,1.0106761565835833,1.643432597120409e-06,0.9995301288923066,0
494,380.3333333333333,0.7888888888888914,0.7555555555555884,0.7805555555555941,1.0106761565835833,0.039735402197330884,0.9866731617313845,75.0,0.9310344827470629,0.9679715302491047,1.3448983509078971e-06,0.9983249633816371,0
495,381.0888888888889,0.7555555555555884,0.7638888888888573,0.7722222222222399,0.9784172661870705,0.041529238438384936,1.0312160624625626,83.33333333333333,1.0344827586078478,0.9892086330934616,2.227586264780257e-05,0.9995002270599168,0
496,381.85277777777776,0.7638888888888573,0.75,0.7722222222222399,0.9892086330934616,0.040135737408395544,0.9966139195093466,77.77777777777777,0.9655172413673244,0.9712230215827116,3.246499545639381e-06,0.9996647532141723,0
497,382.60277777777776,0.75,0.7722222222222399,0.7666666666666515,0.9782608695652367,0.036949860498727886,0.9175051381828562,66.66666666666667,0.8275862068862783,1.007246376811637,7.968437785166316e-07,0.9955762471288973,0
498,383.375,0.7722222222222399,0.8277777777777828,0.7680555555555486,1.0054249547920755,0.04150557541677912,1.0306284839544106,88.88888888888889,1.1034482758483708,1.0777576853526385,0.00024349484010599554,0.9984775636928516,0
499,384.2027777777778,0.8277777777777828,0.8194444444444571,0.779166666666697,1.0623885918003217,0.041352455853695055,1.0268263590210627,80.55555555555556,0.9999999999875862,1.0516934046345563,6.597997980861692e-06,0.9991143498889294,0
500,385.02222222222224,0.8194444444444571,0.7916666666666288,0.7875000000000227,1.0405643738976933,0.0442310430678353,1.0983048037034742,86.11111111111111,1.0689655172281094,1.005291005290928,9.254459291696548e-05,0.9933782446169732,0
501,385.81388888888887,0.7916666666666288,0.8027777777778056,0.7902777777777601,1.0017574692442628,0.038209756100461595,0.9487897133493701,77.77777777777777,0.9655172413673244,1.015817223198652,1.619996692170389e-05,0.9902644328929743,0
502,386.6166666666667,0.8027777777778056,0.8027777777777487,0.7902777777777601,1.015817223198652,0.041338025361378344,1.026468034235302,91.66666666666667,1.1379310344686326,1.01581722319858,0.0002918743994086981,0.9961127506953817,0
503,387.4194444444444,0.8027777777777487,0.7750000000000341,0.7902777777777601,1.01581722319858,0.04029495587328629,1.0005674867937449,75.0,0.9310344827470629,0.9806678383128946,1.6670475133651053e-06,0.9971897657312804,0
504,388.19444444444446,0.7750000000000341,0.7555555555555316,0.7833333333333314,0.9893617021277055,0.0415744611988771,1.0323389926862316,83.33333333333333,1.0344827586078478,0.9645390070921703,1.9436931324889883e-05,0.9983705707006907,0
505,388.95,0.7555555555555316,0.8055555555555429,0.7833333333333314,0.9645390070921703,0.04067615732164916,1.0100331324777854,83.33333333333333,1.0344827586078478,1.0283687943262274,4.240123234922066e-05,0.9996888629560872,0
506,389.75555555555553,0.8055555555555429,0.8166666666666629,0.7972222222221887,1.0104529616725004,0.041384353243189995,1.0276184058207314,83.33333333333333,1.0344827586078478,1.0243902439024772,1.839034302975051e-05,0.9995117636918509,0
507,390.5722222222222,0.8166666666666629,0.8388888888889028,0.8027777777777771,1.0173010380622798,0.03913707977691968,0.9718161666681371,80.55555555555556,0.9999999999875862,1.044982698961956,7.355414709309116e-06,0.9994937958706275,0
508,391.4111111111111,0.8388888888889028,0.8166666666666629,0.8041666666666742,1.0431778929188331,0.03927903523014904,0.9753410746372889,80.55555555555556,0.9999999999875862,1.0155440414507628,4.5110195969755296e-06,0.9979191625411481,0
509,392.22777777777776,0.8166666666666629,0.7888888888888914,0.8041666666666742,1.0155440414507628,0.03962730164140095,0.9839889076051869,75.0,0.9310344827470629,0.9810017271157107,9.712205155665288e-07,0.9992141807645202,0
510,393.01666666666665,0.7888888888888914,0.7750000000000341,0.8027777777777771,0.9826989619377202,0.039257813714037776,0.9748141213603534,72.22222222222223,0.8965517241268014,0.9653979238754757,8.400374440498126e-07,0.9990856151048102,0
511,393.7916666666667,0.7750000000000341,0.783333333333303,0.8027777777777771,0.9653979238754757,0.04049800198476551,1.0056093421094543,77.77777777777777,0.9655172413673244,0.9757785467127658,4.726857696368825e-06,0.9996926451361136,0
512,394.575,0.783333333333303,0.7944444444444798,0.7958333333333201,0.9842931937172558,0.038008467040026424,0.9437914875180269,69.44444444444444,0.8620689655065398,0.9982547993019808,8.676830134390912e-07,0.9960924444907633,0
513,395.36944444444447,0.7944444444444798,0.8388888888888459,0.7916666666666856,1.0035087719298452,0.03966327796374541,0.9848822387344099,83.33333333333333,1.0344827586078478,1.059649122806938,2.9255517802084796e-05,0.9996625282210938,0
514,396.2083333333333,0.8388888888888459,0.8194444444444571,0.8000000000000114,1.0486111111110425,0.04119866447545635,1.0230075521882982,83.33333333333333,1.0344827586078478,1.0243055555555567,1.18682837637607e-05,0.9983120561292805,0
515,397.02777777777777,0.8194444444444571,0.8111111111111313,0.8111111111111029,1.0102739726027656,0.04085048842748664,1.0143619630387692,80.55555555555556,0.9999999999875862,1.000000000000035,6.067278718546731e-06,0.9995519912221444,0
516,397.8388888888889,0.8111111111111313,0.8138888888888687,0.8138888888888971,0.9965870307167384,0.040042428341898854,0.9942969541191063,86.11111111111111,1.0689655172281094,0.999999999999965,3.364157964824699e-05,0.9995984584299449,0
517,398.65277777777777,0.8138888888888687,0.8055555555555429,0.8125,1.0017094017093768,0.04050505584417186,1.0057844970941279,80.55555555555556,0.9999999999875862,0.9914529914529759,6.370810297084972e-06,0.9993790829478519,0
