beat_index,peak_time_s,rr_prev_s,rr_next_s,rr_baseline_s,prematurity_index,aa_ratio,morph_index,qrs_width_ms,width_index,pause_index,pvc_score,morphology_score,is_pvc_candidate
0,0.13055555555555556,,0.45277777777777783,0.5805555555556339,,0.024548271135470923,0.9227551171454822,44.44444444444444,1.0666666666410667,0.7799043062199906,2.1270587560283115e-18,0.9981332400173639,0
1,0.5833333333333334,0.45277777777777783,0.7611111111111112,0.5805555555556339,0.7799043062199906,0.041774424469941104,1.5702761197608925,108.33333333333333,2.5999999999376002,1.3110047846888184,0.9998599290847778,0.8499490118674553,1
2,1.3444444444444446,0.7611111111111112,0.5916666666666666,0.5805555555556339,1.3110047846888184,0.02342410035668404,0.8804981967722945,41.666666666666664,0.9999999999760001,1.0191387559807237,8.74132728290033e-19,0.9983641737201777,0
3,1.9361111111111111,0.5916666666666666,0.4361111111111111,0.5805555555556339,1.0191387559807237,0.043374229804395835,1.6304118641747496,91.66666666666667,2.1999999999472006,0.7511961722487025,0.09524820744991302,0.9001175841428305,0
4,2.3722222222222222,0.4361111111111111,0.911111111111111,0.5805555555556339,0.7511961722487025,0.049241126605278025,1.850945074635994,113.88888888888889,2.7333333332677334,1.5693779904304102,0.999840497970581,0.8189696807319486,1
5,3.283333333333333,0.911111111111111,0.5472222222222225,0.5916666666666666,1.539906103286385,0.02294206342831832,0.8623787112961933,41.666666666666664,0.9999999999760001,0.9248826291079818,8.780343730359192e-23,0.99796960277422,0
6,3.8305555555555557,0.5472222222222225,0.5583333333333336,0.5694444444444445,0.9609756097560979,0.038060121964297325,1.430657666599982,125.0,2.9999999999280003,0.9804878048780491,0.9994149208068848,0.824401698411908,1
7,4.388888888888889,0.5583333333333336,0.780555555555555,0.5583333333333336,1.0,0.04270915410041861,1.6054120584553417,130.55555555555554,3.1333333332581335,1.3980099502487546,0.9999432563781738,0.8113636192849618,1
8,5.169444444444444,0.780555555555555,0.5555555555555554,0.5750000000000001,1.357487922705313,0.02479211117998319,0.9319209214335714,41.666666666666664,0.9999999999760001,0.9661835748792266,2.0735968322680905e-18,0.9979796756538601,0
9,5.725,0.5555555555555554,0.5111111111111111,0.5583333333333336,0.9950248756218898,0.04259869420391074,1.6012599357180826,122.22222222222223,2.933333333262934,0.9154228855721388,0.9983975291252136,0.794470614623343,1
10,6.236111111111111,0.5111111111111111,0.8722222222222227,0.5569444444444445,0.9177057356608478,0.04584414222429899,1.7232544237093639,127.77777777777777,3.066666666593067,1.566084788029926,0.9999340772628784,0.8033070905126523,1
11,7.108333333333333,0.8722222222222227,0.5250000000000004,0.5750000000000001,1.516908212560387,0.02171484008043406,0.8162481052795311,36.111111111111114,0.8666666666458669,0.9130434782608701,8.52615144745254e-24,0.9959514956456924,0
12,7.633333333333334,0.5250000000000004,0.5083333333333337,0.5569444444444445,0.9426433915211976,0.03791750856072728,1.425296912386719,122.22222222222223,2.933333333262934,0.9127182044887787,0.9989370703697205,0.8193129468774101,1
13,8.141666666666667,0.5083333333333337,0.75,0.5513888888888889,0.9219143576826203,0.04201799639265371,1.5794318455077563,122.22222222222223,2.933333333262934,1.3602015113350125,0.9999339580535889,0.8278452612139953,1
14,8.891666666666667,0.75,0.591666666666665,0.5569444444444445,1.346633416458853,0.024328170327633906,0.9144816568435876,41.666666666666664,0.9999999999760001,1.0623441396508697,5.763934136356896e-17,0.9963486702391462,0
15,9.483333333333333,0.591666666666665,0.533333333333335,0.5569444444444445,1.0623441396508697,0.04060776931782577,1.5264222367066587,130.55555555555554,3.1333333332581335,0.9576059850374095,0.9974539875984192,0.8056724837869665,1
16,10.016666666666667,0.533333333333335,0.7777777777777768,0.5569444444444445,0.9576059850374095,0.041151952666164254,1.5468777696675573,125.0,2.9999999999280003,1.3965087281795494,0.9999420642852783,0.834515995110485,1
17,10.794444444444444,0.7777777777777768,0.5888888888888886,0.5736111111111102,1.355932203389831,0.023007436770481882,0.864836056893911,38.888888888888886,0.9333333333109334,1.0266343825665871,1.1268311838473661e-19,0.9974681908205962,0
18,11.383333333333333,0.5888888888888886,0.4666666666666668,0.572222222222222,1.029126213592233,0.04455148809119934,1.67466431284435,88.88888888888889,2.1333333332821334,0.8155339805825248,0.1867089569568634,0.8884237967943122,0
19,11.85,0.4666666666666668,0.8333333333333339,0.5611111111111118,0.8316831683168309,0.04311816062239559,1.6207863737795192,125.0,2.9999999999280003,1.4851485148514845,0.9999077320098877,0.8074954711223881,1
20,12.683333333333334,0.8333333333333339,0.5583333333333336,0.5902777777777768,1.4117647058823564,0.023018929186247546,0.8652680500635157,38.888888888888886,0.9333333333109334,0.9458823529411785,2.4741194264691968e-21,0.9960721933688008,0
21,13.241666666666667,0.5583333333333336,0.4944444444444436,0.5736111111111111,0.9733656174334145,0.04859831431286458,1.8267821375022484,100.0,2.3999999999424,0.8619854721549622,0.8804723620414734,0.8541785669680866,1
22,13.73611111111111,0.4944444444444436,0.7000000000000011,0.5736111111111111,0.8619854721549622,0.04016612105298452,1.5098209374089733,130.55555555555554,3.1333333332581335,1.2203389830508493,0.9999009370803833,0.8102897095227595,1
23,14.436111111111112,0.7000000000000011,0.6055555555555543,0.5902777777777768,1.1858823529411802,0.023875842746599072,0.8974789283124192,41.666666666666664,0.9999999999760001,1.025882352941176,5.930272878351919e-17,0.9955873758148619,0
24,15.041666666666666,0.6055555555555543,0.43055555555555536,0.5902777777777768,1.025882352941176,0.04638409525813842,1.743550941628853,100.0,2.3999999999424,0.7294117647058832,0.32138243317604065,0.8682777095641306,0
25,15.472222222222221,0.43055555555555536,0.9138888888888914,0.5736111111111111,0.750605326876513,0.04578056298021286,1.7208645172063375,125.0,2.9999999999280003,1.5932203389830553,0.9998698234558105,0.8208351531771882,1
26,16.386111111111113,0.9138888888888914,0.5749999999999993,0.5972222222222214,1.530232558139541,0.02455307963445689,0.9229358658027136,44.44444444444444,1.0666666666410667,0.9627906976744187,4.669888214729038e-20,0.9944635235962723,0
27,16.961111111111112,0.5749999999999993,0.5555555555555536,0.5819444444444439,0.988066825775656,0.03700261284750427,1.3909065190114749,141.66666666666666,3.3999999999184003,0.9546539379474915,0.9981749057769775,0.8070001514333299,1
28,17.516666666666666,0.5555555555555536,0.7611111111111128,0.5666666666666664,0.9803921568627421,0.04198410721162069,1.5781579710649691,152.77777777777777,3.666666666578667,1.3431372549019645,0.9999508857727051,0.8098758466875922,1
29,18.27777777777778,0.7611111111111128,0.5444444444444443,0.5902777777777768,1.2894117647058874,0.02420405458779172,0.9098162189630281,41.666666666666664,0.9999999999760001,0.9223529411764718,1.6727796422154673e-18,0.9953144440530721,0
30,18.822222222222223,0.5444444444444443,0.46111111111111214,0.5666666666666664,0.9607843137254903,0.031573368134397706,1.1868243938953336,52.77777777777778,1.266666666636267,0.8137254901960805,8.638218787382357e-06,0.9822844755132408,0
31,19.283333333333335,0.46111111111111214,0.6333333333333329,0.5652777777777764,0.8157248157248195,0.04608781254664398,1.7324138482407085,122.22222222222223,2.933333333262934,1.120393120393122,0.9998024106025696,0.8460490756168689,1
32,19.916666666666668,0.6333333333333329,0.5,0.5902777777777768,1.0729411764705892,0.022173961888100727,0.8335062248057302,38.888888888888886,0.9333333333109334,0.8470588235294132,7.097491931089011e-19,0.9964518186764028,0
33,20.416666666666668,0.5,0.5472222222222207,0.5652777777777764,0.8845208845208866,0.02458011855495911,0.9239522429690659,38.888888888888886,0.9333333333109334,0.9680589680589677,4.178061108889297e-12,0.987472278917327,0
34,20.96388888888889,0.5472222222222207,0.56388888888889,0.5513888888888872,0.9924433249370281,0.038457907226862424,1.44561018136289,80.55555555555556,1.9333333332869336,1.022670025188922,0.33446288108825684,0.9265422017682682,0
35,21.52777777777778,0.56388888888889,0.5583333333333336,0.5597222222222218,1.0074441687344942,0.024320948376146685,0.9142101879220561,38.888888888888886,0.9333333333109334,0.9975186104218374,1.406949779120606e-13,0.9905700020900239,0
36,22.086111111111112,0.5583333333333336,0.5444444444444443,0.5569444444444436,1.0024937655860369,0.020614633196661777,0.774891973667777,33.333333333333336,0.7999999999808002,0.9775561097256871,6.254277456337409e-18,0.9931311741373545,0
37,22.630555555555556,0.5444444444444443,0.47499999999999787,0.5513888888888872,0.9874055415617157,0.030323442123451765,1.1398404080867752,44.44444444444444,1.0666666666410667,0.8614609571788402,3.5434732925665458e-09,0.9924057214520656,0
38,23.105555555555554,0.47499999999999787,0.5916666666666686,0.5458333333333325,0.8702290076335852,0.03351367683901238,1.2597594603260622,113.88888888888889,2.7333333332677334,1.08396946564886,0.9992077946662903,0.854099904377684,1
39,23.697222222222223,0.5916666666666686,0.5416666666666643,0.5458333333333325,1.08396946564886,0.022616521725720352,0.8501417895896185,41.666666666666664,0.9999999999760001,0.9923664122137377,1.512524605176257e-15,0.9948614261715154,0
40,24.238888888888887,0.5416666666666643,0.5472222222222243,0.5458333333333325,0.9923664122137377,0.023477114722600355,0.8824909757000462,33.333333333333336,0.7999999999808002,1.0025445292620918,3.967991909982656e-14,0.98741923992271,0
41,24.78611111111111,0.5472222222222243,0.4555555555555557,0.5472222222222225,1.0000000000000033,0.023348767937447595,0.8776664953073006,38.888888888888886,0.9333333333109334,0.8324873096446699,1.0157748275998026e-15,0.9946712812798335,0
42,25.241666666666667,0.4555555555555557,0.5777777777777757,0.5458333333333325,0.8346055979643782,0.03566371011570172,1.3405779504408897,122.22222222222223,2.933333333262934,1.0585241730279877,0.9995276927947998,0.8472420122203239,1
43,25.819444444444443,0.5777777777777757,0.49166666666666714,0.5472222222222225,1.0558375634517723,0.020809839286087643,0.7822296561025861,36.111111111111114,0.8666666666458669,0.8984771573604065,4.0809160661095533e-17,0.9874240245848336,0
44,26.31111111111111,0.49166666666666714,0.49444444444444713,0.5458333333333343,0.9007633587786252,0.018808655587518416,0.7070063343455343,30.555555555555557,0.7333333333157335,0.9058524173028023,2.1476971687374994e-16,0.9772317698323711,0
45,26.805555555555557,0.49444444444444713,0.48333333333333073,0.5430555555555543,0.9104859335038433,0.022623555855260463,0.8504061983942949,38.888888888888886,0.9333333333109334,0.8900255754475676,2.4948639718534987e-15,0.9975204322588447,0
46,27.288888888888888,0.48333333333333073,0.5833333333333357,0.5180555555555557,0.9329758713136677,0.038810342770443734,1.4588580267817755,119.44444444444444,2.866666666597867,1.1260053619302992,0.9997486472129822,0.8466859844774715,1
47,27.872222222222224,0.5833333333333357,0.5472222222222207,0.5180555555555557,1.1260053619302992,0.028682050621367652,1.0781414640174023,41.666666666666664,0.9999999999760001,1.0563002680965115,3.531622772001697e-10,0.9941460971086504,0
48,28.419444444444444,0.5472222222222207,0.530555555555555,0.5444444444444425,1.0051020408163274,0.02045747716781945,0.7689845706981651,33.333333333333336,0.7999999999808002,0.9744897959183698,5.949280248057469e-18,0.994485295321948,0
49,28.95,0.530555555555555,0.5055555555555564,0.5361111111111097,0.9896373056994835,0.01911161779283964,0.7183945059898457,33.333333333333336,0.7999999999808002,0.9430051813471545,6.591083895073075e-18,0.9889342568236947,0
50,29.455555555555556,0.5055555555555564,0.5166666666666657,0.5180555555555557,0.9758713136729237,0.05144050165605473,1.9336182931052903,94.44444444444444,2.266666666612267,0.9973190348525448,0.9833821654319763,0.8599086473887234,1
51,29.97222222222222,0.5166666666666657,0.5111111111111128,0.5111111111111111,1.0108695652173896,0.02127500467420346,0.7997149502739795,38.888888888888886,0.9333333333109334,1.0000000000000036,1.1367895777410772e-15,0.9974550245232316,0
52,30.483333333333334,0.5111111111111128,0.5027777777777764,0.5138888888888893,0.9945945945945972,0.020497171628720043,0.7704766622070219,36.111111111111114,0.8666666666458669,0.978378378378375,1.7490328270712476e-15,0.9888623764546234,0
53,30.98611111111111,0.5027777777777764,0.47222222222222143,0.5083333333333346,0.9890710382513609,0.021095712809950425,0.7929754742314901,36.111111111111114,0.8666666666458669,0.9289617486338758,1.1172628213289054e-15,0.9923222889321186,0
54,31.458333333333332,0.47222222222222143,0.5611111111111136,0.5083333333333346,0.9289617486338758,0.041715350396909136,1.568055559996009,116.66666666666667,2.7999999999328007,1.1038251366120237,0.999727189540863,0.8250801962593678,1
55,32.019444444444446,0.5611111111111136,0.4750000000000014,0.5138888888888893,1.0918918918918958,0.020435393407591065,0.7681544551008548,33.333333333333336,0.7999999999808002,0.9243243243243264,1.6369128427009843e-17,0.9899691133573072,0
56,32.49444444444445,0.4750000000000014,0.5277777777777786,0.5138888888888893,0.9243243243243264,0.02303687234583798,0.8659425229108483,36.111111111111114,0.8666666666458669,1.0270270270270279,2.363087752820653e-13,0.993587231457081,0
57,33.022222222222226,0.5277777777777786,0.4638888888888886,0.5138888888888893,1.0270270270270279,0.028979669920444578,1.0893287989490121,41.666666666666664,0.9999999999760001,0.9027027027027014,1.2792307213516096e-09,0.9914300639329531,0
58,33.486111111111114,0.4638888888888886,0.6083333333333272,0.5083333333333346,0.912568306010926,0.03742773023805478,1.4068864324380945,119.44444444444444,2.866666666597867,1.1967213114753947,0.9998865127563477,0.8400861493993224,1
59,34.09444444444444,0.6083333333333272,0.5500000000000043,0.5083333333333346,1.1967213114753947,0.023181245303265787,0.8713694177218412,38.888888888888886,0.9333333333109334,1.0819672131147597,1.3935127703178837e-14,0.9933308665353362,0
60,34.644444444444446,0.5500000000000043,0.5805555555555557,0.5138888888888893,1.0702702702702778,0.025162390178647482,0.9458394918658197,36.111111111111114,0.8666666666458669,1.129729729729729,8.081934232961885e-09,0.9730424304708678,0
61,35.225,0.5805555555555557,0.5916666666666686,0.5194444444444457,1.117647058823527,0.02291776109463748,0.8614652008237523,38.888888888888886,0.9333333333109334,1.139037433155081,3.114292813433464e-14,0.9959010776404131,0
62,35.81666666666667,0.5916666666666686,0.5722222222222157,0.5388888888888914,1.0979381443298952,0.024827595492239146,0.9332547559236614,38.888888888888886,0.9333333333109334,1.0618556701030757,1.5789158988501611e-13,0.9933290992410126,0
63,36.388888888888886,0.5722222222222157,0.5361111111111114,0.5555555555555589,1.029999999999982,0.021834993360213044,0.820764596609858,38.888888888888886,0.9333333333109334,0.9649999999999948,5.0455294287158164e-17,0.9980743399774725,0
64,36.925,0.5361111111111114,0.5361111111111114,0.5555555555555589,0.9649999999999948,0.04637965257061574,1.743383943610019,91.66666666666667,2.1999999999472006,0.9649999999999948,0.9134016036987305,0.8669887621233551,1
65,37.46111111111111,0.5361111111111114,0.5138888888888928,0.5430555555555578,0.9872122762148302,0.019268431275208803,0.724289032838397,36.111111111111114,0.8666666666458669,0.9462915601023051,1.922759206798127e-18,0.9951977822580098,0
66,37.975,0.5138888888888928,0.5,0.5430555555555578,0.9462915601023051,0.02112316540251249,0.794007401087999,36.111111111111114,0.8666666666458669,0.9207161125319654,1.4620901723841475e-16,0.9940969344134603,0
67,38.475,0.5,0.5444444444444443,0.5430555555555578,0.9207161125319654,0.02207677733492677,0.8298531144398769,38.888888888888886,0.9333333333109334,1.0025575447570287,8.392307573705515e-15,0.9958238197933652,0
68,39.019444444444446,0.5444444444444443,0.56111111111111,0.5472222222222243,0.9949238578680163,0.024510081898359164,0.9213196061162009,38.888888888888886,0.9333333333109334,1.0253807106598927,2.2012039001435835e-13,0.9945484956099839,0
69,39.580555555555556,0.56111111111111,0.5555555555555571,0.5472222222222243,1.0253807106598927,0.022446586035452288,0.8437540066408663,38.888888888888886,0.9333333333109334,1.0152284263959381,1.9377022162920914e-15,0.9951996144588757,0
70,40.13611111111111,0.5555555555555571,0.48611111111110716,0.5500000000000007,1.0101010101010117,0.02819897460330012,1.0599829197687207,44.44444444444444,1.0666666666410667,0.8838383838383755,4.141439621796472e-11,0.9949779144325142,0
71,40.62222222222222,0.48611111111110716,0.6138888888888943,0.5402777777777779,0.8997429305912522,0.03585785914064663,1.3478758984417107,133.33333333333334,3.1999999999232007,1.1362467866324004,0.999681830406189,0.8227838318162439,1
72,41.236111111111114,0.6138888888888943,0.5305555555555515,0.5402777777777779,1.1362467866324004,0.022192118425059783,0.834188718383227,38.888888888888886,0.9333333333109334,0.9820051413881671,2.093268221210367e-17,0.9987524291679397,0
73,41.766666666666666,0.5305555555555515,0.5527777777777771,0.5361111111111114,0.9896373056994736,0.02202223551405391,0.8278029193759915,36.111111111111114,0.8666666666458669,1.0310880829015525,1.541997751850681e-15,0.9954229269706774,0
74,42.31944444444444,0.5527777777777771,0.5472222222222243,0.5402777777777779,1.0231362467866312,0.05247897570859607,1.972653923790528,113.88888888888889,2.7333333332677334,1.0128534704370216,0.9848538637161255,0.8141823486430091,1
75,42.86666666666667,0.5472222222222243,0.5444444444444443,0.5458333333333343,1.0025445292620885,0.022128717388286336,0.8318055105885855,41.666666666666664,0.9999999999760001,0.9974554707379115,1.1333170602946898e-15,0.9987930784789407,0
76,43.41111111111111,0.5444444444444443,0.5666666666666629,0.5458333333333343,0.9974554707379115,0.02170056788442811,0.8157116218007265,38.888888888888886,0.9333333333109334,1.038167938931289,1.8950405548706813e-15,0.9946195250923533,0
77,43.977777777777774,0.5666666666666629,0.5583333333333371,0.5500000000000007,1.030303030303022,0.03627461144070658,1.3635413730219876,72.22222222222223,1.7333333332917338,1.0151515151515207,0.23628798127174377,0.9426397345651295,0
78,44.53611111111111,0.5583333333333371,0.5777777777777757,0.5541666666666671,1.0075187969924873,0.026923123236195907,1.0120244150245175,38.888888888888886,0.9333333333109334,1.0426065162907223,9.759374731965753e-12,0.9944782148984073,0
79,45.11388888888889,0.5777777777777757,0.50277777777778,0.5541666666666671,1.0426065162907223,0.01955130769423197,0.7349221915538492,36.111111111111114,0.8666666666458669,0.9072681704260683,1.7209279386664067e-19,0.9957228745748126,0
80,45.61666666666667,0.50277777777778,0.7111111111111086,0.5500000000000007,0.914141414141417,0.036427132480645656,1.369274549476633,144.44444444444446,3.4666666665834676,1.2929292929292866,0.9998217225074768,0.8071500549050281,1
81,46.327777777777776,0.7111111111111086,0.6166666666666671,0.5555555555555571,1.2799999999999918,0.024963227007734737,0.9383530650583081,38.888888888888886,0.9333333333109334,1.1099999999999977,2.1012306088472434e-15,0.9927684181471799,0
82,46.94444444444444,0.6166666666666671,0.5333333333333314,0.5555555555555571,1.1099999999999977,0.021770275743214138,0.8183318993365697,38.888888888888886,0.9333333333109334,0.9599999999999939,3.50307813042655e-17,0.9930362180711176,0
83,47.477777777777774,0.5333333333333314,0.6138888888888943,0.5555555555555571,0.9599999999999939,0.03997060378602028,1.5024715579929677,125.0,2.9999999999280003,1.1050000000000064,0.9997590184211731,0.815287812027053,1
84,48.09166666666667,0.6138888888888943,0.56388888888889,0.5625,1.0913580246913677,0.02059231240776469,0.7740529483018013,38.888888888888886,0.9333333333109334,1.002469135802471,5.656026936524251e-18,0.993928555080422,0
85,48.65555555555556,0.56388888888889,0.55555555555555,0.5652777777777764,0.9975429975430019,0.021706950515960985,0.8159515411773421,36.111111111111114,0.8666666666458669,0.9828009828009754,6.910562637055042e-17,0.9944949087792055,0
86,49.21111111111111,0.55555555555555,0.5583333333333371,0.5652777777777764,0.9828009828009754,0.045370493167627264,1.7054502334116841,94.44444444444444,2.266666666612267,0.9877149877149968,0.753098726272583,0.8761544615635681,1
87,49.769444444444446,0.5583333333333371,0.5361111111111114,0.5611111111111136,0.9950495049504975,0.02035922328379834,0.7652912648128112,36.111111111111114,0.8666666666458669,0.9554455445544519,2.6820007873051838e-18,0.9963981148716223,0
88,50.30555555555556,0.5361111111111114,0.5472222222222172,0.5611111111111136,0.9554455445544519,0.020063989622633723,0.754193604611413,33.333333333333336,0.7999999999808002,0.975247524752462,1.6798473876977532e-16,0.9840357188498691,0
89,50.852777777777774,0.5472222222222172,0.5916666666666686,0.5569444444444436,0.982543640897748,0.02676037247914969,1.0059067095024086,44.44444444444444,1.0666666666410667,1.062344139650878,3.9011932573274066e-11,0.9946607804975851,0
90,51.44444444444444,0.5916666666666686,0.5777777777777828,0.5611111111111136,1.0544554455445532,0.021252665043937725,0.7988752166720046,36.111111111111114,0.8666666666458669,1.0297029702970342,1.670249048567484e-17,0.9949350841791131,0
91,52.022222222222226,0.5777777777777828,0.5638888888888829,0.5611111111111136,1.0297029702970342,0.02184389734791313,0.8210992922863035,41.666666666666664,0.9999999999760001,1.0049504950494899,1.7612508273491377e-16,0.9983587675619505,0
92,52.58611111111111,0.5638888888888829,0.4611111111111157,0.56111111111111,1.0049504950494963,0.02842552151095417,1.0684986851828153,47.22222222222222,1.1333333333061335,0.8217821782178316,6.80337008951426e-10,0.9874419470797882,0
93,53.047222222222224,0.4611111111111157,0.6583333333333314,0.56111111111111,0.8217821782178316,0.039785381476461046,1.4955091599889663,133.33333333333334,3.1999999999232007,1.1732673267326723,0.9998737573623657,0.810766278573064,1
94,53.705555555555556,0.6583333333333314,0.56666666666667,0.56111111111111,1.1732673267326723,0.02435709918899285,0.9155690757785034,41.666666666666664,0.9999999999760001,1.009900990099018,6.930577099156375e-16,0.9969820930656177,0
95,54.272222222222226,0.56666666666667,0.5222222222222186,0.56111111111111,1.009900990099018,0.022726532420751008,0.8542770271067562,38.888888888888886,0.9333333333109334,0.9306930693069261,1.1814835888403056e-15,0.9925258979388069,0
96,54.794444444444444,0.5222222222222186,0.5361111111111114,0.56111111111111,0.9306930693069261,0.04727069334957794,1.7768776439946707,100.0,2.3999999999424,0.9554455445544578,0.9663540124893188,0.8681723328020485,1
97,55.330555555555556,0.5361111111111114,0.5166666666666657,0.55555555555555,0.9650000000000102,0.022061118071213495,0.8292644918993153,38.888888888888886,0.9333333333109334,0.9300000000000076,4.588211774456238e-16,0.9958098350126494,0
98,55.84722222222222,0.5166666666666657,0.5194444444444457,0.55555555555555,0.9300000000000076,0.02315454012686003,0.8703655858003713,38.888888888888886,0.9333333333109334,0.9350000000000116,5.9906231552806204e-15,0.9966192464391942,0
99,56.36666666666667,0.5194444444444457,0.4555555555555557,0.5499999999999972,0.9444444444444516,0.030825010708861456,1.1586940770980099,58.333333333333336,1.3999999999664003,0.8282828282828328,2.5259627363993786e-05,0.9758664001580171,0
100,56.82222222222222,0.4555555555555557,0.7361111111111072,0.529166666666665,0.8608923884514466,0.039686688669053116,1.4917993552308817,119.44444444444444,2.866666666597867,1.391076115485561,0.9999161958694458,0.8323478725648051,1
101,57.55833333333333,0.7361111111111072,0.5861111111111157,0.529166666666665,1.391076115485561,0.022912058500032934,0.8612508436365064,41.666666666666664,0.9999999999760001,1.1076115485564426,2.3799051631779575e-17,0.9981625803819152,0
102,58.144444444444446,0.5861111111111157,0.4833333333333343,0.529166666666665,1.1076115485564426,0.02568737578672637,0.9655733930277043,44.44444444444444,1.0666666666410667,0.9133858267716582,3.9435932275809493e-13,0.9954646004223429,0
103,58.62777777777778,0.4833333333333343,0.7055555555555557,0.529166666666665,0.9133858267716582,0.04199431408735639,1.578541641538674,127.77777777777777,3.066666666593067,1.3333333333333377,0.9999352693557739,0.8219209491660058,1
104,59.333333333333336,0.7055555555555557,0.55555555555555,0.529166666666665,1.3333333333333377,0.023659898188337778,0.8893616989948969,41.666666666666664,0.9999999999760001,1.0498687664041924,7.65647705576392e-17,0.998742137933813,0
105,59.888888888888886,0.55555555555555,0.4777777777777814,0.529166666666665,1.0498687664041924,0.02188834857926377,0.8227701880070597,36.111111111111114,0.8666666666458669,0.9028871391076212,3.3376674189043623e-16,0.9910679428880883,0
106,60.36666666666667,0.4777777777777814,0.6027777777777743,0.5277777777777786,0.9052631578947423,0.038274751194236366,1.4387254534971647,130.55555555555554,3.1333333332581335,1.1421052631578865,0.9998507499694824,0.8367442600701229,1
107,60.96944444444444,0.6027777777777743,0.5527777777777843,0.5374999999999979,1.1214470284237705,0.021589766249883915,0.8115466533310731,38.888888888888886,0.9333333333109334,1.0284237726098353,4.9923049885094593e-17,0.9972197188423512,0
108,61.522222222222226,0.5527777777777843,0.5333333333333314,0.5541666666666671,0.9974937343358504,0.022344293482682655,0.8399088895654865,38.888888888888886,0.9333333333109334,0.9624060150375897,1.2609542316549538e-15,0.9939951395470006,0
109,62.05555555555556,0.5333333333333314,0.43333333333333,0.5541666666666671,0.9624060150375897,0.02927087052946109,1.1002748590851006,52.77777777777778,1.266666666636267,0.7819548872180384,5.317113860314748e-08,0.986017241405404,0
110,62.48888888888889,0.43333333333333,0.6722222222222243,0.5541666666666671,0.7819548872180384,0.0415571545125938,1.5621090694689266,116.66666666666667,2.7999999999328007,1.2130325814536367,0.9998328685760498,0.824118101123317,1
111,63.16111111111111,0.6722222222222243,0.5750000000000028,0.5541666666666671,1.2130325814536367,0.02270636884845069,0.8535190902476848,41.666666666666664,0.9999999999760001,1.0375939849624103,2.6103467630511453e-17,0.9987093195466314,0
112,63.736111111111114,0.5750000000000028,0.5166666666666657,0.5541666666666671,1.0375939849624103,0.02282812410240329,0.858095798847818,38.888888888888886,0.9333333333109334,0.9323308270676667,2.9165784887644837e-16,0.9965677748370552,0
113,64.25277777777778,0.5166666666666657,0.7000000000000028,0.5541666666666671,0.9323308270676667,0.04055927358088696,1.524599310392497,136.11111111111111,3.266666666588267,1.2631578947368463,0.9999315738677979,0.7995146903111593,1
114,64.95277777777778,0.7000000000000028,0.5777777777777686,0.5541666666666671,1.2631578947368463,0.02435653426423793,0.9155478405882317,41.666666666666664,0.9999999999760001,1.0426065162907094,3.762344062971455e-16,0.9960684342174019,0
115,65.53055555555555,0.5777777777777686,0.5416666666666714,0.5638888888888935,1.0246305418718964,0.020393044672066866,0.766562590965334,36.111111111111114,0.8666666666458669,0.9605911330049266,3.4652634860056273e-18,0.99358206014525,0
116,66.07222222222222,0.5416666666666714,0.5999999999999943,0.5638888888888935,0.9605911330049266,0.03940831616276113,1.4813354959539495,127.77777777777777,3.066666666593067,1.0640394088669762,0.9997122883796692,0.8208962411703022,1
117,66.67222222222222,0.5999999999999943,0.5638888888888971,0.5638888888888935,1.0640394088669762,0.02875577029169324,1.0809125431965352,41.666666666666664,0.9999999999760001,1.0000000000000062,3.6155640981139214e-11,0.9946366362906047,0
118,67.23611111111111,0.5638888888888971,0.5722222222222229,0.56944444444445,0.9902439024390292,0.022599168769349785,0.8494895021352321,38.888888888888886,0.9333333333109334,1.0048780487804791,1.0309369291138914e-15,0.9956037491220989,0
119,67.80833333333334,0.5722222222222229,0.4361111111111029,0.5736111111111128,0.9975786924939448,0.05185210284459498,1.9490901404240972,108.33333333333333,2.5999999999376002,0.7602905569007098,0.9609083533287048,0.8133636867659412,1
120,68.24444444444444,0.4361111111111029,0.8000000000000114,0.5736111111111128,0.7602905569007098,0.044916579165804375,1.6883878722533525,119.44444444444444,2.866666666597867,1.3946731234866985,0.9998633861541748,0.8267064279063734,1
121,69.04444444444445,0.8000000000000114,0.5916666666666544,0.5736111111111128,1.3946731234866985,0.024036397353932523,0.9035140818546233,38.888888888888886,0.9333333333109334,1.031476997578668,5.915535104775638e-19,0.9954735268451944,0
122,69.6361111111111,0.5916666666666544,0.4638888888888886,0.5749999999999957,1.028985507246363,0.046387869395756606,1.7436928092488078,102.77777777777777,2.466666666607467,0.8067632850241601,0.5161136388778687,0.8549221323203338,1
123,70.1,0.4638888888888886,0.7694444444444457,0.5749999999999957,0.8067632850241601,0.04212443990328732,1.5834329946551668,127.77777777777777,3.066666666593067,1.3381642512077416,0.9998949766159058,0.8108876824676821,1
124,70.86944444444444,0.7694444444444457,0.5638888888888971,0.5749999999999957,1.3381642512077416,0.021967072485285816,0.8257293734715936,38.888888888888886,0.9333333333109334,0.980676328502437,1.3671994977858764e-20,0.9967530064362558,0
125,71.43333333333334,0.5638888888888971,0.44444444444444287,0.56805555555556,0.9926650366748233,0.026348895561158273,0.9904395334406615,44.44444444444444,1.0666666666410667,0.7823960880195511,3.51033546848456e-13,0.9946572794083308,0
126,71.87777777777778,0.44444444444444287,0.6805555555555571,0.56805555555556,0.7823960880195511,0.04112899911838538,1.5460149592662578,113.88888888888889,2.7333333332677334,1.1980440097799445,0.9998279809951782,0.8448866899684513,1
127,72.55833333333334,0.6805555555555571,0.5555555555555571,0.56805555555556,1.1980440097799445,0.023451678210702615,0.8815348321335016,41.666666666666664,0.9999999999760001,0.9779951100244451,1.762869950680149e-17,0.9985188832095495,0
128,73.1138888888889,0.5555555555555571,0.5138888888888857,0.56805555555556,0.9779951100244451,0.02340286197979151,0.8796998586388554,38.888888888888886,0.9333333333109334,0.9046454767726035,1.3075884775989866e-15,0.9953291742134799,0
129,73.62777777777778,0.5138888888888857,0.6055555555555543,0.5597222222222271,0.9181141439205819,0.03797390809229549,1.4274169377063015,122.22222222222223,2.933333333262934,1.0818858560793927,0.9997590184211731,0.8279112535263973,1
130,74.23333333333333,0.6055555555555543,0.5361111111111114,0.5777777777777757,1.0480769230769247,0.020668423244170488,0.7769139100117357,36.111111111111114,0.8666666666458669,0.9278846153846192,1.3803485999099151e-19,0.9979906415533124,0
131,74.76944444444445,0.5361111111111114,0.5666666666666629,0.5597222222222271,0.957816377171208,0.02200587332510519,0.8271878742880172,36.111111111111114,0.8666666666458669,1.0124069478908033,3.066100715080753e-16,0.9968353252237031,0
132,75.33611111111111,0.5666666666666629,0.7666666666666657,0.5597222222222271,1.0124069478908033,0.039063347018348744,1.4683683081016097,138.88888888888889,3.333333333253334,1.3697270471463883,0.999933123588562,0.8034190663918235,1
133,76.10277777777777,0.7666666666666657,0.6555555555555657,0.56527777777778,1.3562653562653493,0.025176260026650594,0.9463608513191301,41.666666666666664,0.9999999999760001,1.159705159705173,8.968080972458705e-16,0.9943829283706489,0
134,76.75833333333334,0.6555555555555657,0.5972222222222143,0.56527777777778,1.159705159705173,0.02196094100142834,0.825498894588826,38.888888888888886,0.9333333333109334,1.0565110565110385,3.559056254892096e-18,0.9993207418537591,0
135,77.35555555555555,0.5972222222222143,0.4638888888888886,0.5819444444444386,1.0262529832935527,0.04541188085205551,1.707005972200058,116.66666666666667,2.7999999999328007,0.797136038186165,0.983320951461792,0.8129176178741708,1
136,77.81944444444444,0.4638888888888886,0.8333333333333286,0.5819444444444386,0.797136038186165,0.04204108195919943,1.5802996184170868,133.33333333333334,3.1999999999232007,1.4319809069212472,0.9999066591262817,0.8032634349884384,1
137,78.65277777777777,0.8333333333333286,0.5416666666666714,0.5819444444444386,1.4319809069212472,0.024415388566228654,0.917760139288546,41.666666666666664,0.9999999999760001,0.9307875894988241,8.21653882838437e-20,0.9973548394759644,0
138,79.19444444444444,0.5416666666666714,0.4583333333333286,0.5819444444444386,0.9307875894988241,0.039853798859533725,1.4980809292994655,116.66666666666667,2.7999999999328007,0.7875894988066824,0.997579038143158,0.8225392420748759,1
139,79.65277777777777,0.4583333333333286,0.8000000000000114,0.5819444444444386,0.7875894988066824,0.04313996233399608,1.6216058873342971,138.88888888888889,3.333333333253334,1.3747016706444248,0.999901294708252,0.8099317014844178,1
140,80.45277777777778,0.8000000000000114,0.5777777777777686,0.5819444444444386,1.3747016706444248,0.022560067286240663,0.8480197003138409,38.888888888888886,0.9333333333109334,0.992840095465388,1.641656732561264e-20,0.9957405384978015,0
141,81.03055555555555,0.5777777777777686,0.49166666666667425,0.5874999999999915,0.9834515366430246,0.04385369228530805,1.648434577680701,86.11111111111111,2.066666666617067,0.8368794326241386,0.31794604659080505,0.8958530078556264,0
142,81.52222222222223,0.49166666666667425,0.6416666666666657,0.5874999999999915,0.8368794326241386,0.03810120777632634,1.4322020581818833,150.0,3.5999999999136003,1.092198581560298,0.9996650218963623,0.8030616547599263,1
143,82.16388888888889,0.6416666666666657,0.5583333333333371,0.5874999999999915,1.092198581560298,0.02410117615845025,0.9059490791308645,41.666666666666664,0.9999999999760001,0.9503546099290983,1.2391379981259128e-16,0.9984067273126318,0
144,82.72222222222223,0.5583333333333371,0.5694444444444429,0.5680555555555529,0.9828850855745834,0.0225417546733103,0.8473313399321039,38.888888888888886,0.9333333333109334,1.0024449877750632,3.646867267178888e-16,0.9987186121643103,0
145,83.29166666666667,0.5694444444444429,0.5722222222222229,0.56388888888889,1.0098522167487638,0.020916738273938734,0.7862479263715149,38.888888888888886,0.9333333333109334,1.014778325123152,1.898584150292744e-17,0.9981942677592726,0
146,83.8638888888889,0.5722222222222229,0.5805555555555486,0.5708333333333329,1.0024330900243328,0.02360451380804805,0.887279832616599,41.666666666666664,0.9999999999760001,1.017031630170305,3.922741292357963e-15,0.9992815263670815,0
147,84.44444444444444,0.5805555555555486,0.5611111111111171,0.5708333333333329,1.017031630170305,0.02426107324837848,0.9119595169793673,41.666666666666664,0.9999999999760001,0.982968369829695,6.096439593249311e-15,0.998644355005011,0
148,85.00555555555556,0.5611111111111171,0.4555555555555486,0.5708333333333329,0.982968369829695,0.03925862488405418,1.475708688564679,125.0,2.9999999999280003,0.7980535279805238,0.9970169067382812,0.8145282262348574,1
149,85.46111111111111,0.4555555555555486,0.8277777777777828,0.5708333333333329,0.7980535279805238,0.04487077203304985,1.68666600899391,133.33333333333334,3.1999999999232007,1.4501216545012265,0.9999053478240967,0.8115138175068067,1
150,86.28888888888889,0.8277777777777828,0.5138888888888857,0.5708333333333329,1.4501216545012265,0.01902273308102518,0.71505338179376,36.111111111111114,0.8666666666458669,0.9002433090024283,1.4188483795741327e-23,0.9861554441216273,0
151,86.80277777777778,0.5138888888888857,0.5305555555555515,0.56527777777778,0.9090909090909,0.03966462838838289,1.4909701222163945,116.66666666666667,2.7999999999328007,0.9385749385749277,0.9993525147438049,0.8259167695871825,1
152,87.33333333333333,0.5305555555555515,0.7305555555555543,0.56527777777778,0.9385749385749277,0.0418494265553635,1.5730954041715204,138.88888888888889,3.333333333253334,1.2923832923832852,0.9999382495880127,0.8093999985738851,1
153,88.06388888888888,0.7305555555555543,0.5861111111111228,0.56527777777778,1.2923832923832852,0.024426780945265222,0.9181883721361646,41.666666666666664,0.9999999999760001,1.0368550368550535,3.4530856503095603e-17,0.9984645522249429,0
154,88.65,0.5861111111111228,0.4583333333333286,0.5708333333333329,1.0267639902676613,0.02484762223175359,0.934007549318549,41.666666666666664,0.9999999999760001,0.8029197080291894,1.237546687915818e-15,0.9979949523721818,0
155,89.10833333333333,0.4583333333333286,0.6611111111111114,0.56666666666667,0.8088235294117516,0.042436987906686194,1.5951814908282103,119.44444444444444,2.866666666597867,1.1666666666666603,0.9998438358306885,0.8350778839372534,1
156,89.76944444444445,0.6611111111111114,0.5555555555555571,0.5708333333333329,1.15815085158151,0.021741124933023707,0.8172361374752267,38.888888888888886,0.9333333333109334,0.9732360097323637,7.20368020824974e-19,0.9975957106112955,0
157,90.325,0.5555555555555571,0.5638888888888829,0.5583333333333371,0.9950248756218866,0.023538743036948317,0.8848075478982187,38.888888888888886,0.9333333333109334,1.0099502487562013,4.6105489861874e-15,0.9978317991850718,0
158,90.88888888888889,0.5638888888888829,0.5750000000000028,0.55972222222222,1.0074441687344846,0.04410996433126461,1.658067693613092,91.66666666666667,2.1999999999472006,1.0272952853598105,0.5180445313453674,0.8940758440898786,1
159,91.46388888888889,0.5750000000000028,0.5666666666666629,0.5694444444444429,1.0097560975609834,0.023755367039515887,0.8929503171287951,41.666666666666664,0.9999999999760001,0.9951219512195083,3.067365705847918e-15,0.9994200591859761,0
160,92.03055555555555,0.5666666666666629,0.5194444444444457,0.5652777777777729,1.0024570024570045,0.022488616170123533,0.8453338947571486,38.888888888888886,0.9333333333109334,0.9189189189189291,9.701056433502681e-17,0.9975063798088528,0
161,92.55,0.5194444444444457,0.5666666666666629,0.5652777777777729,0.9189189189189291,0.020666353535842744,0.77683611088935,36.111111111111114,0.8666666666458669,1.0024570024570045,4.0787369415038437e-17,0.9968920601264388,0
162,93.11666666666666,0.5666666666666629,0.6000000000000085,0.5666666666666629,1.0,0.022218147157505093,0.8351671231728831,38.888888888888886,0.9333333333109334,1.058823529411787,3.0594761233398364e-16,0.9995802192065407,0
163,93.71666666666667,0.6000000000000085,0.6083333333333343,0.5666666666666629,1.058823529411787,0.02567340817748818,0.9650483587868935,41.666666666666664,0.9999999999760001,1.0735294117647147,3.38965129836194e-13,0.9966050805070727,0
164,94.325,0.6083333333333343,0.4749999999999943,0.5666666666666629,1.0735294117647147,0.04140992835088149,1.5565749243819669,86.11111111111111,2.066666666617067,0.8382352941176426,0.06513332575559616,0.9175147707407525,0
165,94.8,0.4749999999999943,0.7722222222222257,0.5666666666666629,0.8382352941176426,0.04218615512857428,1.5857528337845725,127.77777777777777,3.066666666593067,1.3627450980392308,0.999913215637207,0.8017417611577873,1
166,95.57222222222222,0.7722222222222257,0.5722222222222229,0.5666666666666629,1.3627450980392308,0.022042512857117277,0.8285651328113318,38.888888888888886,0.9333333333109334,1.0098039215686354,2.6800241487586088e-20,0.9971646840544557,0
167,96.14444444444445,0.5722222222222229,0.44722222222222285,0.5694444444444429,1.0048780487804918,0.03153136638349817,1.185245572708386,55.55555555555556,1.3333333333013335,0.7853658536585398,1.4582017684006132e-05,0.9794055211071682,0
168,96.59166666666667,0.44722222222222285,0.6888888888888829,0.5694444444444429,0.7853658536585398,0.040840874229821224,1.5351845136584048,116.66666666666667,2.7999999999328007,1.2097560975609685,0.9998400211334229,0.8400873107428304,1
169,97.28055555555555,0.6888888888888829,0.5611111111111171,0.5694444444444429,1.2097560975609685,0.022481169408760108,0.8450539753641966,41.666666666666664,0.9999999999760001,0.9853658536585499,1.750219050391763e-17,0.9928279699117604,0
170,97.84166666666667,0.5611111111111171,0.45277777777778283,0.5694444444444429,0.9853658536585499,0.023679519876563564,0.8900992667493616,38.888888888888886,0.9333333333109334,0.7951219512195232,1.0597453534480676e-16,0.9979334447535178,0
171,98.29444444444445,0.45277777777778283,0.6833333333333229,0.5694444444444429,0.7951219512195232,0.04433444854521231,1.6665059235803061,102.77777777777777,2.466666666607467,1.199999999999985,0.9998063445091248,0.8549635535158819,1
172,98.97777777777777,0.6833333333333229,0.5805555555555628,0.5861111111111157,1.165876777251158,0.0221676821153074,0.8332701718288189,38.888888888888886,0.9333333333109334,0.9905213270142227,5.879293220212393e-19,0.9972058709305885,0
173,99.55833333333334,0.5805555555555628,0.5138888888888857,0.5763888888888928,1.0072289156626564,0.021918408516511428,0.8239001234213817,38.888888888888886,0.9333333333109334,0.8915662650602294,9.836357869989612e-18,0.9974540382271786,0
174,100.07222222222222,0.5138888888888857,0.6138888888888943,0.56666666666667,0.9068627450980283,0.04322412014683502,1.6247693301696948,125.0,2.9999999999280003,1.0833333333333364,0.9997488856315613,0.7978487331415658,1
175,100.68611111111112,0.6138888888888943,0.5694444444444429,0.5763888888888928,1.0650602409638574,0.023796664686302347,0.8945026714550112,41.666666666666664,0.9999999999760001,0.9879518072289062,1.8966170949437583e-15,0.9952014861714965,0
176,101.25555555555556,0.5694444444444429,0.5499999999999972,0.5708333333333329,0.9975669099756672,0.02450336275535433,0.9210670374706807,38.888888888888886,0.9333333333109334,0.9635036496350323,2.2216554428924028e-14,0.9937586002863544,0
177,101.80555555555556,0.5499999999999972,0.4611111111111086,0.56527777777778,0.9729729729729641,0.033005826893505674,1.2406696786721014,66.66666666666667,1.5999999999616004,0.815724815724808,0.00010132135503226891,0.9712697826457766,0
178,102.26666666666667,0.4611111111111086,0.6361111111111057,0.56527777777778,0.815724815724808,0.04120698277252381,1.5489463190965624,127.77777777777777,3.066666666593067,1.1253071253071114,0.9998416900634766,0.8127607757846651,1
179,102.90277777777777,0.6361111111111057,0.5388888888888914,0.56527777777778,1.1253071253071114,0.023626669311372854,0.8881126449948343,44.44444444444444,1.0666666666410667,0.9533169533169541,2.7644807528929693e-16,0.9990783933957681,0
180,103.44166666666666,0.5388888888888914,0.5305555555555657,0.55972222222222,0.9627791563275517,0.02133070925395689,0.8018088527623565,36.111111111111114,0.8666666666458669,0.9478908188585826,8.495663698599787e-17,0.9938817372843662,0
181,103.97222222222223,0.5305555555555657,0.5055555555555458,0.55972222222222,0.9478908188585826,0.01990718245104674,0.7482993149814634,38.888888888888886,0.9333333333109334,0.903225806451599,7.56409769039012e-18,0.9952540698920883,0
182,104.47777777777777,0.5055555555555458,0.5499999999999972,0.5444444444444443,0.9285714285714108,0.02156211648305482,0.8105073148094873,36.111111111111114,0.8666666666458669,1.010204081632648,5.602541669727143e-16,0.9973929049988212,0
183,105.02777777777777,0.5499999999999972,0.6416666666666799,0.5444444444444443,1.010204081632648,0.02257242757976069,0.8484843164993182,41.666666666666664,0.9999999999760001,1.1785714285714533,5.870657286037931e-14,0.9994537461465549,0
184,105.66944444444445,0.6416666666666799,0.4638888888888886,0.5499999999999972,1.1666666666666967,0.037761279394380655,1.4194243496348187,80.55555555555556,1.9333333332869336,0.8434343434343472,0.09287622570991516,0.941974093668979,0
185,106.13333333333334,0.4638888888888886,0.9055555555555515,0.5444444444444443,0.8520408163265303,0.042746690686761055,1.606823036724912,130.55555555555554,3.1333333332581335,1.6632653061224418,0.9999229907989502,0.8021436866284095,1
186,107.03888888888889,0.9055555555555515,0.5305555555555515,0.5444444444444443,1.6632653061224418,0.02379345005524825,0.8943818353587121,41.666666666666664,0.9999999999760001,0.97448979591836,8.788193817755678e-21,0.9968534191545866,0
187,107.56944444444444,0.5305555555555515,0.4750000000000085,0.5347222222222285,0.9922077922077728,0.040365094829860414,1.5173002450056983,116.66666666666667,2.7999999999328007,0.8883116883116937,0.9843984842300415,0.8350147070673821,1
188,108.04444444444445,0.4750000000000085,0.8055555555555429,0.5347222222222285,0.8883116883116937,0.044743443442531956,1.6818798019404309,125.0,2.9999999999280003,1.506493506493465,0.9999244213104248,0.8142431893013349,1
189,108.85,0.8055555555555429,0.5444444444444514,0.5347222222222285,1.506493506493465,0.021506244680308095,0.8084071265068501,38.888888888888886,0.9333333333109334,1.0181818181818192,2.4138778173173918e-20,0.9939432718677585,0
190,109.39444444444445,0.5444444444444514,0.4749999999999943,0.5375000000000085,1.0129198966408237,0.0370547813016052,1.3928675006101197,72.22222222222223,1.7333333332917338,0.8837209302325335,0.21553097665309906,0.9407973836224519,0
191,109.86944444444444,0.4749999999999943,0.6583333333333314,0.5375000000000014,0.8837209302325453,0.03982046290299225,1.4968278502409107,122.22222222222223,2.933333333262934,1.224806201550381,0.9999088048934937,0.8263036446233762,1
192,110.52777777777777,0.6583333333333314,0.6027777777777885,0.5472222222222243,1.2030456852791798,0.023277344937360108,0.8749817466156756,41.666666666666664,0.9999999999760001,1.1015228426396093,1.249514945823166e-15,0.9960803000860177,0
193,111.13055555555556,0.6027777777777885,0.5,0.57361111111112,1.0508474576271212,0.024050436252172305,0.9040417958072009,41.666666666666664,0.9999999999760001,0.8716707021791633,3.9384681530896335e-16,0.9970840268879425,0
194,111.63055555555556,0.5,0.8999999999999915,0.5375000000000014,0.9302325581395324,0.044867363087993044,1.6865378687481927,125.0,2.9999999999280003,1.6744186046511425,0.9999281167984009,0.8037917367445042,1
195,112.53055555555555,0.8999999999999915,0.5888888888888886,0.57361111111112,1.569007263922479,0.022485731598713008,0.845225465409308,41.666666666666664,0.9999999999760001,1.0266343825665696,3.4888664740928913e-22,0.9995834953775191,0
196,113.11944444444444,0.5888888888888886,0.5,0.56666666666667,1.0392156862745032,0.039330600038243665,1.478414192405221,130.55555555555554,3.1333333332581335,0.8823529411764655,0.9955428242683411,0.8229940268231402,1
197,113.61944444444444,0.5,0.9250000000000114,0.56666666666667,0.8823529411764655,0.043813654192486846,1.6469295692494506,127.77777777777777,3.066666666593067,1.632352941176481,0.9999346733093262,0.8272784109645781,1
198,114.54444444444445,0.9250000000000114,0.5138888888888857,0.5958333333333385,1.552447552447558,0.024109927984852845,0.906278055153363,41.666666666666664,0.9999999999760001,0.8624708624708496,3.2265875149379473e-22,0.9979796885252994,0
199,115.05833333333334,0.5138888888888857,0.4805555555555543,0.56666666666667,0.9068627450980283,0.039322621434201135,1.478114281357828,125.0,2.9999999999280003,0.8480392156862673,0.9991470575332642,0.8144692226289894,1
200,115.53888888888889,0.4805555555555543,0.8611111111111143,0.5513888888888872,0.8715365239294715,0.04447027158500373,1.6716114320009252,119.44444444444444,2.866666666597867,1.5617128463476178,0.9999195337295532,0.8383012843366027,1
201,116.4,0.8611111111111143,0.5305555555555515,0.5958333333333385,1.4452214452214378,0.0200166527509806,0.7524142393637944,38.888888888888886,0.9333333333109334,0.8904428904428757,6.560310071641779e-24,0.9905457322216927,0
202,116.93055555555556,0.5305555555555515,0.5277777777777715,0.55972222222222,0.9478908188585572,0.04217137532696218,1.5851972697086871,116.66666666666667,2.7999999999328007,0.9429280397022257,0.9988231062889099,0.8144001738501225,1
203,117.45833333333333,0.5277777777777715,0.7916666666666714,0.5291666666666615,0.9973753280839874,0.041907162547427296,1.5752656662574462,133.33333333333334,3.1999999999232007,1.496062992126008,0.999948263168335,0.819445001300514,1
204,118.25,0.7916666666666714,0.5972222222222285,0.55972222222222,1.414392059553364,0.023836404896610174,0.8959964826572591,41.666666666666664,0.9999999999760001,1.0669975186104372,1.7905823623570536e-18,0.9988283730490304,0
205,118.84722222222223,0.5972222222222285,0.4416666666666629,0.55972222222222,1.0669975186104372,0.041006713201586324,1.5414183033609015,86.11111111111111,2.066666666617067,0.7890818858560757,0.05849246308207512,0.9211661854849169,0
206,119.28888888888889,0.4416666666666629,0.8361111111111086,0.5291666666666615,0.8346456692913397,0.04622438137189838,1.7375473902995606,116.66666666666667,2.7999999999328007,1.580052493438331,0.9998934268951416,0.8169592516620365,1
207,120.125,0.8361111111111086,0.5583333333333371,0.56388888888889,1.4827586206896477,0.022967585364241944,0.8633380659017791,38.888888888888886,0.9333333333109334,0.9901477832512363,4.857673077180207e-21,0.9979553991739855,0
208,120.68333333333334,0.5583333333333371,0.49722222222222,0.5444444444444443,1.02551020408164,0.04234043961943106,1.5915522973251464,119.44444444444444,2.866666666597867,0.9132653061224452,0.9929224252700806,0.8060087678052401,1
209,121.18055555555556,0.49722222222222,0.7861111111111114,0.5444444444444443,0.9132653061224452,0.043909503886080184,1.6505325030264153,122.22222222222223,2.933333333262934,1.4438775510204092,0.9999306201934814,0.8280988999069945,1
210,121.96666666666667,0.7861111111111114,0.5333333333333314,0.5777777777777828,1.3605769230769118,0.02174919416070358,0.8175394550120064,38.888888888888886,0.9333333333109334,0.9230769230769117,9.41020637536267e-22,0.9979340039736558,0
211,122.5,0.5333333333333314,0.4555555555555486,0.5458333333333343,0.9770992366412162,0.044484258247416725,1.6721371824394042,91.66666666666667,2.1999999999472006,0.8346055979643624,0.32865893840789795,0.8920575363310436,0
212,122.95555555555555,0.4555555555555486,0.7638888888888999,0.5458333333333343,0.8346055979643624,0.041785798952461484,1.570703679888962,119.44444444444444,2.866666666597867,1.3994910941476004,0.9999099969863892,0.8409106403442608,1
213,123.71944444444445,0.7638888888888999,0.6027777777777743,0.5777777777777828,1.3221153846153921,0.023956849941128604,0.9005239412530542,41.666666666666664,0.9999999999760001,1.0432692307692157,2.713905350326507e-18,0.99888048258156,0
214,124.32222222222222,0.6027777777777743,0.46666666666666856,0.5777777777777828,1.0432692307692157,0.03699077237468376,1.3904614425812754,75.0,1.7999999999568002,0.8076923076923039,0.0528598390519619,0.9478564680126349,0
215,124.78888888888889,0.46666666666666856,0.8388888888888886,0.5458333333333343,0.8549618320610707,0.0445525996521818,1.6747060957698734,122.22222222222223,2.933333333262934,1.5368956743002513,0.9999115467071533,0.8100532677283369,1
216,125.62777777777778,0.8388888888888886,0.5722222222222229,0.5805555555555557,1.444976076555023,0.020319381976006433,0.7637936534154192,38.888888888888886,0.9333333333109334,0.9856459330143549,2.25544357371443e-23,0.9973294872537215,0
217,126.2,0.5722222222222229,0.46944444444444855,0.56527777777778,1.0122850122850093,0.04215790122396565,1.5846907860781139,88.88888888888889,2.1333333332821334,0.8304668304668344,0.09343012422323227,0.9061180643621385,0
218,126.66944444444445,0.46944444444444855,0.7055555555555486,0.5527777777777771,0.8492462311557873,0.04209218836468333,1.582220678230991,116.66666666666667,2.7999999999328007,1.2763819095477276,0.9998996257781982,0.8331848465510314,1
219,127.375,0.7055555555555486,0.5861111111111086,0.5874999999999986,1.2009456264775324,0.022842189088214965,0.8586244934169255,41.666666666666664,0.9999999999760001,0.9976359338061447,1.5304333359260905e-18,0.9988763986220572,0
220,127.96111111111111,0.5861111111111086,0.4138888888888914,0.5791666666666657,1.0119904076738582,0.03501810472052529,1.316310022212128,63.888888888888886,1.5333333332965335,0.7146282973621159,0.03778200224041939,0.9577454411539894,0
221,128.375,0.4138888888888914,0.7666666666666799,0.5791666666666657,0.7146282973621159,0.0475547816571156,1.787556356888745,108.33333333333333,2.5999999999376002,1.3237410071942697,0.999763548374176,0.8476104253689215,1
222,129.14166666666668,0.7666666666666799,0.5888888888888744,0.5944444444444414,1.289719626168253,0.023335230110713107,0.8771576163387843,38.888888888888886,0.9333333333109334,0.9906542056074572,1.2053860709290837e-19,0.9967276725983593,0
223,129.73055555555555,0.5888888888888744,0.4611111111111086,0.5874999999999915,1.0023640661938433,0.03470205938748768,1.3044300634687604,69.44444444444444,1.666666666626667,0.7848699763593452,0.012768891640007496,0.9536786380687519,0
224,130.19166666666666,0.4611111111111086,0.7722222222222399,0.5791666666666657,0.7961630695443614,0.04456904950840442,1.6753244362192665,122.22222222222223,2.933333333262934,1.3333333333333661,0.9998791217803955,0.820784365441207,1
225,130.9638888888889,0.7722222222222399,0.5611111111111029,0.5874999999999915,1.314420803782555,0.02214893395060842,0.8325654393115023,38.888888888888886,0.9333333333109334,0.9550827423167848,7.949897157927902e-21,0.9965495872859861,0
226,131.525,0.5611111111111029,0.4555555555555486,0.5791666666666657,0.9688249400479491,0.02764161464522082,1.0390320857742843,47.22222222222222,1.1333333333061335,0.7865707434052651,2.2073358765806184e-11,0.9907936005516449,0
227,131.98055555555555,0.4555555555555486,0.7111111111111086,0.5736111111111057,0.7941888619854675,0.04046860387417664,1.5211910892849774,116.66666666666667,2.7999999999328007,1.2397094430992808,0.9998607635498047,0.8419019738958488,1
228,132.69166666666666,0.7111111111111086,0.5638888888888971,0.5874999999999915,1.2104018912529684,0.023562243367128137,0.8856909115293423,38.888888888888886,0.9333333333109334,0.9598108747045196,8.5777181955677e-19,0.9981279765738933,0
229,133.25555555555556,0.5638888888888971,0.44444444444442865,0.5750000000000028,0.9806763285024249,0.023836122349970876,0.8959858618947701,41.666666666666664,0.9999999999760001,0.7729468599033503,2.3344000386223943e-16,0.9986477486165752,0
230,133.7,0.44444444444442865,0.6694444444444514,0.5625,0.7901234567900954,0.043851351729452384,1.648346597558563,113.88888888888889,2.7333333332677334,1.1901234567901358,0.9998152852058411,0.8310140857670505,1
231,134.36944444444444,0.6694444444444514,0.5694444444444571,0.5763888888888857,1.1614457831325486,0.020478759418482515,0.7697845580209114,38.888888888888886,0.9333333333109334,0.987951807228943,2.7406515116503733e-19,0.9932562917052303,0
232,134.9388888888889,0.5694444444444571,0.4916666666666458,0.5666666666666771,1.0049019607843175,0.02316652465469326,0.8708160771740266,38.888888888888886,0.9333333333109334,0.8676470588234767,6.773230141292048e-17,0.9990087141843131,0
233,135.43055555555554,0.4916666666666458,0.7388888888889085,0.5625,0.874074074074037,0.03988643228912504,1.4993076007819182,127.77777777777777,3.066666666593067,1.313580246913615,0.9999245405197144,0.8176814522997546,1
234,136.16944444444445,0.7388888888889085,0.6055555555555543,0.5666666666666771,1.3039215686274614,0.024487162663502156,0.9204580855175137,41.666666666666664,0.9999999999760001,1.0686274509803704,5.264382559079381e-17,0.9981890807159842,0
235,136.775,0.6055555555555543,0.48611111111111427,0.5666666666666771,1.0686274509803704,0.02373380984582667,0.8921399948589194,38.888888888888886,0.9333333333109334,0.8578431372548918,4.048771827505743e-17,0.9983787493285974,0
236,137.26111111111112,0.48611111111111427,0.669444444444423,0.5666666666666771,0.8578431372548918,0.042056437759910435,1.5808768339613406,116.66666666666667,2.7999999999328007,1.1813725490195481,0.999849796295166,0.8280029272688608,1
237,137.93055555555554,0.669444444444423,0.580555555555577,0.5875000000000057,1.1394799054373046,0.022059003333637767,0.8291850001539026,38.888888888888886,0.9333333333109334,0.9881796690307598,1.4788099244748451e-18,0.9956694831818829,0
238,138.51111111111112,0.580555555555577,0.5083333333333258,0.575000000000017,1.0096618357487996,0.027818888741587288,1.0456957151051147,41.666666666666664,0.9999999999760001,0.8840579710144534,2.7358512590808237e-12,0.9947292559480548,0
239,139.01944444444445,0.5083333333333258,0.7638888888888857,0.575000000000017,0.8840579710144534,0.04243066691151573,1.5949438883263147,125.0,2.9999999999280003,1.3285024154588922,0.9999221563339233,0.8126604049273853,1
240,139.78333333333333,0.7638888888888857,0.5555555555555713,0.5930555555555657,1.2880562060889658,0.028381447397020407,1.0668419650846221,41.666666666666664,0.9999999999760001,0.9367681498829147,2.438418755039656e-15,0.9959693662388327,0
241,140.3388888888889,0.5555555555555713,0.4333333333333087,0.575000000000017,0.9661835748792259,0.04655277213688704,1.7498914065907427,94.44444444444444,2.266666666612267,0.753623188405732,0.7978435158729553,0.8564178698461988,1
242,140.7722222222222,0.4333333333333087,0.9166666666666856,0.5680555555555742,0.7628361858190025,0.0462723602405076,1.739350887836299,125.0,2.9999999999280003,1.6136919315403226,0.9998855590820312,0.8355499823958344,1
243,141.6888888888889,0.9166666666666856,0.5583333333333371,0.5930555555555657,1.5456674473067973,0.023338831980390603,0.8772930085078645,41.666666666666664,0.9999999999760001,0.9414519906323089,1.2688581535877546e-22,0.9988598638588639,0
244,142.24722222222223,0.5583333333333371,0.5166666666666515,0.5694444444444571,0.9804878048780337,0.03901390887998184,1.4665099574703795,130.55555555555554,3.1333333332581335,0.907317073170685,0.999134361743927,0.8137163014834791,1
245,142.76388888888889,0.5166666666666515,0.8722222222222342,0.5569444444444542,0.927680798004944,0.043594424202932816,1.6386888424961752,133.33333333333334,3.1999999999232007,1.5660847880299191,0.999945878982544,0.8110294976673147,1
246,143.63611111111112,0.8722222222222342,0.5527777777777771,0.5694444444444571,1.5317073170731579,0.020213094964047,0.7597983869614018,36.111111111111114,0.8666666666458669,0.9707317073170505,2.098609427172626e-24,0.9955005677897131,0
247,144.1888888888889,0.5527777777777771,0.48888888888888005,0.5569444444444542,0.9925187032418766,0.04635726064799741,1.7425422443691736,108.33333333333333,2.5999999999376002,0.8778054862842579,0.9719212055206299,0.8176026100082355,1
248,144.67777777777778,0.48888888888888005,0.6861111111111029,0.5541666666666742,0.8822055137844331,0.04259187381835496,1.60100356142444,125.0,2.9999999999280003,1.2380952380952064,0.9998998641967773,0.8164377880636862,1
249,145.36388888888888,0.6861111111111029,0.5861111111111086,0.5569444444444542,1.2319201995012106,0.027889152466745098,1.0483368873319192,41.666666666666664,0.9999999999760001,1.05236907730671,3.4145819852171577e-13,0.9954820151031871,0
250,145.95,0.5861111111111086,0.3972222222222399,0.5569444444444542,1.05236907730671,0.034117197062234,1.2824454316193252,63.888888888888886,1.5333333332965335,0.7132169576060042,0.02546704187989235,0.9588903225664167,0
251,146.34722222222223,0.3972222222222399,0.8138888888888687,0.5555555555555571,0.7150000000000298,0.047119311737646295,1.7711872979706769,105.55555555555556,2.533333333272534,1.4649999999999594,0.9997889399528503,0.8446788054074251,1
252,147.1611111111111,0.8138888888888687,0.6194444444444684,0.5722222222222229,1.4223300970873418,0.023311610109053308,0.8762697543269022,41.666666666666664,0.9999999999760001,1.082524271844701,3.683366766804155e-19,0.9980448832049782,0
253,147.78055555555557,0.6194444444444684,0.4777777777777601,0.5722222222222229,1.082524271844701,0.0488386830773604,1.8358174584100397,105.55555555555556,2.533333333272534,0.8349514563106478,0.4587770402431488,0.8435436029969472,0
254,148.25833333333333,0.4777777777777601,0.7333333333333485,0.5694444444444429,0.8390243902438738,0.04146599550233603,1.5586824557279806,130.55555555555554,3.1333333332581335,1.2878048780488107,0.9999037981033325,0.8191763482298786,1
255,148.99166666666667,0.7333333333333485,0.5527777777777771,0.6027777777777885,1.2165898617511555,0.021434903526301664,0.8057254543614184,36.111111111111114,0.8666666666458669,0.9170506912442222,5.650688666664416e-22,0.9986410871237887,0
256,149.54444444444445,0.5527777777777771,0.46388888888887436,0.5694444444444429,0.9707317073170747,0.022354535999605702,0.8402938997705243,38.888888888888886,0.9333333333109334,0.8146341463414402,1.2201450875374705e-17,0.9991056287883648,0
257,150.00833333333333,0.46388888888887436,0.7138888888889028,0.5694444444444429,0.8146341463414402,0.03949442411488666,1.48457224338159,125.0,2.9999999999280003,1.2536585365853938,0.9998880624771118,0.8283221229674456,1
258,150.72222222222223,0.7138888888889028,0.5666666666666629,0.6027777777777885,1.184331797235025,0.02369092567940746,0.8905280041900259,41.666666666666664,0.9999999999760001,0.9400921658985945,1.2697711473226147e-18,0.9989394710600392,0
259,151.2888888888889,0.5666666666666629,0.48333333333332007,0.5763888888888857,0.9831325301204807,0.022136625274307972,0.8321027633870413,36.111111111111114,0.8666666666458669,0.8385542168674515,3.5670484739705836e-18,0.9972321496948853,0
260,151.7722222222222,0.48333333333332007,0.63055555555556,0.55972222222222,0.8635235732009723,0.03880246813509572,1.4585620238566435,119.44444444444444,2.866666666597867,1.1265508684863648,0.9998248219490051,0.8338650146440907,1
261,152.40277777777777,0.63055555555556,0.6055555555555543,0.5930555555555657,1.0632318501170854,0.022054356304031637,0.8290103210359754,41.666666666666664,0.9999999999760001,1.0210772833723458,1.8590801549068042e-17,0.9977648197977231,0
262,153.00833333333333,0.6055555555555543,0.5305555555555657,0.5861111111111086,1.0331753554502392,0.025023733019430557,0.9406274505578924,41.666666666666664,0.9999999999760001,0.9052132701422012,4.7276517146617805e-15,0.995213206549891,0
263,153.5388888888889,0.5305555555555657,0.8222222222222229,0.55972222222222,0.9478908188585826,0.04379118454913597,1.6460849485318434,127.77777777777777,3.066666666593067,1.4689826302729598,0.9999432563781738,0.8109788463477119,1
264,154.36111111111111,0.8222222222222229,0.6472222222222115,0.5861111111111086,1.4028436018957418,0.023021721921841657,0.8653730273568688,41.666666666666664,0.9999999999760001,1.1042654028435883,8.034719359866387e-20,0.9998451457782616,0
265,155.00833333333333,0.6472222222222115,0.4166666666666856,0.5861111111111086,1.1042654028435883,0.045271766318892466,1.7017391490600842,100.0,2.3999999999424,0.7109004739336847,0.14494290947914124,0.8804493632034645,0
266,155.425,0.4166666666666856,0.8722222222222058,0.5861111111111086,0.7109004739336847,0.04819171877091307,1.811498449503456,130.55555555555554,3.1333333332581335,1.488151658767751,0.9998335838317871,0.8121801226972152,1
267,156.29722222222222,0.8722222222222058,0.5305555555555657,0.6180555555555571,1.4112359550561495,0.022782350166355506,0.8563751834331157,41.666666666666664,0.9999999999760001,0.858426966292149,6.638581323974351e-23,0.9990445111266115,0
268,156.82777777777778,0.5305555555555657,0.4777777777777601,0.5861111111111086,0.9052132701422012,0.03773947544336918,1.418604751901895,127.77777777777777,3.066666666593067,0.8151658767772245,0.9986612796783447,0.8214344598633715,1
269,157.30555555555554,0.4777777777777601,0.8388888888889028,0.56805555555556,0.8410757946209892,0.04384540039655446,1.6481228904447265,130.55555555555554,3.1333333332581335,1.4767726161369323,0.9999181032180786,0.809305402032549,1
270,158.14444444444445,0.8388888888889028,0.5444444444444514,0.6180555555555571,1.3573033707865358,0.019815619751620626,0.7448575268013982,38.888888888888886,0.9333333333109334,0.8808988764045034,9.123593479084637e-25,0.9959201155829015,0
271,158.6888888888889,0.5444444444444514,0.4805555555555543,0.5750000000000028,0.9468599033816499,0.04636451179578876,1.7428148107626569,100.0,2.3999999999424,0.8357487922705251,0.8979157209396362,0.8675570138831398,1
272,159.16944444444445,0.4805555555555543,0.7027777777777828,0.5375000000000085,0.8940568475452031,0.03939965146710348,1.4810097951250611,127.77777777777777,3.066666666593067,1.3074935400516683,0.9999337196350098,0.8211776911764384,1
273,159.87222222222223,0.7027777777777828,0.6055555555555543,0.5958333333333314,1.1794871794871917,0.023425799628712763,0.8805620714114196,41.666666666666664,0.9999999999760001,1.0163170163170174,3.959312409694255e-18,0.9996738792632742,0
274,160.4777777777778,0.6055555555555543,0.4583333333333144,0.5750000000000028,1.0531400966183502,0.02604349265501989,0.9789596172838332,44.44444444444444,1.0666666666410667,0.7971014492753254,2.3881209645438065e-14,0.9963288422876835,0
275,160.9361111111111,0.4583333333333144,0.8166666666666629,0.5375000000000085,0.8527131782945249,0.04261088331226153,1.6017181171534292,116.66666666666667,2.7999999999328007,1.5193798449612093,0.9999068975448608,0.8240865064606508,1
276,161.75277777777777,0.8166666666666629,0.6027777777777885,0.5750000000000028,1.42028985507245,0.02149443598864044,0.8079632447115502,38.888888888888886,0.9333333333109334,1.048309178743975,1.5985697507145576e-21,0.9982863734891074,0
277,162.35555555555555,0.6027777777777885,0.44722222222222285,0.57361111111112,1.0508474576271212,0.04109562568224885,1.5447604713717027,88.88888888888889,2.1333333332821334,0.7796610169491416,0.04551531374454498,0.9159104308577217,0
278,162.80277777777778,0.44722222222222285,0.74444444444444,0.57361111111112,0.7796610169491416,0.043901199989720516,1.6502203644315692,116.66666666666667,2.7999999999328007,1.2978208232445243,0.9998493194580078,0.8258481244555695,1
279,163.54722222222222,0.74444444444444,0.5527777777777771,0.6041666666666714,1.23218390804596,0.02196573516014554,0.8256791042037634,38.888888888888886,0.9333333333109334,0.914942528735624,1.270816477434683e-20,0.9948552640155952,0
280,164.1,0.5527777777777771,0.40555555555556566,0.5777777777777828,0.9567307692307597,0.03491097231422869,1.3122829778807068,66.66666666666667,1.5999999999616004,0.7019230769230883,0.07507942616939545,0.9519102675609936,0
281,164.50555555555556,0.40555555555556566,0.7833333333333314,0.5777777777777828,0.7019230769230883,0.04407943577284936,1.6569201430038747,116.66666666666667,2.7999999999328007,1.3557692307692157,0.9997847676277161,0.8424106727087473,1
282,165.2888888888889,0.7833333333333314,0.5861111111111086,0.6041666666666714,1.2965517241379176,0.027182799552302274,1.021785495475613,41.666666666666664,0.9999999999760001,0.9701149425287239,3.0796982408621448e-16,0.9939651408511401,0
283,165.875,0.5861111111111086,0.46944444444443434,0.5944444444444485,0.9859813084112039,0.027470703782993978,1.032607646683432,47.22222222222222,1.1333333333061335,0.7897196261682018,3.448033308525722e-12,0.9926222558534303,0
284,166.34444444444443,0.46944444444443434,0.7388888888889085,0.5694444444444429,0.8243902439024235,0.04407977224660438,1.6569327908550213,119.44444444444444,2.866666666597867,1.297560975609794,0.9998852014541626,0.8253233965135931,1
285,167.08333333333334,0.7388888888889085,0.5611111111111029,0.5944444444444485,1.242990654205632,0.022189246257043008,0.8340807552716842,38.888888888888886,0.9333333333109334,0.9439252336448395,1.0395393631042707e-20,0.9990658576243103,0
286,167.64444444444445,0.5611111111111029,0.46666666666666856,0.5736111111111057,0.9782082324455155,0.023278091411433204,0.8750098061383591,41.666666666666664,0.9999999999760001,0.8135593220339092,1.134921578924806e-16,0.9992294364555123,0
287,168.11111111111111,0.46666666666666856,0.6777777777777771,0.55694444444444,0.8379052369077408,0.04084875154960092,1.53548061748975,116.66666666666667,2.7999999999328007,1.216957605985046,0.9998810291290283,0.8401045187922831,1
288,168.7888888888889,0.6777777777777771,0.5777777777777828,0.5736111111111057,1.181598062954005,0.023276608362030594,0.8749540591809589,41.666666666666664,0.9999999999760001,1.007263922518178,1.2682468809283479e-17,0.9997910671419721,0
289,169.36666666666667,0.5777777777777828,0.5222222222222115,0.5694444444444429,1.0146341463414752,0.02226410168977542,0.836894527093691,38.888888888888886,0.9333333333109334,0.917073170731691,1.9396970119700997e-17,0.9991542699939377,0
290,169.88888888888889,0.5222222222222115,0.6833333333333371,0.5694444444444429,0.917073170731691,0.04117125888028545,1.547603478935421,119.44444444444444,2.866666666597867,1.20000000000001,0.9998756647109985,0.8191750054191811,1
291,170.57222222222222,0.6833333333333371,0.5916666666666686,0.5819444444444457,1.1742243436754216,0.02034418526348902,0.7647259944475139,38.888888888888886,0.9333333333109334,1.0167064439140823,3.6033551371155494e-20,0.9975555750642175,0
292,171.1638888888889,0.5916666666666686,0.46666666666666856,0.5819444444444457,1.0167064439140823,0.028841879915613895,1.0841493534659739,41.666666666666664,0.9999999999760001,0.8019093078758965,3.746061620624186e-12,0.9942786008540949,0
293,171.63055555555556,0.46666666666666856,0.86388888888888,0.5694444444444429,0.8195121951219568,0.044418151564758576,1.669652271002518,127.77777777777777,3.066666666593067,1.517073170731696,0.9999065399169922,0.8082680245683729,1
294,172.49444444444444,0.86388888888888,0.61944444444444,0.5847222222222257,1.477434679334893,0.024507163424580813,0.9212099023982336,41.666666666666664,0.9999999999760001,1.0593824228028366,1.3280660030586475e-19,0.9982363028537975,0
295,173.11388888888888,0.61944444444444,0.45555555555557703,0.5847222222222257,1.0593824228028366,0.02565351788824953,0.96430069447786,44.44444444444444,1.0666666666410667,0.7790973871734288,5.266417185158245e-15,0.9960688300578413,0
296,173.56944444444446,0.45555555555557703,0.7333333333333201,0.5847222222222257,0.7790973871734288,0.04224981250354982,1.5881456771819167,111.11111111111111,2.666666666602667,1.2541567695961693,0.9998384714126587,0.8508920871298938,1
297,174.30277777777778,0.7333333333333201,0.5666666666666629,0.6055555555555543,1.2110091743119071,0.021252864746495723,0.7988827233740563,38.888888888888886,0.9333333333109334,0.9357798165137572,4.3393999947695535e-21,0.9962654346158868,0
298,174.86944444444444,0.5666666666666629,0.4555555555555486,0.5847222222222257,0.9691211401425056,0.027788934089033657,1.0445697372807032,41.666666666666664,0.9999999999760001,0.7790973871733802,1.2029121188722458e-12,0.9946398864125201,0
299,175.325,0.4555555555555486,0.6888888888888971,0.5791666666666657,0.7865707434052651,0.04248689232652818,1.5970573687066663,119.44444444444444,2.866666666597867,1.1894484412470185,0.9998306035995483,0.8331024054880831,1
300,176.01388888888889,0.6888888888888971,0.5472222222222172,0.6055555555555543,1.1376146788990984,0.02308669538850515,0.8678153418690215,41.666666666666664,0.9999999999760001,0.9036697247706358,5.940115810653417e-19,0.9993546737053236,0
301,176.5611111111111,0.5472222222222172,0.5361111111111256,0.5791666666666657,0.9448441247002326,0.02054809624147474,0.7723908885388369,38.888888888888886,0.9333333333109334,0.9256594724220889,7.412929606265442e-18,0.9966073538634119,0
302,177.09722222222223,0.5361111111111256,0.625,0.55694444444444,0.9625935162095101,0.04041424740565783,1.519147861507392,125.0,2.9999999999280003,1.1221945137157197,0.9997468590736389,0.836496815332845,1
303,177.72222222222223,0.625,0.5861111111111086,0.5930555555555515,1.0538641686182744,0.02326759548160196,0.8746152702907009,38.888888888888886,0.9333333333109334,0.9882903981264662,2.9795975415168566e-17,0.9985246297992866,0
304,178.30833333333334,0.5861111111111086,0.5833333333333428,0.5763888888888857,1.0168674698795193,0.02234823303975783,0.8400569752058293,38.888888888888886,0.9333333333109334,1.0120481927711062,9.602494223922293e-17,0.9979874416679009,0
305,178.89166666666668,0.5833333333333428,0.4583333333333144,0.5750000000000028,1.0144927536231998,0.03886256502547961,1.4608210307260168,80.55555555555556,1.9333333332869336,0.7971014492753254,0.04843410104513168,0.9328316114740596,0
306,179.35,0.4583333333333144,0.8000000000000114,0.5750000000000028,0.7971014492753254,0.04361356180856254,1.6394082138697144,127.77777777777777,3.066666666593067,1.3913043478260998,0.9998968839645386,0.8034222682754053,1
307,180.15,0.8000000000000114,0.5638888888888971,0.5750000000000028,1.3913043478260998,0.020461460173584824,0.7691342895492945,38.888888888888886,0.9333333333109334,0.9806763285024249,2.0446710470009212e-22,0.997029408511472,0
308,180.7138888888889,0.5638888888888971,0.44722222222219443,0.57361111111112,0.9830508474576263,0.028262119299916774,1.0623564918871835,47.22222222222222,1.1333333333061335,0.7796610169490921,2.918746633273628e-10,0.9871862542404906,0
309,181.1611111111111,0.44722222222219443,0.6416666666666799,0.57361111111112,0.7796610169490921,0.0394603484801324,1.4832913602527555,111.11111111111111,2.666666666602667,1.118644067796616,0.9997902512550354,0.8559683661976099,1
310,181.80277777777778,0.6416666666666799,0.5138888888888857,0.57361111111112,1.118644067796616,0.0230033608603388,0.8646828458217015,41.666666666666664,0.9999999999760001,0.8958837772396901,8.850615832996907e-18,0.9989068620847972,0
311,182.31666666666666,0.5138888888888857,0.5277777777777715,0.57361111111112,0.8958837772396901,0.020223258214581298,0.7601804175893674,33.333333333333336,0.7999999999808002,0.920096852300217,6.15051587066792e-15,0.9740221425189216,0
312,182.84444444444443,0.5277777777777715,0.5388888888888914,0.57361111111112,0.920096852300217,0.04036233657631726,1.517196563872421,80.55555555555556,1.9333333332869336,0.9394673123486582,0.6787236928939819,0.9233235711359241,1
313,183.38333333333333,0.5388888888888914,0.5555555555555713,0.5513888888888943,0.9773299748110782,0.021969195737467234,0.8258091852760413,36.111111111111114,0.8666666666458669,1.0075566750629912,5.060895334297948e-16,0.9952720182402344,0
314,183.9388888888889,0.5555555555555713,0.5583333333333371,0.5472222222222314,1.015228426395951,0.022618576171359935,0.850219014996506,36.111111111111114,0.8666666666458669,1.0203045685279086,7.860841144680109e-11,0.9643380715655011,0
315,184.49722222222223,0.5583333333333371,0.4805555555555543,0.5472222222222314,1.0203045685279086,0.024594849003985276,0.9245059519101856,41.666666666666664,0.9999999999760001,0.8781725888324703,9.73885024951578e-15,0.9980410975065328,0
316,184.9777777777778,0.4805555555555543,0.5555555555555429,0.5472222222222314,0.8781725888324703,0.04269329580847969,1.6048159545604863,172.22222222222223,4.133333333234134,1.015228426395899,0.9997426867485046,0.8248772548906583,1
317,185.53333333333333,0.5555555555555429,0.51111111111112,0.5472222222222172,1.0152284263959255,0.02151528169160244,0.8087468224622002,38.888888888888886,0.9333333333109334,0.9340101522842887,4.3862075852514395e-17,0.998040646427262,0
318,186.04444444444445,0.51111111111112,0.5361111111110972,0.5333333333333314,0.9583333333333534,0.02389140088942141,0.8980637497779866,38.888888888888886,0.9333333333109334,1.0052083333333108,6.185863995512852e-13,0.9918602502819749,0
319,186.58055555555555,0.5361111111110972,0.4583333333333428,0.5374999999999943,0.9974160206718193,0.023947552208499305,0.9001744449356073,41.666666666666664,0.9999999999760001,0.8527131782946002,3.71869783162798e-15,0.9995737376031516,0
320,187.0388888888889,0.4583333333333428,0.6277777777777658,0.5319444444444343,0.8616187989556477,0.040872212567885466,1.536362503409782,122.22222222222223,2.933333333262934,1.1801566579634464,0.9998793601989746,0.8099928133663126,1
321,187.66666666666666,0.6277777777777658,0.5222222222222399,0.5374999999999943,1.1679586563307394,0.02853461758566803,1.072599542658568,41.666666666666664,0.9999999999760001,0.9715762273902241,1.731863957799007e-11,0.9929107602213991,0
322,188.1888888888889,0.5222222222222399,0.5083333333333258,0.5374999999999943,0.9715762273902241,0.023740961566319486,0.8924088238385539,36.111111111111114,0.8666666666458669,0.945736434108523,1.6018199407944606e-14,0.994479400760609,0
323,188.69722222222222,0.5083333333333258,0.5638888888888971,0.5291666666666686,0.9606299212598247,0.0220112063956827,0.8273883412837717,38.888888888888886,0.9333333333109334,1.0656167979002742,2.443723256520189e-14,0.9954165442251937,0
324,189.26111111111112,0.5638888888888971,0.5805555555555486,0.5291666666666686,1.0656167979002742,0.023546166855509493,0.8850866048846875,41.666666666666664,0.9999999999760001,1.0971128608923715,4.802534509396744e-14,0.9995343734256172,0
325,189.84166666666667,0.5805555555555486,0.5916666666666686,0.5291666666666686,1.0971128608923715,0.023913295272961484,0.8988867468166317,41.666666666666664,0.9999999999760001,1.118110236220472,8.497556499599546e-14,0.999222452076568,0
326,190.43333333333334,0.5916666666666686,0.4611111111111086,0.5458333333333201,1.0839694656488847,0.03203107843189892,1.2040294555821072,61.111111111111114,1.466666666631467,0.8447837150127385,8.069562318269163e-05,0.9753703404012128,0
327,190.89444444444445,0.4611111111111086,0.7138888888888744,0.5291666666666686,0.8713910761154777,0.04150158337264605,1.5600201829045974,122.22222222222223,2.933333333262934,1.349081364829364,0.9999219179153442,0.8338332646322586,1
328,191.60833333333332,0.7138888888888744,0.5916666666666686,0.5499999999999972,1.2979797979797782,0.023357781901522063,0.8780053249311702,41.666666666666664,0.9999999999760001,1.0757575757575848,1.620536287846435e-16,0.9942100552467084,0
329,192.2,0.5916666666666686,0.4333333333333371,0.5722222222222229,1.033980582524274,0.02453568043288324,0.9222818400182611,41.666666666666664,0.9999999999760001,0.757281553398064,7.127402145109857e-16,0.9960843701002601,0
330,192.63333333333333,0.4333333333333371,0.7472222222222342,0.5722222222222229,0.757281553398064,0.04501928822638295,1.6922486456130348,113.88888888888889,2.7333333332677334,1.3058252427184662,0.9998200535774231,0.8250792667961162,1
331,193.38055555555556,0.7472222222222342,0.549999999999983,0.5722222222222229,1.3058252427184662,0.026939651390941885,1.01264569866949,41.666666666666664,0.9999999999760001,0.9611650485436585,5.411870529893701e-15,0.9913293955442064,0
332,193.93055555555554,0.549999999999983,0.4166666666666856,0.5722222222222229,0.9611650485436585,0.03260776273310354,1.2257066803030419,47.22222222222222,1.1333333333061335,0.7281553398058576,4.457035061022907e-07,0.9889373227721961,0
333,194.34722222222223,0.4166666666666856,0.73888888888888,0.5722222222222229,0.7281553398058576,0.04424613693620109,1.6631863419825328,108.33333333333333,2.5999999999376002,1.2912621359223133,0.9997832179069519,0.850611842264806,1
334,195.0861111111111,0.73888888888888,0.5916666666666686,0.5861111111111086,1.260663507108995,0.024025095232721,0.903089241745722,41.666666666666664,0.9999999999760001,1.0094786729857896,3.5722907311026384e-18,0.9989543871124612,0
335,195.67777777777778,0.5916666666666686,0.45277777777778283,0.5916666666666686,1.0,0.029717346946272486,1.1170576457841686,50.0,1.1999999999712,0.7652582159624474,2.3945352367604755e-09,0.9878694342739678,0
336,196.13055555555556,0.45277777777778283,0.7638888888888857,0.5708333333333258,0.7931873479318928,0.04432352685627552,1.6660953836975305,113.88888888888889,2.7333333332677334,1.3381995133820073,0.9998761415481567,0.8323847381496445,1
337,196.89444444444445,0.7638888888888857,0.5722222222222229,0.5916666666666686,1.2910798122065632,0.021247393525729474,0.7986770633937169,38.888888888888886,0.9333333333109334,0.9671361502347398,1.8863653940363977e-21,0.9971216750204102,0
338,197.46666666666667,0.5722222222222229,0.4388888888888971,0.5819444444444457,0.9832935560859178,0.032788633496352554,1.2325055062329409,63.888888888888886,1.5333333332965335,0.7541766109785327,0.0001259646232938394,0.9702616137109878,0
339,197.90555555555557,0.4388888888888971,0.7333333333333201,0.5611111111111029,0.7821782178218083,0.043290932002670764,1.6272807486528211,111.11111111111111,2.666666666602667,1.3069306930693023,0.999862790107727,0.8454019706632862,1
340,198.63888888888889,0.7333333333333201,0.5694444444444571,0.5819444444444457,1.2601431980906665,0.022142793969810344,0.83233464103372,38.888888888888886,0.9333333333109334,0.9785202863962009,6.58142893956578e-20,0.9969167255028866,0
341,199.20833333333334,0.5694444444444571,0.42777777777777715,0.57083333333334,0.9975669099756796,0.03191437646250456,1.1996426969853278,55.55555555555556,1.3333333333013335,0.7493917274939075,3.92642141378019e-05,0.9783339414894452,0
342,199.63611111111112,0.42777777777777715,0.7138888888888744,0.57083333333334,0.7493917274939075,0.04507797200623084,1.6944545344859925,111.11111111111111,2.666666666602667,1.2506082725060428,0.9997814297676086,0.8297075069128947,1
343,200.35,0.7138888888888744,0.5444444444444514,0.5819444444444457,1.2267303102625022,0.020498332717253525,0.770520306844146,38.888888888888886,0.9333333333109334,0.935560859188554,4.173194044989648e-20,0.9903032621012349,0
344,200.89444444444445,0.5444444444444514,0.4583333333333428,0.57083333333334,0.953771289537714,0.03141400059501924,1.1808338615414737,58.333333333333336,1.3999999999664003,0.8029197080292043,2.0012379536638036e-05,0.9763617695639997,0
345,201.3527777777778,0.4583333333333428,0.74444444444444,0.5569444444444542,0.8229426433915238,0.04325792488214941,1.626040030347437,122.22222222222223,2.933333333262934,1.3366583541146817,0.9999018907546997,0.8310501848648619,1
346,202.09722222222223,0.74444444444444,0.5972222222222285,0.57083333333334,1.3041362530413396,0.026064758874594206,0.9797590020073539,47.22222222222222,1.1333333333061335,1.046228710462286,1.508868916855026e-14,0.9943554140532583,0
347,202.69444444444446,0.5972222222222285,0.4583333333333144,0.57083333333334,1.046228710462286,0.026449484968888583,0.9942206302927187,41.666666666666664,0.9999999999760001,0.8029197080291546,2.916548228512443e-14,0.9961037623153427,0
348,203.15277777777777,0.4583333333333144,0.6722222222222172,0.5569444444444542,0.8229426433914727,0.04291600271090265,1.6131873764296811,119.44444444444444,2.866666666597867,1.2069825436408674,0.9998623132705688,0.8312787316508166,1
349,203.825,0.6722222222222172,0.5611111111111313,0.5833333333333428,1.152380952380925,0.025334583528071414,0.9523121388983744,41.666666666666664,0.9999999999760001,0.9619047619047809,7.393394313349349e-16,0.9962820564449151,0
350,204.38611111111112,0.5611111111111313,0.44999999999998863,0.5652777777777942,0.9926289926289995,0.030650735106497726,1.1521431593984583,47.22222222222222,1.1333333333061335,0.7960687960687528,2.969738766012142e-08,0.9872985034337487,0
351,204.8361111111111,0.44999999999998863,0.6972222222222229,0.5527777777777914,0.8140703517587534,0.04425474802204752,1.6635100276500538,125.0,2.9999999999280003,1.2613065326632869,0.9998717308044434,0.8155394612541107,1
352,205.53333333333333,0.6972222222222229,0.5611111111111029,0.5791666666666799,1.203836930455609,0.02896431281761704,1.0887515344589616,47.22222222222222,1.1333333333061335,0.9688249400479253,1.320491910261623e-10,0.9870384358881577,0
353,206.09444444444443,0.5611111111111029,0.41111111111112564,0.5611111111111171,0.9999999999999747,0.037166563001699876,1.397069309169116,69.44444444444444,1.666666666626667,0.7326732673267508,0.19261468946933746,0.9518159165193785,0
354,206.50555555555556,0.41111111111112564,0.7055555555555486,0.5611111111111171,0.7326732673267508,0.04382889784335276,1.6475025691467906,138.88888888888889,3.333333333253334,1.2574257425742317,0.9998238682746887,0.8190060012485739,1
355,207.2111111111111,0.7055555555555486,0.5749999999999886,0.5791666666666799,1.2182254196642286,0.035054158546152306,1.31766526437588,58.333333333333336,1.3999999999664003,0.9928057553956411,0.0009699779329821467,0.9738750086548835,0
356,207.7861111111111,0.5749999999999886,0.46944444444446276,0.56805555555556,1.0122249388752778,0.03482720992134951,1.3091343986497266,55.55555555555556,1.3333333333013335,0.8264058679706859,0.002662625163793564,0.9755088488353603,0
357,208.25555555555556,0.46944444444446276,0.6638888888888914,0.5611111111111171,0.8366336633663604,0.04173662219811574,1.5688551545298146,130.55555555555554,3.1333333332581335,1.1831683168316751,0.9998741149902344,0.8070835376996273,1
358,208.91944444444445,0.6638888888888914,1.10277777777776,0.56805555555556,1.1687041564792129,0.03642271191731946,1.369108383093371,66.66666666666667,1.5999999999616004,1.9413202933984868,0.6098609566688538,0.9655832982877848,1
359,210.0222222222222,1.10277777777776,1.1166666666666742,0.56805555555556,1.9413202933984868,0.04063570417449139,1.5274722915880259,152.77777777777777,3.666666666578667,1.9657701711491422,0.9993403553962708,0.7978333366746162,1
360,211.13888888888889,1.1166666666666742,0.5388888888888914,0.61944444444444,1.8026905829596664,0.04088811329588816,1.5369602024513909,77.77777777777777,1.8666666666218668,0.8699551569506829,0.18900088965892792,0.941648799308781,0
361,211.67777777777778,0.5388888888888914,0.5444444444444514,0.61944444444444,0.8699551569506829,0.03659450643283398,1.375566038193143,63.888888888888886,1.5333333332965335,0.878923766816161,0.05064648017287254,0.9682173401198408,0
362,212.22222222222223,0.5444444444444514,0.5277777777777715,0.5680555555555458,0.9584352078239896,0.030425795995068516,1.1436878301016615,47.22222222222222,1.1333333333061335,0.9290953545232323,1.5254580887358316e-07,0.9871930425772328,0
363,212.75,0.5277777777777715,0.5666666666666629,0.55972222222222,0.9429280397022257,0.02383092690354217,0.8957905681100679,41.666666666666664,0.9999999999760001,1.012406947890816,5.176708264527721e-14,0.9978432452720198,0
364,213.31666666666666,0.5666666666666629,0.4805555555555543,0.5708333333333258,0.9927007299270139,0.026006934847679956,0.9775854307430222,44.44444444444444,1.0666666666410667,0.8418491484185004,2.6644677675151385e-13,0.9948585325037971,0
365,213.79722222222222,0.4805555555555543,0.76111111111112,0.5555555555555571,0.8649999999999952,0.04151525857594742,1.5605342257777068,125.0,2.9999999999280003,1.370000000000012,0.9999268054962158,0.8360233287373415,1
366,214.55833333333334,0.76111111111112,0.5861111111111086,0.5555555555555571,1.370000000000012,0.022527164478531075,0.846782903065883,38.888888888888886,0.9333333333109334,1.0549999999999924,1.971654137149472e-19,0.9983961132363699,0
367,215.14444444444445,0.5861111111111086,0.4361111111111029,0.5763888888888857,1.0168674698795193,0.02879896929122059,1.082536368257349,50.0,1.1999999999712,0.7566265060240863,4.356798810611906e-10,0.9887208115909554,0
368,215.58055555555555,0.4361111111111029,0.7222222222222285,0.5555555555555571,0.784999999999983,0.04488132871683436,1.6870628285470461,108.33333333333333,2.5999999999376002,1.3000000000000076,0.9998594522476196,0.8472590160033207,1
369,216.30277777777778,0.7222222222222285,0.5694444444444571,0.5555555555555571,1.3000000000000076,0.023149269397769418,0.8701674621845529,41.666666666666664,0.9999999999760001,1.02500000000002,1.9159948132618828e-17,0.9950921372619413,0
370,216.87222222222223,0.5694444444444571,0.44722222222222285,0.5555555555555571,1.02500000000002,0.02760996743617965,1.037842485744003,47.22222222222222,1.1333333333061335,0.8049999999999988,1.8524667910746473e-11,0.9922405399875347,0
371,217.31944444444446,0.44722222222222285,0.6361111111110915,0.5555555555555571,0.8049999999999988,0.042695502773921125,1.6048989130972895,111.11111111111111,2.666666666602667,1.1449999999999616,0.9998014569282532,0.846465147316968,1
372,217.95555555555555,0.6361111111110915,0.5083333333333542,0.56805555555556,1.119804400977952,0.0216734362479526,0.814691759495306,38.888888888888886,0.9333333333109334,0.8948655256724014,1.1340894352285775e-18,0.9960838465611324,0
373,218.4638888888889,0.5083333333333542,0.5361111111110972,0.56805555555556,0.8948655256724014,0.021143967937880013,0.7947893561940856,36.111111111111114,0.8666666666458669,0.9437652811735623,4.65836833710376e-16,0.9912539227251606,0
374,219.0,0.5361111111110972,0.5638888888888971,0.5527777777777771,0.9698492462311318,0.023268769300360148,0.8746593934495066,41.666666666666664,0.9999999999760001,1.0201005025125789,1.0577956662449674e-14,0.9996788780502179,0
375,219.5638888888889,0.5638888888888971,0.6111111111111143,0.5666666666666771,0.9950980392156825,0.024067856064769806,0.904696596347954,41.666666666666664,0.9999999999760001,1.0784313725490053,4.755118960262164e-14,0.9991931388793911,0
376,220.175,0.6111111111111143,0.5805555555555486,0.5666666666666771,1.0784313725490053,0.02369889284743551,0.8908274853643404,41.666666666666664,0.9999999999760001,1.0245098039215375,1.2361406132233759e-15,0.998509195097617,0
377,220.75555555555556,0.5805555555555486,0.46944444444443434,0.5666666666666771,1.0245098039215375,0.04157845649427948,1.562909798469243,136.11111111111111,3.266666666588267,0.8284313725489866,0.9983181953430176,0.8033224675162711,1
378,221.225,0.46944444444443434,0.8083333333333371,0.5666666666666771,0.8284313725489866,0.04580269289364384,1.7216963676754697,125.0,2.9999999999280003,1.4264705882352746,0.999909520149231,0.8231928524988626,1
379,222.03333333333333,0.8083333333333371,0.5527777777777771,0.5666666666666771,1.4264705882352746,0.02155666685317466,0.8103024664178954,38.888888888888886,0.9333333333109334,0.9754901960784124,2.590976257502393e-21,0.995081004102234,0
380,222.5861111111111,0.5527777777777771,0.42777777777777715,0.5583333333333371,0.9900497512437733,0.037206151342693984,1.3985574116929158,72.22222222222223,1.7333333332917338,0.7661691542288493,0.14706340432167053,0.94081676044277,0
381,223.01388888888889,0.42777777777777715,0.6694444444444514,0.5583333333333371,0.7661691542288493,0.042607979164755,1.601608951951619,116.66666666666667,2.7999999999328007,1.1990049751243823,0.9998062252998352,0.8389404155245597,1
382,223.68333333333334,0.6694444444444514,0.5472222222222172,0.5583333333333371,1.1990049751243823,0.022902839430274657,0.8609043042102541,41.666666666666664,0.9999999999760001,0.9800995024875465,1.2003719140208192e-17,0.9989637550369842,0
383,224.23055555555555,0.5472222222222172,0.5250000000000057,0.5583333333333371,0.9800995024875465,0.021612684755020945,0.8124081465000141,36.111111111111114,0.8666666666458669,0.9402985074626904,5.155554707224965e-17,0.9953698739152893,0
384,224.75555555555556,0.5250000000000057,0.5444444444444514,0.5583333333333371,0.9402985074626904,0.05173645613163842,1.944743048298024,102.77777777777777,2.466666666607467,0.9751243781094585,0.9932652711868286,0.8411982165155135,1
385,225.3,0.5444444444444514,0.5611111111111029,0.5499999999999972,0.9898989898990076,0.022155643584630562,0.8328176505199388,41.666666666666664,0.9999999999760001,1.0202020202020106,3.626102730932982e-15,0.9968311591019543,0
386,225.86111111111111,0.5611111111111029,0.5527777777777771,0.5499999999999972,1.0202020202020106,0.022971834663761143,0.8634977945789631,38.888888888888886,0.9333333333109334,1.0050505050505092,3.621761687078303e-15,0.9954317918709565,0
387,226.4138888888889,0.5527777777777771,0.46944444444443434,0.5499999999999972,1.0050505050505092,0.030720921612271124,1.1547814289938836,47.22222222222222,1.1333333333061335,0.8535353535353396,6.942906249918224e-09,0.9936053633075247,0
388,226.88333333333333,0.46944444444443434,0.5999999999999943,0.5499999999999972,0.8535353535353396,0.04090546447140145,1.5376124229643966,130.55555555555554,3.1333333332581335,1.0909090909090862,0.999828577041626,0.8278836904498363,1
389,227.48333333333332,0.5999999999999943,0.5138888888889142,0.5499999999999972,1.0909090909090862,0.027850778314147923,1.0468944254379735,41.666666666666664,0.9999999999760001,0.9343434343434851,4.293807930738636e-12,0.994789432613304,0
390,227.99722222222223,0.5138888888889142,0.544444444444423,0.5458333333333343,0.9414758269720548,0.023525448331613512,0.8843078077205527,38.888888888888886,0.9333333333109334,0.9974554707378724,2.6670138469106312e-14,0.9979019745025879,0
391,228.54166666666666,0.544444444444423,0.4583333333333428,0.5458333333333343,0.9974554707378724,0.0227930262852274,0.8567764924811513,38.888888888888886,0.9333333333109334,0.8396946564885656,1.207053581224002e-16,0.9986493876042617,0
392,229.0,0.4583333333333428,0.5749999999999886,0.5444444444444372,0.8418367346939062,0.039014484079156135,1.4665315788700508,125.0,2.9999999999280003,1.056122448979585,0.9997956156730652,0.8332915469839477,1
393,229.575,0.5749999999999886,0.5083333333333542,0.5444444444444372,1.056122448979585,0.027050915088750016,1.016828035826286,38.888888888888886,0.9333333333109334,0.9336734693878058,4.323384098642302e-12,0.9907429222479889,0
394,230.08333333333334,0.5083333333333542,0.48611111111111427,0.5444444444444372,0.9336734693878058,0.021702042247654613,0.8157670422498604,33.333333333333336,0.7999999999808002,0.8928571428571606,2.4970713926536026e-16,0.9915880493699533,0
395,230.56944444444446,0.48611111111111427,0.4583333333333144,0.5291666666666686,0.9186351706036772,0.021964021941013396,0.8256147053011991,36.111111111111114,0.8666666666458669,0.8661417322834256,9.362754915440662e-16,0.9947389713187766,0
396,231.02777777777777,0.4583333333333144,0.6388888888888857,0.5111111111111342,0.8967391304347051,0.040716831709488074,1.530521828056255,133.33333333333334,3.1999999999232007,1.2499999999999374,0.999920129776001,0.8201445416001667,1
397,231.66666666666666,0.6388888888888857,0.575000000000017,0.5111111111111342,1.2499999999999374,0.025264116142679052,0.9496633112027772,44.44444444444444,1.0666666666410667,1.1249999999999827,1.0157221201276267e-12,0.9954139945541536,0
398,232.24166666666667,0.575000000000017,0.549999999999983,0.5291666666666686,1.0866141732283747,0.023066183970704996,0.8670443297015842,38.888888888888886,0.9333333333109334,1.0393700787401214,1.561222117500683e-15,0.9990814959002416,0
399,232.79166666666666,0.549999999999983,0.5472222222222456,0.5291666666666686,1.0393700787401214,0.023201334042135847,0.8721245416361507,41.666666666666664,0.9999999999760001,1.034120734908177,1.3930397024168421e-14,0.9990087987588533,0
400,233.3388888888889,0.5472222222222456,0.5361111111110972,0.5458333333333343,1.0025445292621276,0.020740910239804268,0.7796386536720306,36.111111111111114,0.8666666666458669,0.9821882951653672,1.0039822628545608e-16,0.9919115607181072,0
401,233.875,0.5361111111110972,0.5583333333333371,0.5416666666666714,0.9897435897435555,0.024717259187883932,0.9291072789429473,44.44444444444444,1.0666666666410667,1.0307692307692287,4.108995045257191e-13,0.9981820093429474,0
402,234.43333333333334,0.5583333333333371,0.44722222222222285,0.5486111111111143,1.0177215189873428,0.02402249207492667,0.9029913905706963,41.666666666666664,0.9999999999760001,0.815189873417718,2.9321419780164526e-15,0.9962179336805184,0
403,234.88055555555556,0.44722222222222285,0.7138888888888744,0.5416666666666714,0.8256410256410196,0.043127501301247324,1.6211374844202844,111.11111111111111,2.666666666602667,1.3179487179486795,0.9998949766159058,0.8417947420570686,1
404,235.59444444444443,0.7138888888888744,0.5500000000000114,0.5486111111111143,1.3012658227847762,0.02628458024976481,0.9880219585991742,38.888888888888886,0.9333333333109334,1.0025316455696351,2.9857561989623345e-15,0.9926189438156268,0
405,236.14444444444445,0.5500000000000114,0.4388888888888971,0.5499999999999972,1.0000000000000258,0.026501679444720583,0.9961825900329756,38.888888888888886,0.9333333333109334,0.797979797979817,3.0630714436229167e-13,0.9931174235185298,0
406,236.58333333333334,0.4388888888888971,0.6416666666666515,0.5499999999999972,0.797979797979817,0.04010126048325751,1.5073828666264615,119.44444444444444,2.866666666597867,1.1666666666666452,0.9998455047607422,0.8392682727048437,1
407,237.225,0.6416666666666515,0.5694444444444571,0.5499999999999972,1.1666666666666452,0.022441912396359773,0.8435783272879493,41.666666666666664,0.9999999999760001,1.0353535353535637,3.3767016087895966e-16,0.9938882375163471,0
408,237.79444444444445,0.5694444444444571,0.5694444444444287,0.5499999999999972,1.0353535353535637,0.023174694764167593,0.8711231867983044,38.888888888888886,0.9333333333109334,1.035353535353512,1.6747678369921875e-15,0.9987802374254893,0
409,238.36388888888888,0.5694444444444287,0.5722222222222229,0.5541666666666742,1.0275689223057218,0.02400498926141058,0.9023334700740845,41.666666666666664,0.9999999999760001,1.0325814536340723,1.6353456742533752e-14,0.9992183748175321,0
410,238.9361111111111,0.5722222222222229,0.5777777777777828,0.5638888888888829,1.0147783251231646,0.02389802091258113,0.8983125925666516,41.666666666666664,0.9999999999760001,1.024630541871941,1.0124367978096155e-14,0.9987967745901497,0
411,239.51388888888889,0.5777777777777828,0.5888888888889028,0.5694444444444429,1.0146341463414752,0.02349407239107927,0.8831284045143779,41.666666666666664,0.9999999999760001,1.034146341463442,1.0015657228546696e-14,0.99629461401935,0
412,240.1027777777778,0.5888888888889028,0.4361111111111029,0.57083333333334,1.031630170316314,0.033883968623325794,1.2736785113633637,61.111111111111114,1.466666666631467,0.7639902676398794,0.001232364447787404,0.9699958667735886,0
413,240.5388888888889,0.4361111111111029,0.8083333333333371,0.57083333333334,0.7639902676398794,0.045511582424548495,1.7107536958461609,122.22222222222223,2.933333333262934,1.4160583941605742,0.9998630285263062,0.8045870140203215,1
414,241.34722222222223,0.8083333333333371,0.549999999999983,0.57083333333334,1.4160583941605742,0.023235927374772362,0.8734248847248066,41.666666666666664,0.9999999999760001,0.9635036496349955,4.7237638451178094e-20,0.9978405412409219,0
415,241.8972222222222,0.549999999999983,0.40555555555556566,0.57083333333334,0.9635036496349955,0.050301070563140086,1.890787746472521,97.22222222222223,2.333333333277334,0.7104622871046323,0.928641676902771,0.8516772444255651,1
416,242.30277777777778,0.40555555555556566,0.7222222222222285,0.57083333333334,0.7104622871046323,0.04639970777362889,1.744137806931132,105.55555555555556,2.533333333272534,1.2652068126520646,0.9997401833534241,0.8742885898964136,1
417,243.025,0.7222222222222285,0.5694444444444287,0.57083333333334,1.2652068126520646,0.024140916194095557,0.9074428837676507,41.666666666666664,0.9999999999760001,0.9975669099756298,1.7074592721148143e-17,0.9976468451676626,0
418,243.59444444444443,0.5694444444444287,0.4805555555555543,0.5708333333333258,0.9975669099756547,0.02634267534662204,0.99020571922371,44.44444444444444,1.0666666666410667,0.8418491484185004,6.652672661887349e-13,0.9937059546466687,0
419,244.075,0.4805555555555543,0.6666666666666856,0.5708333333333258,0.8418491484185004,0.040363211597352254,1.5172294554000234,125.0,2.9999999999280003,1.1678832116788809,0.9998719692230225,0.8162900572816736,1
420,244.74166666666667,0.6666666666666856,0.5611111111111029,0.5736111111111057,1.1622276029056129,0.022636035655139372,0.8508753067537254,41.666666666666664,0.9999999999760001,0.9782082324455155,8.760626854157263e-18,0.997720476000218,0
421,245.30277777777778,0.5611111111111029,0.5361111111111256,0.5652777777777658,0.9926289926289992,0.021254963986940385,0.7989616325913996,38.888888888888886,0.9333333333109334,0.9484029484029942,3.540533530307441e-17,0.9961132551729102,0
422,245.8388888888889,0.5361111111111256,0.5888888888888744,0.5555555555555429,0.965000000000048,0.052033960866141746,1.9559260768144915,111.11111111111111,2.666666666602667,1.059999999999998,0.9974973797798157,0.8216841911074932,1
423,246.42777777777778,0.5888888888888744,0.5972222222222285,0.5652777777777658,1.0417690417690382,0.024556587428344816,0.9230677217180289,44.44444444444444,1.0666666666410667,1.05651105651109,9.031551819350253e-14,0.9977445663041634,0
424,247.025,0.5972222222222285,0.5555555555555429,0.5652777777777658,1.05651105651109,0.023844095691728812,0.8962855751359708,41.666666666666664,0.9999999999760001,0.9828009828009813,1.8695363928288543e-15,0.9980897300721603,0
425,247.58055555555555,0.5555555555555429,0.6583333333333314,0.5652777777777658,0.9828009828009813,0.041203974159810856,1.5488332271088998,127.77777777777777,3.066666666593067,1.164619164619186,0.9998241066932678,0.8118951313077554,1
426,248.23888888888888,0.6583333333333314,0.5583333333333371,0.5791666666666515,1.1366906474820409,0.02164002148831782,0.8134357182746831,38.888888888888886,0.9333333333109334,0.964028776978449,6.553748374342458e-19,0.9967826751624973,0
427,248.79722222222222,0.5583333333333371,0.42500000000001137,0.5652777777777658,0.9877149877150154,0.03362142279134773,1.2638095674933036,63.888888888888886,1.5333333332965335,0.7518427518427879,0.001843257574364543,0.9661839674303186,0
428,249.22222222222223,0.42500000000001137,0.7666666666666515,0.55972222222222,0.7593052109181374,0.045018119186714015,1.6922047020973916,119.44444444444444,2.866666666597867,1.3697270471463803,0.9998605251312256,0.8277415254917071,1
429,249.98888888888888,0.7666666666666515,0.6000000000000227,0.5749999999999886,1.3333333333333333,0.022912760936012404,0.8612772477930739,41.666666666666664,0.9999999999760001,1.0434782608696254,8.551417987991577e-19,0.9971090406036385,0
430,250.5888888888889,0.6000000000000227,0.4583333333333144,0.5749999999999886,1.0434782608696254,0.02958605077479194,1.1121222996888493,47.22222222222222,1.1333333333061335,0.7971014492753451,1.2673017080189197e-09,0.9873834587775634,0
431,251.04722222222222,0.4583333333333144,0.7055555555555486,0.5736111111111057,0.7990314769975532,0.043131894899880514,1.621302637216548,122.22222222222223,2.933333333262934,1.2300242130750598,0.9998586177825928,0.8279745941160139,1
432,251.75277777777777,0.7055555555555486,0.5638888888888971,0.5930555555555515,1.1896955503512845,0.022892263935853033,0.8605067775762992,38.888888888888886,0.9333333333109334,0.9508196721311679,1.8513359349157179e-19,0.9990368227824173,0
433,252.31666666666666,0.5638888888888971,0.4749999999999943,0.5805555555555628,0.9712918660287101,0.021273971911431797,0.7996761293269934,38.888888888888886,0.9333333333109334,0.8181818181817981,2.5753221988363637e-18,0.9962237539490201,0
434,252.79166666666666,0.4749999999999943,0.6083333333333485,0.5611111111111171,0.8465346534653273,0.03946349997421888,1.4834098230674648,119.44444444444444,2.866666666597867,1.0841584158415996,0.999795138835907,0.8396744329601528,1
435,253.4,0.6083333333333485,0.5611111111111029,0.5819444444444599,1.0453460620525041,0.022986623533593806,0.864053699523942,38.888888888888886,0.9333333333109334,0.9642004773269293,2.8032935892462844e-17,0.9991261662480365,0
436,253.9611111111111,0.5611111111111029,0.5694444444444571,0.5625,0.9975308641975162,0.024199928006805867,0.9096611032035516,41.666666666666664,0.9999999999760001,1.0123456790123682,4.3789167306291024e-14,0.9969494627705522,0
437,254.53055555555557,0.5694444444444571,0.5916666666666686,0.5666666666666771,1.0049019607843175,0.024261222297355375,0.9119651196430082,41.666666666666664,0.9999999999760001,1.0441176470588076,2.6431212497542503e-14,0.9990915259274976,0
438,255.12222222222223,0.5916666666666686,0.5833333333333144,0.5805555555555628,1.0191387559808518,0.029264084912625554,1.100019791727264,44.44444444444444,1.0666666666410667,1.0047846889951701,2.7440172356563153e-10,0.9941426308594312,0
439,255.70555555555555,0.5833333333333144,0.6166666666666458,0.5763888888888857,1.012048192771057,0.02340971493771999,0.8799574573088876,41.666666666666664,0.9999999999760001,1.069879518072259,8.520370485000893e-15,0.9974516935731099,0
440,256.3222222222222,0.6166666666666458,0.4861111111111427,0.5763888888888857,1.069879518072259,0.04767053102013336,1.791907307570426,100.0,2.3999999999424,0.8433734939759631,0.27905943989753723,0.8616497568982497,0
441,256.80833333333334,0.4861111111111427,0.7555555555555316,0.5763888888888857,0.8433734939759631,0.04275007329455184,1.6069501869682434,136.11111111111111,3.266666666588267,1.3108433734939415,0.9999094009399414,0.8084667529896408,1
442,257.56388888888887,0.7555555555555316,0.5833333333333712,0.5763888888888857,1.3108433734939415,0.023732329037103074,0.8920843321273294,41.666666666666664,0.9999999999760001,1.0120481927711555,3.9886156964842525e-18,0.9962765142577263,0
443,258.14722222222224,0.5833333333333712,0.4361111111110745,0.5833333333333428,1.0000000000000486,0.04486134159447489,1.686311524337783,86.11111111111111,2.066666666617067,0.7476190476189727,0.32386866211891174,0.8975590517861283,0
444,258.5833333333333,0.4361111111110745,0.716666666666697,0.5833333333333428,0.7476190476189727,0.04491394801182459,1.6882889687181322,122.22222222222223,2.933333333262934,1.2285714285714606,0.999796450138092,0.8369477469184855,1
445,259.3,0.716666666666697,0.5416666666666288,0.5833333333333428,1.2285714285714606,0.021884003477101562,0.8226068581647026,38.888888888888886,0.9333333333109334,0.9285714285713486,5.457195490582742e-20,0.9959578516421903,0
446,259.84166666666664,0.5416666666666288,0.42500000000001137,0.5833333333333428,0.9285714285713486,0.031044725817849443,1.166953039206339,47.22222222222222,1.1333333333061335,0.7285714285714362,8.238004944871591e-09,0.9914753183026581,0
447,260.26666666666665,0.42500000000001137,0.63611111111112,0.5833333333333428,0.7285714285714362,0.04577129539266242,1.7205161540247282,102.77777777777777,2.466666666607467,1.090476190476188,0.9996392726898193,0.8446052831683237,1
448,260.90277777777777,0.63611111111112,0.5722222222222513,0.5833333333333428,1.090476190476188,0.024913484018197866,0.9364832552503604,41.666666666666664,0.9999999999760001,0.9809523809524149,1.1224660388447702e-15,0.9985616257487584,0
449,261.475,0.5722222222222513,0.533333333333303,0.5777777777778113,0.9903846153846083,0.022981572741308586,0.8638638432036697,38.888888888888886,0.9333333333109334,0.9230769230768171,9.074550499299508e-17,0.9988145546729377,0
450,262.0083333333333,0.533333333333303,0.5972222222222285,0.55694444444444,0.9576059850373596,0.04942390329047189,1.8578155430541883,108.33333333333333,2.5999999999376002,1.0723192019950323,0.996925413608551,0.8362140311429824,1
451,262.60555555555555,0.5972222222222285,0.544444444444423,0.5777777777778113,1.0336538461537972,0.02290115102410006,0.8608408380122139,41.666666666666664,0.9999999999760001,0.9423076923076006,8.941124943005724e-17,0.9993673371739582,0
452,263.15,0.544444444444423,0.5555555555555998,0.5583333333333371,0.9751243781094077,0.023760827128232263,0.8931555586619077,41.666666666666664,0.9999999999760001,0.995024875621963,1.7090551589498022e-14,0.9985964667396423,0
453,263.7055555555556,0.5555555555555998,0.4583333333333144,0.5500000000000114,1.0101010101010697,0.035683955032114884,1.3413389449774635,69.44444444444444,1.666666666626667,0.8333333333332816,0.041778940707445145,0.9568586268439447,0
454,264.1638888888889,0.4583333333333144,0.7194444444444343,0.5500000000000114,0.8333333333332816,0.041404480410021836,1.5563701394796654,125.0,2.9999999999280003,1.3080808080807627,0.9999055862426758,0.8214231405573696,1
455,264.8833333333333,0.7194444444444343,0.5583333333333371,0.5500000000000114,1.3080808080807627,0.0228434211731697,0.8586708067678929,41.666666666666664,0.9999999999760001,1.0151515151515011,3.009180498071958e-18,0.9990434611028087,0
456,265.44166666666666,0.5583333333333371,0.4388888888888687,0.5569444444444684,1.0024937655859985,0.026649957425343943,1.0017562723760267,47.22222222222222,1.1333333333061335,0.7880299251869621,2.524387166316644e-12,0.9934238587564307,0
457,265.88055555555553,0.4388888888888687,0.6472222222222399,0.5569444444444684,0.7880299251869621,0.04159679615807406,1.5635991756771037,116.66666666666667,2.7999999999328007,1.162094763092251,0.9998252987861633,0.8446205521210612,1
458,266.52777777777777,0.6472222222222399,0.5638888888888687,0.5569444444444684,1.162094763092251,0.028525084549827658,1.072241201431396,41.666666666666664,0.9999999999760001,1.0124688279300946,5.313838345039068e-12,0.9939650673458216,0
459,267.09166666666664,0.5638888888888687,0.5138888888889142,0.5569444444444684,1.0124688279300946,0.022760698306612925,0.8555613027218051,38.888888888888886,0.9333333333109334,0.9226932668329233,4.2836883421439444e-16,0.9958483654783195,0
460,267.60555555555555,0.5138888888889142,0.6499999999999773,0.5569444444444684,0.9226932668329233,0.04021952536531076,1.5118283741936138,133.33333333333334,3.1999999999232007,1.167082294264248,0.9998818635940552,0.824889243896602,1
461,268.25555555555553,0.6499999999999773,0.6000000000000227,0.5569444444444684,1.167082294264248,0.023465287832459287,0.8820464098348021,41.666666666666664,0.9999999999760001,1.0773067331670767,5.589519596954293e-16,0.9982605153378057,0
462,268.85555555555555,0.6000000000000227,0.5944444444444343,0.5611111111111029,1.0693069306931255,0.023785695534531647,0.8940903474721408,41.666666666666664,0.9999999999760001,1.0594059405940568,7.033037804346281e-15,0.9977508600539631,0
463,269.45,0.5944444444444343,0.45555555555557703,0.5791666666666515,1.0263788968825034,0.04338066608370077,1.6306538001396584,86.11111111111111,2.066666666617067,0.7865707434053334,0.13959965109825134,0.9084107555534807,0
464,269.90555555555557,0.45555555555557703,0.8277777777777828,0.5791666666666515,0.7865707434053334,0.045137445616440626,1.6966901126191056,127.77777777777777,3.066666666593067,1.4292565947242668,0.9998928308486938,0.8066981894618005,1
465,270.73333333333335,0.8277777777777828,0.533333333333303,0.5791666666666515,1.4292565947242668,0.02300068368442793,0.8645822123490784,41.666666666666664,0.9999999999760001,0.9208633093524897,3.0728606631028162e-21,0.9993779741657485,0
466,271.26666666666665,0.533333333333303,0.4416666666666629,0.5791666666666515,0.9208633093524897,0.041358559976049036,1.5546440172938665,113.88888888888889,2.7333333332677334,0.7625899280575674,0.9950398802757263,0.8434634836819883,1
467,271.7083333333333,0.4416666666666629,0.8027777777778056,0.5791666666666515,0.7625899280575674,0.04783403095773586,1.7980531743503343,125.0,2.9999999999280003,1.3860911270984055,0.9998695850372314,0.8438652605130306,1
468,272.5111111111111,0.8027777777778056,0.5777777777777828,0.5791666666666515,1.3860911270984055,0.023076184121299134,0.8674202294984392,41.666666666666664,0.9999999999760001,0.9976019184652627,7.545760621324074e-20,0.9976402169779893,0
469,273.0888888888889,0.5777777777777828,0.46666666666664014,0.5861111111111086,0.9857819905213399,0.05026244014131469,1.8893356515685595,105.55555555555556,2.533333333272534,0.7962085308056454,0.9403976798057556,0.8372214312132178,1
470,273.55555555555554,0.46666666666664014,0.7444444444444684,0.5861111111111086,0.7962085308056454,0.04451816508265522,1.6734117204934231,125.0,2.9999999999280003,1.2701421800948332,0.9998681545257568,0.8298648431076998,1
471,274.3,0.7444444444444684,0.5722222222221944,0.5861111111111086,1.2701421800948332,0.024520083075865607,0.9216955445140873,41.666666666666664,0.9999999999760001,0.9763033175355018,1.522834048318081e-17,0.9952066074236028,0
472,274.8722222222222,0.5722222222221944,0.4472222222222513,0.5749999999999886,0.9951690821255752,0.025705753152115336,0.9662641874163901,44.44444444444444,1.0666666666410667,0.7777777777778437,7.636566482253568e-14,0.9945713938368559,0
473,275.31944444444446,0.4472222222222513,0.6666666666666288,0.5527777777777487,0.8090452261307484,0.04186335929912943,1.5736191278396736,116.66666666666667,2.7999999999328007,1.2060301507537636,0.9998618364334106,0.8414672949253625,1
474,275.9861111111111,0.6666666666666288,0.5694444444444571,0.5749999999999886,1.1594202898550294,0.0232154619031944,0.872655599648919,41.666666666666664,0.9999999999760001,0.9903381642512493,1.4659708405971033e-17,0.9996114212923138,0
475,276.55555555555554,0.5694444444444571,0.49444444444446844,0.5708333333333258,0.9975669099757045,0.02350369307786118,0.8834900404890446,38.888888888888886,0.9333333333109334,0.866180048661854,1.904344338293543e-16,0.9974874562350324,0
476,277.05,0.49444444444446844,0.6277777777777942,0.5708333333333258,0.866180048661854,0.04169896268031973,1.5674395553389906,130.55555555555554,3.1333333332581335,1.0997566909976102,0.9998252987861633,0.8245736613582284,1
477,277.6777777777778,0.6277777777777942,0.5527777777777487,0.5749999999999886,1.0917874396135767,0.022684701504839602,0.8527046275068366,38.888888888888886,0.9333333333109334,0.9613526570047994,2.1581837013223037e-17,0.9962110454479414,0
478,278.23055555555555,0.5527777777777487,0.4805555555555543,0.5708333333333258,0.9683698296836603,0.02085413167077913,0.7838945808705707,38.888888888888886,0.9333333333109334,0.8418491484185004,3.1337950505579186e-18,0.9965643330904295,0
479,278.7111111111111,0.4805555555555543,0.6472222222222399,0.5611111111111029,0.8564356435643667,0.03890113529451627,1.462270864521922,133.33333333333334,3.1999999999232007,1.1534653465347018,0.9998805522918701,0.8330537393749721,1
480,279.35833333333335,0.6472222222222399,0.6055555555555543,0.5708333333333258,1.1338199513382456,0.02408684319206417,0.905410311329106,41.666666666666664,0.9999999999760001,1.0608272506082843,8.547908161390841e-16,0.9986013007864437,0
481,279.9638888888889,0.6055555555555543,0.5388888888888914,0.5708333333333258,1.0608272506082843,0.025519242249374442,0.959253351950307,44.44444444444444,1.0666666666410667,0.9440389294404062,1.0255700775381113e-13,0.9944910505332055,0
482,280.5027777777778,0.5388888888888914,0.7416666666666742,0.5611111111111029,0.9603960396039789,0.04167703496506486,1.566615305380732,136.11111111111111,3.266666666588267,1.3217821782178547,0.9999406337738037,0.8006907198706648,1
483,281.24444444444447,0.7416666666666742,0.5749999999999886,0.5875000000000057,1.2624113475177312,0.020720324220561987,0.778864837280129,38.888888888888886,0.9333333333109334,0.9787234042552904,4.2669772625249815e-21,0.9958867646241517,0
484,281.81944444444446,0.5749999999999886,0.4361111111110745,0.5722222222222229,1.004854368932018,0.027837408921449928,1.046391877806121,47.22222222222222,1.1333333333061335,0.7621359223300322,1.9469047901621295e-11,0.9911544607569793,0
485,282.25555555555553,0.4361111111110745,0.716666666666697,0.5638888888888687,0.7733990147782879,0.039750259451718464,1.4941889436740627,111.11111111111111,2.666666666602667,1.2709359605912323,0.999858021736145,0.8653389309057147,1
486,282.97222222222223,0.716666666666697,0.5833333333333144,0.5902777777777715,1.214117647058888,0.022055290383099425,0.8290454325203997,38.888888888888886,0.9333333333109334,0.9882352941176256,9.976394662159347e-20,0.9971923944630328,0
487,283.55555555555554,0.5833333333333144,0.4444444444444571,0.5791666666666515,1.0071942446043103,0.027775113513649054,1.04405022995623,47.22222222222222,1.1333333333061335,0.7673860911271402,7.121885546579332e-12,0.9927444113483882,0
488,284.0,0.4444444444444571,0.6888888888888687,0.5791666666666515,0.7673860911271402,0.04210816059272441,1.5828210649171162,111.11111111111111,2.666666666602667,1.1894484412469986,0.9997945427894592,0.8436400583006041,1
489,284.68888888888887,0.6888888888888687,0.5555555555555998,0.5944444444444343,1.158878504672883,0.02381491474139156,0.8951886803241825,41.666666666666664,0.9999999999760001,0.9345794392524267,5.4007052327505704e-18,0.9988725873775983,0
490,285.24444444444447,0.5555555555555998,0.4916666666666174,0.5791666666666515,0.9592326139089743,0.022323355096172233,0.8391218278945999,36.111111111111114,0.8666666666458669,0.8489208633092897,2.298145969688726e-17,0.994630133101998,0
491,285.7361111111111,0.4916666666666174,0.6333333333333826,0.5652777777777942,0.8697788697787574,0.03819516976373724,1.4357340341903804,125.0,2.9999999999280003,1.120393120393175,0.9998362064361572,0.8386695404431481,1
492,286.36944444444447,0.6333333333333826,0.5527777777777487,0.5791666666666515,1.0935251798562289,0.023979718325413606,0.9013835504085578,41.666666666666664,0.9999999999760001,0.9544364508393034,1.557735147554633e-16,0.9989645886840035,0
493,286.9222222222222,0.5527777777777487,0.5722222222222513,0.5652777777777942,0.977886977886898,0.023015916530775657,0.8651548061109156,41.666666666666664,0.9999999999760001,1.0122850122850342,2.432924094662465e-14,0.9935290116049187,0
494,287.49444444444447,0.5722222222222513,0.4583333333333144,0.5638888888889255,1.0147783251231384,0.03169952038473023,1.1915663830110375,55.55555555555556,1.3333333333013335,0.8128078817733126,2.7412494091549888e-05,0.97885920470189,0
495,287.9527777777778,0.4583333333333144,0.75,0.5638888888889255,0.8128078817733126,0.043735896138353755,1.6440066895910574,122.22222222222223,2.933333333262934,1.3300492610836574,0.9998921155929565,0.8274908941562988,1
496,288.7027777777778,0.75,0.5527777777777487,0.5638888888889255,1.3300492610836574,0.020671189022229756,0.7770178739871617,36.111111111111114,0.8666666666458669,0.9802955665023478,1.821971524002097e-21,0.9954923315889073,0
497,289.25555555555553,0.5527777777777487,0.4333333333333371,0.5541666666666742,0.9974937343357735,0.02862061488082308,1.075832130555576,41.666666666666664,0.9999999999760001,0.7819548872180413,1.1517814479944377e-11,0.995423945357988,0
498,289.68888888888887,0.4333333333333371,0.6777777777778056,0.5541666666666742,0.7819548872180413,0.041559486632324075,1.5621967324820583,113.88888888888889,2.7333333332677334,1.2230576441103092,0.9998397827148438,0.8416658275713451,1
499,290.3666666666667,0.6777777777778056,0.5777777777777828,0.5541666666666742,1.2230576441103092,0.022850369767693553,0.8589320003614649,38.888888888888886,0.9333333333109334,1.0426065162907217,1.2384003019120258e-17,0.9976263682849924,0
500,290.94444444444446,0.5777777777777828,0.5527777777777487,0.5625,1.0271604938271695,0.024413208654955477,0.9176781977020634,41.666666666666664,0.9999999999760001,0.9827160493826644,2.9722060858501653e-14,0.9956644318872424,0
501,291.4972222222222,0.5527777777777487,0.6305555555555884,0.5625,0.9827160493826644,0.0483060225436366,1.8157950612936553,116.66666666666667,2.7999999999328007,1.120987654321046,0.9993898868560791,0.8196800512920257,1
502,292.1277777777778,0.6305555555555884,0.5805555555555202,0.5625,1.120987654321046,0.02414098828408332,0.9074455935880179,41.666666666666664,0.9999999999760001,1.032098765432036,9.674637740575615e-16,0.9994612721735512,0
503,292.7083333333333,0.5805555555555202,0.6027777777778169,0.575000000000017,1.0096618357487008,0.024700647487066157,0.9284828548501263,41.666666666666664,0.9999999999760001,1.0483091787439984,5.702911558790047e-14,0.9974654441524378,0
504,293.31111111111113,0.6027777777778169,0.42222222222221717,0.5791666666666515,1.0407673860912219,0.05185958871623421,1.9493715299493828,105.55555555555556,2.533333333272534,0.7290167865707537,0.8238612413406372,0.8228283275508614,1
505,293.73333333333335,0.42222222222221717,0.8444444444444343,0.5791666666666515,0.7290167865707537,0.04640678600188138,1.7444038733805478,138.88888888888889,3.333333333253334,1.4580335731415075,0.9998661279678345,0.7981596853846951,1
506,294.5777777777778,0.8444444444444343,0.5500000000000114,0.5791666666666515,1.4580335731415075,0.02302076946986163,0.865337225245447,41.666666666666664,0.9999999999760001,0.9496402877698287,4.00530505731301e-21,0.9979058007987602,0
507,295.1277777777778,0.5500000000000114,0.4388888888888687,0.5791666666666515,0.9496402877698287,0.048982280681133625,1.841215208131816,105.55555555555556,2.533333333272534,0.7577937649879946,0.9757104516029358,0.8353013789787989,1
508,295.56666666666666,0.4388888888888687,0.7138888888889028,0.5791666666666515,0.7577937649879946,0.04562742261463451,1.7151080606640776,130.55555555555554,3.1333333332581335,1.232613908872958,0.9998170733451843,0.8156178260397742,1
509,296.28055555555557,0.7138888888889028,0.5416666666666288,0.5791666666666515,1.232613908872958,0.021125201053005128,0.7940839199963341,38.888888888888886,0.9333333333109334,0.9352517985611101,8.995677695689113e-20,0.9917052418014976,0
510,296.8222222222222,0.5416666666666288,0.4472222222222513,0.5666666666666345,0.955882352941164,0.02636741323374749,0.99113560189473,44.44444444444444,1.0666666666410667,0.7892156862746059,1.2702836829289743e-12,0.9927379324944081,0
511,297.26944444444445,0.4472222222222513,0.6805555555555429,0.5652777777777658,0.7911547911548593,0.04203319274304458,1.580003067407976,119.44444444444444,2.866666666597867,1.2039312039312071,0.9998395442962646,0.8264381452584574,1
512,297.95,0.6805555555555429,0.5861111111111086,0.5652777777777658,1.2039312039312071,0.02269975885866741,0.8532706246077568,38.888888888888886,0.9333333333109334,1.0368550368550544,2.601011947120423e-18,0.999709375148889,0
513,298.5361111111111,0.5861111111111086,0.5861111111111086,0.56805555555556,1.0317848410757822,0.02291156817179587,0.8612324124855982,41.666666666666664,0.9999999999760001,1.0317848410757822,3.4697262610679713e-15,0.995280627400184,0
