beat_index,peak_time_s,rr_prev_s,rr_next_s,rr_baseline_s,prematurity_index,aa_ratio,morph_index,qrs_width_ms,width_index,pause_index,pvc_score,morphology_score,is_pvc_candidate
0,0.525,,0.6583333333333333,0.625,,0.019507997117530217,1.1237776283737746,30.555555555555557,0.9999999999672727,1.0533333333333332,0.0,0.9912210143175564,0
1,1.1833333333333333,0.6583333333333333,0.6499999999999999,0.625,1.0533333333333332,0.0179656139470273,1.0349271076899356,30.555555555555557,0.9999999999672727,1.0399999999999998,0.0,0.9953909398440076,0
2,1.8333333333333333,0.6499999999999999,0.6388888888888891,0.625,1.0399999999999998,0.017586216953833004,1.013071565541998,30.555555555555557,0.9999999999672727,1.0222222222222226,0.0,0.9923337369118366,0
3,2.4722222222222223,0.6388888888888891,0.625,0.625,1.0222222222222226,0.017692771147270702,1.0192097261165192,30.555555555555557,0.9999999999672727,1.0,0.0,0.9932359397193627,0
4,3.0972222222222223,0.625,0.6166666666666667,0.625,1.0,0.01856310599797311,1.0693462331357093,30.555555555555557,0.9999999999672727,0.9866666666666667,0.0,0.9931485334733884,0
5,3.713888888888889,0.6166666666666667,0.6027777777777774,0.625,0.9866666666666667,0.016818984912441548,0.9688743986728028,30.555555555555557,0.9999999999672727,0.9644444444444439,0.0,0.9991664788997414,0
6,4.316666666666666,0.6027777777777774,0.6083333333333334,0.625,0.9644444444444439,0.016453764036891694,0.9478354859189563,27.77777777777778,0.909090909061157,0.9733333333333334,0.0,0.999192733528945,0
7,4.925,0.6083333333333334,0.6305555555555555,0.625,0.9733333333333334,0.018536992918839167,1.067841963170839,38.888888888888886,1.2727272726856196,1.008888888888889,0.0,0.98679041663767,0
8,5.555555555555555,0.6305555555555555,0.6583333333333332,0.625,1.008888888888889,0.01786104978764755,1.028903585011891,33.333333333333336,1.0909090908733885,1.0533333333333332,0.0,0.9975671335116537,0
9,6.213888888888889,0.6583333333333332,0.666666666666667,0.625,1.0533333333333332,0.0168015172919224,0.9678681589731517,30.555555555555557,0.9999999999672727,1.066666666666667,0.0,0.9986062983950424,0
10,6.8805555555555555,0.666666666666667,0.6361111111111111,0.625,1.066666666666667,0.01697760564616109,0.9780119042237992,30.555555555555557,0.9999999999672727,1.0177777777777777,0.0,0.9945911462713091,0
11,7.516666666666667,0.6361111111111111,0.636111111111112,0.625,1.0177777777777777,0.0161674956411547,0.9313447095003665,30.555555555555557,0.9999999999672727,1.0177777777777792,0.0,0.9981839841011493,0
12,8.152777777777779,0.636111111111112,0.6388888888888875,0.625,1.0177777777777792,0.016656987381652787,0.9595423693591113,30.555555555555557,0.9999999999672727,1.02222222222222,0.0,0.9980146675207658,0
13,8.791666666666666,0.6388888888888875,0.625,0.625,1.02222222222222,0.016093888341461943,0.9271044875964278,30.555555555555557,0.9999999999672727,1.0,0.0,0.9991542935552961,0
14,9.416666666666666,0.625,0.6361111111111111,0.625,1.0,0.015943459011307257,0.9184388560166908,30.555555555555557,0.9999999999672727,1.0177777777777777,0.0,0.999248357629231,0
15,10.052777777777777,0.6361111111111111,0.6277777777777782,0.625,1.0177777777777777,0.015110377882714,0.8704483868110031,30.555555555555557,0.9999999999672727,1.0044444444444451,0.0,0.9979624353362132,0
16,10.680555555555555,0.6277777777777782,0.5999999999999996,0.625,1.0044444444444451,0.020560157918289752,1.184388400572571,30.555555555555557,0.9999999999672727,0.9599999999999994,0.0,0.9883276776933207,0
17,11.280555555555555,0.5999999999999996,0.6444444444444457,0.625,0.9599999999999994,0.015629683334291083,0.9003634952282813,27.77777777777778,0.909090909061157,1.031111111111113,0.0,0.9984671331046768,0
18,11.925,0.6444444444444457,0.6583333333333332,0.625,1.031111111111113,0.016654933732801788,0.959424066869041,30.555555555555557,0.9999999999672727,1.0533333333333332,0.0,0.9980148363820551,0
19,12.583333333333334,0.6583333333333332,0.6611111111111097,0.625,1.0533333333333332,0.015497758200126811,0.8927638163119463,30.555555555555557,0.9999999999672727,1.0577777777777755,0.0,0.9898777855640335,0
20,13.244444444444444,0.6611111111111097,0.6722222222222225,0.625,1.0577777777777755,0.016778670974929785,0.9665520740992224,30.555555555555557,0.9999999999672727,1.075555555555556,0.0,0.9972225612337392,0
21,13.916666666666666,0.6722222222222225,0.6583333333333332,0.625,1.075555555555556,0.017038291621140515,0.9815077803317901,27.77777777777778,0.909090909061157,1.0533333333333332,0.0,0.9982195626480789,0
22,14.575,0.6583333333333332,0.6444444444444457,0.625,1.0533333333333332,0.015677803845976748,0.9031355252922828,30.555555555555557,0.9999999999672727,1.031111111111113,0.0,0.9981648881241527,0
23,15.219444444444445,0.6444444444444457,0.6194444444444436,0.625,1.031111111111113,0.018606826056978623,1.0718647707347038,30.555555555555557,0.9999999999672727,0.9911111111111097,0.0,0.9938525476804456,0
24,15.838888888888889,0.6194444444444436,0.6277777777777764,0.625,0.9911111111111097,0.014411663824088507,0.8301982666688397,27.77777777777778,0.909090909061157,1.0044444444444423,0.0,0.9945151129263656,0
25,16.466666666666665,0.6277777777777764,0.6055555555555578,0.625,1.0044444444444423,0.01851789465415763,1.0667417885880477,30.555555555555557,0.9999999999672727,0.9688888888888926,0.0,0.9869625301938336,0
26,17.072222222222223,0.6055555555555578,0.6388888888888893,0.625,0.9688888888888926,0.016375576865243335,0.9433314359237218,27.77777777777778,0.909090909061157,1.0222222222222228,0.0,0.9947321019678226,0
27,17.711111111111112,0.6388888888888893,0.6833333333333336,0.625,1.0222222222222228,0.016762031469079553,0.9655935387709143,30.555555555555557,0.9999999999672727,1.0933333333333337,0.0,0.9973527557658282,0
28,18.394444444444446,0.6833333333333336,0.6749999999999972,0.625,1.0933333333333337,0.017413804105889486,1.003139551496895,30.555555555555557,0.9999999999672727,1.0799999999999954,0.0,0.996094026666891,0
29,19.069444444444443,0.6749999999999972,0.6694444444444443,0.625,1.0799999999999954,0.017720719430474065,1.0208197148419722,33.333333333333336,1.0909090908733885,1.071111111111111,0.0,0.9935969870284853,0
30,19.738888888888887,0.6694444444444443,0.6527777777777786,0.625,1.071111111111111,0.019848727605267517,1.1434057479145538,33.333333333333336,1.0909090908733885,1.0444444444444456,0.0,0.9924115325249349,0
31,20.391666666666666,0.6527777777777786,0.6388888888888893,0.625,1.0444444444444456,0.020347758508622256,1.1721529207626198,33.333333333333336,1.0909090908733885,1.0222222222222228,0.0,0.9885794921992245,0
32,21.030555555555555,0.6388888888888893,0.6472222222222221,0.625,1.0222222222222228,0.015608120548776043,0.8991213494651241,30.555555555555557,0.9999999999672727,1.0355555555555553,0.0,0.999500950296409,0
33,21.677777777777777,0.6472222222222221,0.655555555555555,0.625,1.0355555555555553,0.01583697639251165,0.9123048185708054,30.555555555555557,0.9999999999672727,1.048888888888888,0.0,0.9978554700512623,0
34,22.333333333333332,0.655555555555555,0.6388888888888893,0.625,1.048888888888888,0.016311016001527658,0.9396123429858327,27.77777777777778,0.909090909061157,1.0222222222222228,0.0,0.9975995816986452,0
35,22.97222222222222,0.6388888888888893,0.6194444444444436,0.625,1.0222222222222228,0.017334280820739876,0.9985585333509772,19.444444444444443,0.6363636363428098,0.9911111111111097,0.0,0.9516686445379302,0
36,23.591666666666665,0.6194444444444436,0.6500000000000021,0.625,0.9911111111111097,0.015904747130888894,0.9162088195396327,30.555555555555557,0.9999999999672727,1.0400000000000034,0.0,0.9988818801309286,0
37,24.241666666666667,0.6500000000000021,0.6638888888888879,0.625,1.0400000000000034,0.01734061107515884,0.99892319396965,33.333333333333336,1.0909090908733885,1.0622222222222206,0.0,0.9972926357079297,0
38,24.905555555555555,0.6638888888888879,0.6611111111111114,0.625,1.0622222222222206,0.019675269964752582,1.1334135475514517,30.555555555555557,0.9999999999672727,1.0577777777777784,0.0,0.9888364450439755,0
39,25.566666666666666,0.6611111111111114,0.6305555555555564,0.625,1.0577777777777784,0.017232377716963062,0.9926883034346867,30.555555555555557,0.9999999999672727,1.0088888888888903,0.0,0.997038092187749,0
40,26.197222222222223,0.6305555555555564,0.655555555555555,0.625,1.0088888888888903,0.015688673923074856,0.9037617069237418,27.77777777777778,0.909090909061157,1.048888888888888,0.0,0.9991576996104028,0
41,26.852777777777778,0.655555555555555,0.6666666666666679,0.625,1.048888888888888,0.016952729091262563,0.9765788654706381,30.555555555555557,0.9999999999672727,1.0666666666666687,0.0,0.9971349037367707,0
42,27.519444444444446,0.6666666666666679,0.6416666666666657,0.625,1.0666666666666687,0.01711491275357406,0.9859216170763172,30.555555555555557,0.9999999999672727,1.026666666666665,0.0,0.9959876869307824,0
43,28.16111111111111,0.6416666666666657,0.655555555555555,0.625,1.026666666666665,0.01599982386887347,0.9216858098468441,30.555555555555557,0.9999999999672727,1.048888888888888,0.0,0.9981753588653595,0
44,28.816666666666666,0.655555555555555,0.6277777777777764,0.625,1.048888888888888,0.016115098214264136,0.9283263034708181,30.555555555555557,0.9999999999672727,1.0044444444444423,0.0,0.9972136684806066,0
45,29.444444444444443,0.6277777777777764,0.6777777777777807,0.625,1.0044444444444423,0.015788561625753764,0.9095158376499216,27.77777777777778,0.909090909061157,1.0844444444444492,0.0,0.9980391515135831,0
46,30.122222222222224,0.6777777777777807,0.7138888888888886,0.625,1.0844444444444492,0.016759449683905112,0.9654448124612462,30.555555555555557,0.9999999999672727,1.1422222222222218,0.0,0.9946187150829586,0
47,30.836111111111112,0.7138888888888886,0.6999999999999993,0.625,1.1422222222222218,0.01850740138684206,1.0661373134598866,36.111111111111114,1.1818181817795042,1.1199999999999988,0.0,0.9945561697376551,0
48,31.53611111111111,0.6999999999999993,0.6722222222222243,0.625,1.1199999999999988,0.01570601557594441,0.9047606901313165,27.77777777777778,0.909090909061157,1.075555555555559,0.0,0.9994525692512972,0
49,32.208333333333336,0.6722222222222243,0.6499999999999986,0.625,1.075555555555559,0.01545702430164942,0.8904172994681333,30.555555555555557,0.9999999999672727,1.0399999999999978,0.0,0.9987598143162635,0
50,32.858333333333334,0.6499999999999986,0.6611111111111114,0.625,1.0399999999999978,0.019473740747861686,1.1218042560367343,30.555555555555557,0.9999999999672727,1.0577777777777784,0.0,0.9875275431837632,0
51,33.519444444444446,0.6611111111111114,0.6527777777777786,0.625,1.0577777777777784,0.015365260261189968,0.8851311404054558,27.77777777777778,0.909090909061157,1.0444444444444456,0.0,0.9974704446532017,0
52,34.172222222222224,0.6527777777777786,0.6333333333333329,0.625,1.0444444444444456,0.019916359154070272,1.1473017307291355,30.555555555555557,0.9999999999672727,1.0133333333333325,0.0,0.9887232474419859,0
53,34.80555555555556,0.6333333333333329,0.6333333333333329,0.625,1.0133333333333325,0.017070664158379618,0.9833726326230747,30.555555555555557,0.9999999999672727,1.0133333333333325,0.0,0.9955606036281988,0
54,35.43888888888889,0.6333333333333329,0.6916666666666629,0.625,1.0133333333333325,0.017056731620048893,0.9825700348582608,30.555555555555557,0.9999999999672727,1.1066666666666607,0.0,0.9977051258305882,0
55,36.13055555555555,0.6916666666666629,0.6666666666666714,0.625,1.1066666666666607,0.01698792189101325,0.9786061817964192,30.555555555555557,0.9999999999672727,1.0666666666666742,0.0,0.9953926469715288,0
56,36.797222222222224,0.6666666666666714,0.6694444444444443,0.625,1.0666666666666742,0.01665075998989592,0.9591836342466687,30.555555555555557,0.9999999999672727,1.071111111111111,0.0,0.998331190655442,0
57,37.46666666666667,0.6694444444444443,0.6444444444444457,0.625,1.071111111111111,0.016978259245414424,0.9780495554605917,30.555555555555557,0.9999999999672727,1.031111111111113,0.0,0.994563675744635,0
58,38.111111111111114,0.6444444444444457,0.6472222222222186,0.625,1.031111111111113,0.01640632360484382,0.9451026325207016,30.555555555555557,0.9999999999672727,1.0355555555555498,0.0,0.9965649232352152,0
59,38.75833333333333,0.6472222222222186,0.6499999999999986,0.625,1.0355555555555498,0.017402665186751518,1.0024978829516265,33.333333333333336,1.0909090908733885,1.0399999999999978,0.0,0.9965912665657479,0
60,39.40833333333333,0.6499999999999986,0.62777777777778,0.625,1.0399999999999978,0.015349233652608991,0.8842079116355571,27.77777777777778,0.909090909061157,1.004444444444448,0.0,0.9980259397499276,0
61,40.03611111111111,0.62777777777778,0.62777777777778,0.625,1.004444444444448,0.015459613382369172,0.8905664460449644,27.77777777777778,0.909090909061157,1.004444444444448,0.0,0.9980586994726928,0
62,40.66388888888889,0.62777777777778,0.5833333333333286,0.625,1.004444444444448,0.016150476140029558,0.9303642841652956,25.0,0.8181818181550413,0.9333333333333258,0.0,0.995860186146263,0
63,41.24722222222222,0.5833333333333286,0.63055555555556,0.625,0.9333333333333258,0.015944675078656594,0.9185089087890768,27.77777777777778,0.909090909061157,1.008888888888896,0.0,0.9964836558238992,0
64,41.87777777777778,0.63055555555556,0.6666666666666643,0.625,1.008888888888896,0.01660466715373184,0.9565284104531946,30.555555555555557,0.9999999999672727,1.0666666666666629,0.0,0.997768288376589,0
65,42.544444444444444,0.6666666666666643,0.6583333333333314,0.625,1.0666666666666629,0.020229536097193582,1.1653426008545573,33.333333333333336,1.0909090908733885,1.0533333333333303,0.0,0.987176498089019,0
66,43.202777777777776,0.6583333333333314,0.6333333333333329,0.625,1.0533333333333303,0.018197192144660517,1.0482674007067656,30.555555555555557,0.9999999999672727,1.0133333333333325,0.0,0.9957128903547794,0
67,43.83611111111111,0.6333333333333329,0.6611111111111114,0.625,1.0133333333333325,0.016935336611288817,0.975576954317039,30.555555555555557,0.9999999999672727,1.0577777777777784,0.0,0.998572214702903,0
68,44.49722222222222,0.6611111111111114,0.6333333333333329,0.625,1.0577777777777784,0.017384834928595022,1.001470753149234,30.555555555555557,0.9999999999672727,1.0133333333333325,0.0,0.9935998793670435,0
69,45.13055555555555,0.6333333333333329,0.625,0.625,1.0133333333333325,0.017144865664418637,0.9876470843761642,27.77777777777778,0.909090909061157,1.0,0.0,0.9981069871659501,0
70,45.75555555555555,0.625,0.6083333333333343,0.625,1.0,0.01987237761257767,1.144768130170708,30.555555555555557,0.9999999999672727,0.9733333333333348,0.0,0.9909355207843272,0
71,46.36388888888889,0.6083333333333343,0.6111111111111143,0.625,0.9733333333333348,0.01561857545948658,0.8997236150228008,30.555555555555557,0.9999999999672727,0.9777777777777829,0.0,0.998875873073396,0
72,46.975,0.6111111111111143,0.6527777777777786,0.625,0.9777777777777829,0.014175781271787886,0.8166100170088609,27.77777777777778,0.909090909061157,1.0444444444444456,0.0,0.9812757840615955,0
73,47.62777777777778,0.6527777777777786,0.6527777777777786,0.625,1.0444444444444456,0.01865936688460587,1.0748914375066958,33.333333333333336,1.0909090908733885,1.0444444444444456,0.0,0.9934014896095771,0
74,48.28055555555556,0.6527777777777786,0.6611111111111114,0.625,1.0444444444444456,0.01655911081302796,0.9539040920157272,30.555555555555557,0.9999999999672727,1.0577777777777784,0.0,0.9978376021492956,0
75,48.94166666666667,0.6611111111111114,0.6333333333333329,0.625,1.0577777777777784,0.016854523511884895,0.9709216351347296,30.555555555555557,0.9999999999672727,1.0133333333333325,0.0,0.9974129264114564,0
76,49.575,0.6333333333333329,0.6361111111111057,0.625,1.0133333333333325,0.020546506691368965,1.1836020080320653,33.333333333333336,1.0909090908733885,1.0177777777777692,0.0,0.9883776551759096,0
77,50.21111111111111,0.6361111111111057,0.63055555555556,0.625,1.0177777777777692,0.01595342484611823,0.9190129478694405,30.555555555555557,0.9999999999672727,1.008888888888896,0.0,0.9996779162373671,0
78,50.84166666666667,0.63055555555556,0.6111111111111072,0.625,1.008888888888896,0.019916689237961728,1.1473207455408803,33.333333333333336,1.0909090908733885,0.9777777777777714,0.0,0.988214728578646,0
79,51.452777777777776,0.6111111111111072,0.62777777777778,0.625,0.9777777777777714,0.016350298540646707,0.9418752528264354,27.77777777777778,0.909090909061157,1.004444444444448,0.0,0.9936924871082065,0
80,52.080555555555556,0.62777777777778,0.62777777777778,0.625,1.004444444444448,0.016065901056533577,0.9254922521377114,30.555555555555557,0.9999999999672727,1.004444444444448,0.0,0.9985237774205862,0
81,52.708333333333336,0.62777777777778,0.48611111111110716,0.625,1.004444444444448,0.01595638137900835,0.9191832618949888,30.555555555555557,0.9999999999672727,0.7777777777777715,0.0,0.9955870247636778,0
82,53.19444444444444,0.48611111111110716,0.7083333333333357,0.625,0.7777777777777715,0.016399464824226703,0.9447075256233095,27.77777777777778,0.909090909061157,1.133333333333337,0.0,0.9902687974556539,0
83,53.90277777777778,0.7083333333333357,0.6555555555555515,0.625,1.133333333333337,0.01713292185832822,0.9869590495153233,33.333333333333336,1.0909090908733885,1.0488888888888823,0.0,0.994887638387729,0
84,54.55833333333333,0.6555555555555515,0.6472222222222257,0.625,1.0488888888888823,0.016599521076330725,0.9562319655325597,30.555555555555557,0.9999999999672727,1.0355555555555611,0.0,0.9970891876405433,0
85,55.205555555555556,0.6472222222222257,0.6499999999999986,0.625,1.0355555555555611,0.017147321359536186,0.9877885471423612,33.333333333333336,1.0909090908733885,1.0399999999999978,0.0,0.994882851196593,0
86,55.855555555555554,0.6499999999999986,0.63055555555556,0.625,1.0399999999999978,0.01571801960839828,0.9054521943918851,30.555555555555557,0.9999999999672727,1.008888888888896,0.0,0.9988474785355264,0
87,56.486111111111114,0.63055555555556,0.62222222222222,0.625,1.008888888888896,0.016264393412307503,0.9369266022392654,27.77777777777778,0.909090909061157,0.995555555555552,0.0,0.9983372079760051,0
88,57.108333333333334,0.62222222222222,0.6166666666666671,0.625,0.995555555555552,0.020308551340206066,1.169894352726519,30.555555555555557,0.9999999999672727,0.9866666666666675,0.0,0.9894741278673118,0
89,57.725,0.6166666666666671,0.6000000000000014,0.625,0.9866666666666675,0.01528161609809527,0.8803127349759512,27.77777777777778,0.909090909061157,0.9600000000000023,0.0,0.9989796900549629,0
90,58.325,0.6000000000000014,0.5972222222222214,0.625,0.9600000000000023,0.016085412949891492,0.9266162542128981,30.555555555555557,0.9999999999672727,0.9555555555555543,0.0,0.9984966987258401,0
91,58.922222222222224,0.5972222222222214,0.6138888888888872,0.625,0.9555555555555543,0.014968468614028467,0.8622735618688578,27.77777777777778,0.909090909061157,0.9822222222222194,0.0,0.9897502881566016,0
92,59.53611111111111,0.6138888888888872,0.6527777777777786,0.625,0.9822222222222194,0.015791434185263842,0.9096813143051697,27.77777777777778,0.909090909061157,1.0444444444444456,0.0,0.9978150777576003,0
93,60.18888888888889,0.6527777777777786,0.6777777777777771,0.625,1.0444444444444456,0.017553901322651375,1.0112099913809038,30.555555555555557,0.9999999999672727,1.0844444444444434,0.0,0.9949540015621925,0
94,60.86666666666667,0.6777777777777771,0.68611111111111,0.625,1.0844444444444434,0.016903890436727725,0.9737654660716395,27.77777777777778,0.909090909061157,1.097777777777776,0.0,0.9964385919742994,0
95,61.55277777777778,0.68611111111111,0.6388888888888928,0.625,1.097777777777776,0.016445242744783307,0.9473446083891642,27.77777777777778,0.909090909061157,1.0222222222222286,0.0,0.9985232015035059,0
96,62.19166666666667,0.6388888888888928,0.6361111111111057,0.625,1.0222222222222286,0.016260076055202143,0.9366778965777116,27.77777777777778,0.909090909061157,1.0177777777777692,0.0,0.9978276725222528,0
97,62.827777777777776,0.6361111111111057,0.6166666666666671,0.625,1.0177777777777692,0.016148959509025725,0.9302769171238542,27.77777777777778,0.909090909061157,0.9866666666666675,0.0,0.9981897466179468,0
98,63.44444444444444,0.6166666666666671,0.625,0.625,0.9866666666666675,0.016057913738418736,0.925032134712325,27.77777777777778,0.909090909061157,1.0,0.0,0.995997938599098,0
99,64.06944444444444,0.625,0.63055555555556,0.625,1.0,0.016997361847997057,0.9791499799325016,30.555555555555557,0.9999999999672727,1.008888888888896,0.0,0.9923206280838511,0
100,64.7,0.63055555555556,0.5861111111111086,0.625,1.008888888888896,0.01724433553955559,0.9933771457301098,30.555555555555557,0.9999999999672727,0.9377777777777737,0.0,0.9975694818746448,0
101,65.28611111111111,0.5861111111111086,0.63333333333334,0.625,0.9377777777777737,0.016522789283028815,0.9518117540583536,27.77777777777778,0.909090909061157,1.0133333333333439,0.0,0.9987916669335848,0
102,65.91944444444445,0.63333333333334,0.6333333333333258,0.625,1.0133333333333439,0.019634324386676158,1.131054836693238,30.555555555555557,0.9999999999672727,1.0133333333333212,0.0,0.9882311968443267,0
103,66.55277777777778,0.6333333333333258,0.5861111111111086,0.625,1.0133333333333212,0.017878229567584548,1.0298932433677574,30.555555555555557,0.9999999999672727,0.9377777777777737,0.0,0.991995321264785,0
104,67.13888888888889,0.5861111111111086,0.6888888888888971,0.625,0.9377777777777737,0.01724727317334397,0.9935463710540551,30.555555555555557,0.9999999999672727,1.1022222222222353,0.0,0.9968161065749656,0
105,67.82777777777778,0.6888888888888971,0.62222222222222,0.625,1.1022222222222353,0.017028682321451754,0.9809542270403113,30.555555555555557,0.9999999999672727,0.995555555555552,0.0,0.9982313633578999,0
106,68.45,0.62222222222222,0.6388888888888857,0.625,0.995555555555552,0.01635096999606306,0.9419139326853055,27.77777777777778,0.909090909061157,1.0222222222222173,0.0,0.9996834845177556,0
107,69.08888888888889,0.6388888888888857,0.62777777777778,0.625,1.0222222222222173,0.015556353772456021,0.8961392726906102,30.555555555555557,0.9999999999672727,1.004444444444448,0.0,0.9983298637574032,0
108,69.71666666666667,0.62777777777778,0.5999999999999943,0.625,1.004444444444448,0.016969166314347944,0.9775257480985498,30.555555555555557,0.9999999999672727,0.9599999999999909,0.0,0.9965463536499888,0
109,70.31666666666666,0.5999999999999943,0.50833333333334,0.625,0.9599999999999909,0.019715905038862693,1.1357543715190346,30.555555555555557,0.9999999999672727,0.8133333333333439,0.0,0.9882233759552461,0
110,70.825,0.50833333333334,0.6666666666666572,0.625,0.8133333333333439,0.015520649725122035,0.8940825054379496,27.77777777777778,0.909090909061157,1.0666666666666516,0.0,0.9889787259410998,0
111,71.49166666666666,0.6666666666666572,0.6444444444444457,0.625,1.0666666666666516,0.016440582014620973,0.9470761223802335,30.555555555555557,0.9999999999672727,1.031111111111113,0.0,0.9989831519675664,0
112,72.1361111111111,0.6444444444444457,0.6638888888888914,0.625,1.031111111111113,0.0166289387711811,0.9579266011813148,27.77777777777778,0.909090909061157,1.0622222222222262,0.0,0.9993010563373159,0
113,72.8,0.6638888888888914,0.6555555555555515,0.625,1.0622222222222262,0.017994163570375935,1.0365717372141454,30.555555555555557,0.9999999999672727,1.0488888888888823,0.0,0.9901843243043627,0
114,73.45555555555555,0.6555555555555515,0.63333333333334,0.625,1.0488888888888823,0.017475812579974066,1.0067116114847052,30.555555555555557,0.9999999999672727,1.0133333333333439,0.0,0.9944129800092396,0
115,74.08888888888889,0.63333333333334,0.6111111111111143,0.625,1.0133333333333439,0.016113493461370008,0.9282338600800064,30.555555555555557,0.9999999999672727,0.9777777777777829,0.0,0.9960032197135082,0
116,74.7,0.6111111111111143,0.625,0.625,0.9777777777777829,0.015634684332013586,0.9006515826893486,27.77777777777778,0.909090909061157,1.0,0.0,0.9984696439076259,0
117,75.325,0.625,0.61944444444444,0.625,1.0,0.015606931109411118,0.8990528306243349,27.77777777777778,0.909090909061157,0.9911111111111041,0.0,0.998877584771972,0
118,75.94444444444444,0.61944444444444,0.5944444444444485,0.625,0.9911111111111041,0.01679508586423671,0.9674976701675537,30.555555555555557,0.9999999999672727,0.9511111111111177,0.0,0.9948466898454603,0
119,76.53888888888889,0.5944444444444485,0.5805555555555486,0.625,0.9511111111111177,0.019556858280161737,1.126592324374129,30.555555555555557,0.9999999999672727,0.9288888888888778,0.0,0.9876671350164832,0
120,77.11944444444444,0.5805555555555486,0.6194444444444542,0.625,0.9288888888888778,0.016243929496947297,0.9357477579872294,30.555555555555557,0.9999999999672727,0.9911111111111268,0.0,0.9983862812748252,0
121,77.7388888888889,0.6194444444444542,0.6444444444444457,0.625,0.9911111111111268,0.017175335316365073,0.9894023190625059,33.333333333333336,1.0909090908733885,1.031111111111113,0.0,0.9979947786784641,0
122,78.38333333333334,0.6444444444444457,0.6527777777777715,0.625,1.031111111111113,0.02006819101495329,1.156048156490157,33.333333333333336,1.0909090908733885,1.0444444444444343,0.0,0.9876997839671074,0
123,79.03611111111111,0.6527777777777715,0.625,0.625,1.0444444444444343,0.016825032627912618,0.9692227833536192,30.555555555555557,0.9999999999672727,1.0,0.0,0.9961667423422252,0
124,79.66111111111111,0.625,0.625,0.625,1.0,0.01985037163400364,1.1435004538294118,30.555555555555557,0.9999999999672727,1.0,0.0,0.9885787168837655,0
125,80.28611111111111,0.625,0.6361111111111057,0.625,1.0,0.01607927587296741,0.926262721776465,27.77777777777778,0.909090909061157,1.0177777777777692,0.0,0.9985067011971952,0
126,80.92222222222222,0.6361111111111057,0.62777777777778,0.625,1.0177777777777692,0.020070501362068383,1.1561812463397236,30.555555555555557,0.9999999999672727,1.004444444444448,0.0,0.9877900116566305,0
127,81.55,0.62777777777778,0.6027777777777743,0.625,1.004444444444448,0.016019177283389682,0.9228006825903109,30.555555555555557,0.9999999999672727,0.9644444444444389,0.0,0.9992190731689089,0
128,82.15277777777777,0.6027777777777743,0.5833333333333428,0.625,0.9644444444444389,0.016591779129523292,0.955785982966034,30.555555555555557,0.9999999999672727,0.9333333333333484,0.0,0.994684582673701,0
129,82.73611111111111,0.5833333333333428,0.5972222222222143,0.625,0.9333333333333484,0.01541558194880199,0.8880299714038256,27.77777777777778,0.909090909061157,0.955555555555543,0.0,0.9944908234122201,0
130,83.33333333333333,0.5972222222222143,0.62222222222222,0.625,0.955555555555543,0.01602785431105863,0.923300531422377,30.555555555555557,0.9999999999672727,0.995555555555552,0.0,0.998446550101205,0
131,83.95555555555555,0.62222222222222,0.6500000000000057,0.625,0.995555555555552,0.01728217871997995,0.9955571398776992,30.555555555555557,0.9999999999672727,1.0400000000000091,0.0,0.9967581160358052,0
132,84.60555555555555,0.6500000000000057,0.6500000000000057,0.625,1.0400000000000091,0.016022185354392926,0.9229739655202621,27.77777777777778,0.909090909061157,1.0400000000000091,0.0,0.9983842739581192,0
133,85.25555555555556,0.6500000000000057,0.6444444444444457,0.625,1.0400000000000091,0.016701679850353333,0.9621169235883272,30.555555555555557,0.9999999999672727,1.031111111111113,0.0,0.9978394048128985,0
134,85.9,0.6444444444444457,0.6416666666666657,0.625,1.031111111111113,0.016431016641441303,0.9465250995191167,30.555555555555557,0.9999999999672727,1.026666666666665,0.0,0.9981657394593837,0
135,86.54166666666667,0.6416666666666657,0.6361111111111057,0.625,1.026666666666665,0.018701247520383116,1.0773040132962546,30.555555555555557,0.9999999999672727,1.0177777777777692,0.0,0.9894705259938186,0
136,87.17777777777778,0.6361111111111057,0.63055555555556,0.625,1.0177777777777692,0.016353334651400132,0.9420501510141585,30.555555555555557,0.9999999999672727,1.008888888888896,0.0,0.999073220647954,0
137,87.80833333333334,0.63055555555556,0.61944444444444,0.625,1.008888888888896,0.018787578118426584,1.0822771734900398,44.44444444444444,1.454545454497851,0.9911111111111041,0.0,0.9883435758900914,0
138,88.42777777777778,0.61944444444444,0.62222222222222,0.625,0.9911111111111041,0.018692122410181464,1.0767783522230403,30.555555555555557,0.9999999999672727,0.995555555555552,0.0,0.9894230375521567,0
139,89.05,0.62222222222222,0.6749999999999972,0.625,0.995555555555552,0.020204088337533652,1.1638766572814796,33.333333333333336,1.0909090908733885,1.0799999999999954,0.0,0.988893957032281,0
140,89.725,0.6749999999999972,0.6805555555555571,0.625,1.0799999999999954,0.016514419781179644,0.9513296205578171,30.555555555555557,0.9999999999672727,1.0888888888888915,0.0,0.9992613421544718,0
141,90.40555555555555,0.6805555555555571,0.6749999999999972,0.625,1.0888888888888915,0.016585915415380147,0.9554481978652086,30.555555555555557,0.9999999999672727,1.0799999999999954,0.0,0.9992124686438018,0
142,91.08055555555555,0.6749999999999972,0.6638888888888914,0.625,1.0799999999999954,0.016870633568658255,0.9718496710209695,27.77777777777778,0.909090909061157,1.0622222222222262,0.0,0.998199708606502,0
143,91.74444444444444,0.6638888888888914,0.6500000000000057,0.625,1.0622222222222262,0.019957842739625493,1.149691434044695,33.333333333333336,1.0909090908733885,1.0400000000000091,0.0,0.9895170236113402,0
144,92.39444444444445,0.6500000000000057,0.6444444444444457,0.625,1.0400000000000091,0.017026367427123854,0.9808208752440162,30.555555555555557,0.9999999999672727,1.031111111111113,0.0,0.9965898037348457,0
145,93.03888888888889,0.6444444444444457,0.63055555555556,0.625,1.031111111111113,0.015976713076478043,0.9203544896035869,27.77777777777778,0.909090909061157,1.008888888888896,0.0,0.9979723586582276,0
146,93.66944444444445,0.63055555555556,0.5555555555555429,0.625,1.008888888888896,0.016442214458662736,0.9471701609472198,30.555555555555557,0.9999999999672727,0.8888888888888686,0.0,0.9971705635653547,0
147,94.225,0.5555555555555429,0.6944444444444571,0.625,0.8888888888888686,0.01559593955875451,0.8984196513873987,30.555555555555557,0.9999999999672727,1.1111111111111314,0.0,0.9973560058515751,0
148,94.91944444444445,0.6944444444444571,0.6083333333333201,0.625,1.1111111111111314,0.014469808985354044,0.8335477766690066,27.77777777777778,0.909090909061157,0.9733333333333121,0.0,0.9932221096287361,0
149,95.52777777777777,0.6083333333333201,0.6444444444444457,0.625,0.9733333333333121,0.01562474300522511,0.9000789026456755,27.77777777777778,0.909090909061157,1.031111111111113,0.0,0.9978794897068359,0
150,96.17222222222222,0.6444444444444457,0.6527777777777857,0.625,1.031111111111113,0.017042811612033647,0.9817681589147658,33.333333333333336,1.0909090908733885,1.0444444444444572,0.0,0.9984633307923596,0
151,96.825,0.6527777777777857,0.6694444444444372,0.625,1.0444444444444572,0.016446227553258266,0.9474013392634679,30.555555555555557,0.9999999999672727,1.0711111111110996,0.0,0.9992830923599614,0
152,97.49444444444444,0.6694444444444372,0.6527777777777857,0.625,1.0711111111110996,0.016555722987627208,0.9537089329549963,33.333333333333336,1.0909090908733885,1.0444444444444572,0.0,0.999337065627413,0
153,98.14722222222223,0.6527777777777857,0.62777777777778,0.625,1.0444444444444572,0.015678323318436035,0.9031654500213459,27.77777777777778,0.909090909061157,1.004444444444448,0.0,0.9988055236557487,0
154,98.775,0.62777777777778,0.62222222222222,0.625,1.004444444444448,0.016517207098193785,0.9514901867340784,30.555555555555557,0.9999999999672727,0.995555555555552,0.0,0.9991188393887322,0
155,99.39722222222223,0.62222222222222,0.6055555555555543,0.625,0.995555555555552,0.01818105579781015,1.0473378503544217,41.666666666666664,1.3636363635917355,0.9688888888888869,0.0,0.9875104205690284,0
156,100.00277777777778,0.6055555555555543,0.4722222222222143,0.625,0.9688888888888869,0.018596082544858606,1.071245880005025,30.555555555555557,0.9999999999672727,0.7555555555555429,0.0,0.9907036379358838,0
157,100.475,0.4722222222222143,0.6583333333333456,0.625,0.7555555555555429,0.015470175051553415,0.8911748615309844,27.77777777777778,0.909090909061157,1.053333333333353,0.0,0.9967525461620357,0
158,101.13333333333334,0.6583333333333456,0.6499999999999915,0.625,1.053333333333353,0.02011715524392149,1.1588687897296188,36.111111111111114,1.1818181817795042,1.0399999999999863,0.0,0.9908304844013668,0
159,101.78333333333333,0.6499999999999915,0.6555555555555515,0.625,1.0399999999999863,0.015811014727013274,0.9108092709394096,30.555555555555557,0.9999999999672727,1.0488888888888823,0.0,0.9984275586448206,0
160,102.43888888888888,0.6555555555555515,0.6638888888888914,0.625,1.0488888888888823,0.016955613206498504,0.9767450078049985,33.333333333333336,1.0909090908733885,1.0622222222222262,0.0,0.9984151134056158,0
161,103.10277777777777,0.6638888888888914,0.625,0.625,1.0622222222222262,0.016090240959554178,0.9268943765242666,30.555555555555557,0.9999999999672727,1.0,0.0,0.9996295265110209,0
162,103.72777777777777,0.625,0.6444444444444457,0.625,1.0,0.016633811825660844,0.9582073183442911,30.555555555555557,0.9999999999672727,1.031111111111113,0.0,0.9993702188797626,0
163,104.37222222222222,0.6444444444444457,0.6166666666666742,0.625,1.031111111111113,0.016480218128079625,0.9493594002232721,30.555555555555557,0.9999999999672727,0.9866666666666788,0.0,0.9981512185595021,0
164,104.9888888888889,0.6166666666666742,0.61666666666666,0.625,0.9866666666666788,0.016682894498582426,0.9610347746658062,30.555555555555557,0.9999999999672727,0.986666666666656,0.0,0.9957285153086666,0
165,105.60555555555555,0.61666666666666,0.62777777777778,0.625,0.986666666666656,0.01698407948104325,0.9783848359382405,30.555555555555557,0.9999999999672727,1.004444444444448,0.0,0.9956925652018365,0
166,106.23333333333333,0.62777777777778,0.6055555555555543,0.625,1.004444444444448,0.016055728346467048,0.9249062430295583,27.77777777777778,0.909090909061157,0.9688888888888869,0.0,0.9983286737659339,0
167,106.83888888888889,0.6055555555555543,0.5916666666666686,0.625,0.9688888888888869,0.014864504264494323,0.8562845918351317,30.555555555555557,0.9999999999672727,0.9466666666666697,0.0,0.9954294338017715,0
168,107.43055555555556,0.5916666666666686,0.61666666666666,0.625,0.9466666666666697,0.018595678954464154,1.0712226307778707,30.555555555555557,0.9999999999672727,0.986666666666656,0.0,0.9905126747897408,0
169,108.04722222222222,0.61666666666666,0.6500000000000057,0.625,0.986666666666656,0.020512576198646073,1.1816474081614603,30.555555555555557,0.9999999999672727,1.0400000000000091,0.0,0.9889157238805357,0
170,108.69722222222222,0.6500000000000057,0.6500000000000057,0.625,1.0400000000000091,0.01704607627460658,0.9819562230579758,30.555555555555557,0.9999999999672727,1.0400000000000091,0.0,0.9947438533390311,0
171,109.34722222222223,0.6500000000000057,0.61666666666666,0.625,1.0400000000000091,0.016150394343257074,0.9303595721806446,27.77777777777778,0.909090909061157,0.986666666666656,0.0,0.9985454877127491,0
172,109.96388888888889,0.61666666666666,0.625,0.625,0.986666666666656,0.01643337790380173,0.9466611223921663,27.77777777777778,0.909090909061157,1.0,0.0,0.9980314606944984,0
173,110.58888888888889,0.625,0.63333333333334,0.625,1.0,0.017106531269779207,0.9854387933438505,30.555555555555557,0.9999999999672727,1.0133333333333439,0.0,0.9913681155818643,0
174,111.22222222222223,0.63333333333334,0.6111111111111001,0.625,1.0133333333333439,0.017454219245448956,1.0054677059153578,30.555555555555557,0.9999999999672727,0.9777777777777601,0.0,0.9929877297318321,0
175,111.83333333333333,0.6111111111111001,0.6055555555555543,0.625,0.9777777777777601,0.01696490706140245,0.9772803895850697,30.555555555555557,0.9999999999672727,0.9688888888888869,0.0,0.9970687702116906,0
176,112.43888888888888,0.6055555555555543,0.5750000000000028,0.625,0.9688888888888869,0.015635754839339364,0.9007132503314171,30.555555555555557,0.9999999999672727,0.9200000000000046,0.0,0.9987783525138318,0
177,113.01388888888889,0.5750000000000028,0.6194444444444542,0.625,0.9200000000000046,0.01628981251882427,0.9383908952194566,27.77777777777778,0.909090909061157,0.9911111111111268,0.0,0.9951950387322326,0
178,113.63333333333334,0.6194444444444542,0.6527777777777715,0.625,0.9911111111111268,0.017170535128688703,0.9891257994644045,33.333333333333336,1.0909090908733885,1.0444444444444343,0.0,0.9979082685004663,0
179,114.28611111111111,0.6527777777777715,0.6555555555555515,0.625,1.0444444444444343,0.01660708183646316,0.956667510659983,33.333333333333336,1.0909090908733885,1.0488888888888823,0.0,0.9989246977205684,0
180,114.94166666666666,0.6555555555555515,0.6472222222222257,0.625,1.0488888888888823,0.017850396598003786,1.0282898973985313,30.555555555555557,0.9999999999672727,1.0355555555555611,0.0,0.9961481915991635,0
181,115.58888888888889,0.6472222222222257,0.6138888888888943,0.625,1.0355555555555611,0.017165825421245184,0.9888544920703484,30.555555555555557,0.9999999999672727,0.9822222222222308,0.0,0.9967548331787941,0
182,116.20277777777778,0.6138888888888943,0.625,0.625,0.9822222222222308,0.02010073194212725,1.1579227090515665,30.555555555555557,0.9999999999672727,1.0,0.0,0.990321030896613,0
183,116.82777777777778,0.625,0.6083333333333343,0.625,1.0,0.015688491128292167,0.9037511768479923,30.555555555555557,0.9999999999672727,0.9733333333333348,0.0,0.9976435275795097,0
184,117.43611111111112,0.6083333333333343,0.48611111111110006,0.625,0.9733333333333348,0.01598037649984141,0.9205655247597954,30.555555555555557,0.9999999999672727,0.7777777777777601,0.0,0.9984931205104672,0
185,117.92222222222222,0.48611111111110006,0.7166666666666686,0.625,0.7777777777777601,0.014367336548062475,0.8276447497278288,27.77777777777778,0.909090909061157,1.1466666666666696,0.0,0.9928483377705091,0
186,118.63888888888889,0.7166666666666686,0.6166666666666742,0.625,1.1466666666666696,0.020553840178434625,1.1840244608678283,33.333333333333336,1.0909090908733885,0.9866666666666788,0.0,0.9868601497205172,0
187,119.25555555555556,0.6166666666666742,0.6694444444444372,0.625,0.9866666666666788,0.016994495470620697,0.9789848594052315,30.555555555555557,0.9999999999672727,1.0711111111110996,0.0,0.9974948522882336,0
188,119.925,0.6694444444444372,0.6722222222222314,0.625,1.0711111111110996,0.016820996428305875,0.9689902740501586,30.555555555555557,0.9999999999672727,1.0755555555555703,0.0,0.9965296097064855,0
189,120.59722222222223,0.6722222222222314,0.6333333333333258,0.625,1.0755555555555703,0.019848967092626815,1.143419543822716,30.555555555555557,0.9999999999672727,1.0133333333333212,0.0,0.9921142801803158,0
190,121.23055555555555,0.6333333333333258,0.6833333333333371,0.625,1.0133333333333212,0.018499543503626002,1.065684652260924,30.555555555555557,0.9999999999672727,1.0933333333333395,0.0,0.9896621045503294,0
191,121.91388888888889,0.6833333333333371,0.6499999999999915,0.625,1.0933333333333395,0.015519620756956521,0.8940232307006332,27.77777777777778,0.909090909061157,1.0399999999999863,0.0,0.9890447754513997,0
192,122.56388888888888,0.6499999999999915,0.6527777777777857,0.625,1.0399999999999863,0.016061534273576466,0.9252406992506774,27.77777777777778,0.909090909061157,1.0444444444444572,0.0,0.9945941279964801,0
193,123.21666666666667,0.6527777777777857,0.625,0.625,1.0444444444444572,0.019396245947090295,1.1173400907563367,30.555555555555557,0.9999999999672727,1.0,0.0,0.9905079511666033,0
194,123.84166666666667,0.625,0.61388888888888,0.625,1.0,0.015902256952402168,0.9160653703245656,30.555555555555557,0.9999999999672727,0.9822222222222081,0.0,0.9966468531033528,0
195,124.45555555555555,0.61388888888888,0.5833333333333428,0.625,0.9822222222222081,0.01595668419350219,0.9192007058258891,30.555555555555557,0.9999999999672727,0.9333333333333484,0.0,0.9971935940749221,0
196,125.03888888888889,0.5833333333333428,0.625,0.625,0.9333333333333484,0.01929694924415052,1.1116200051595062,30.555555555555557,0.9999999999672727,1.0,0.0,0.9903031816469914,0
197,125.66388888888889,0.625,0.6361111111111057,0.625,1.0,0.016921107749482654,0.9747572865429126,30.555555555555557,0.9999999999672727,1.0177777777777692,0.0,0.9980916644583253,0
198,126.3,0.6361111111111057,0.6527777777777857,0.625,1.0177777777777692,0.019247825482904504,1.1087901819040866,30.555555555555557,0.9999999999672727,1.0444444444444572,0.0,0.9886169884841145,0
199,126.95277777777778,0.6527777777777857,0.6499999999999915,0.625,1.0444444444444572,0.0166332015486992,0.9581721627313148,30.555555555555557,0.9999999999672727,1.0399999999999863,0.0,0.9975808615767695,0
200,127.60277777777777,0.6499999999999915,0.6361111111111057,0.625,1.0399999999999863,0.017641938765675876,1.0162814760819785,30.555555555555557,0.9999999999672727,1.0177777777777692,0.0,0.9961843376999062,0
201,128.23888888888888,0.6361111111111057,0.61944444444444,0.625,1.0177777777777692,0.01823582383593144,1.0504928178080166,30.555555555555557,0.9999999999672727,0.9911111111111041,0.0,0.9877087714301149,0
202,128.85833333333332,0.61944444444444,0.6083333333333485,0.625,0.9911111111111041,0.015725199743743305,0.9058658132488504,27.77777777777778,0.909090909061157,0.9733333333333576,0.0,0.9943105605364999,0
203,129.46666666666667,0.6083333333333485,0.6111111111111143,0.625,0.9733333333333576,0.01975787204883871,1.1381719229804508,41.666666666666664,1.3636363635917355,0.9777777777777829,0.0,0.9845923902712406,0
204,130.07777777777778,0.6111111111111143,0.61944444444444,0.625,0.9777777777777829,0.015636587344989433,0.9007612076496087,27.77777777777778,0.909090909061157,0.9911111111111041,0.0,0.9988773778743649,0
205,130.69722222222222,0.61944444444444,0.6083333333333201,0.625,0.9911111111111041,0.016988366618032054,0.978631800739843,30.555555555555557,0.9999999999672727,0.9733333333333121,0.0,0.9973707702753447,0
206,131.30555555555554,0.6083333333333201,0.6388888888889142,0.625,0.9733333333333121,0.01652664954237595,0.9520341281477025,30.555555555555557,0.9999999999672727,1.0222222222222626,0.0,0.9986631637231972,0
207,131.94444444444446,0.6388888888889142,0.663888888888863,0.625,1.0222222222222626,0.017230372265632763,0.9925727774108615,30.555555555555557,0.9999999999672727,1.0622222222221809,0.0,0.9962607827489877,0
208,132.60833333333332,0.663888888888863,0.6388888888889142,0.625,1.0622222222221809,0.016331322151687172,0.940782099016151,30.555555555555557,0.9999999999672727,1.0222222222222626,0.0,0.998612022631741,0
209,133.24722222222223,0.6388888888889142,0.6388888888888857,0.625,1.0222222222222626,0.01599801826853329,0.9215817964386067,30.555555555555557,0.9999999999672727,1.0222222222222173,0.0,0.9986104209515194,0
210,133.88611111111112,0.6388888888888857,0.6388888888888857,0.625,1.0222222222222173,0.015440531792511975,0.8894672320320582,27.77777777777778,0.909090909061157,1.0222222222222173,0.0,0.9987290595394624,0
211,134.525,0.6388888888888857,0.6333333333333258,0.625,1.0222222222222173,0.01753156229044976,1.0099231291532516,30.555555555555557,0.9999999999672727,1.0133333333333212,0.0,0.9964137400555915,0
212,135.15833333333333,0.6333333333333258,0.6277777777777658,0.625,1.0133333333333212,0.016858936605374214,0.9711758557861547,30.555555555555557,0.9999999999672727,1.0044444444444252,0.0,0.9972331561352652,0
213,135.7861111111111,0.6277777777777658,0.6333333333333542,0.625,1.0044444444444252,0.019146761715228416,1.1029683027809094,30.555555555555557,0.9999999999672727,1.0133333333333667,0.0,0.9932557981822754,0
214,136.41944444444445,0.6333333333333542,0.5944444444444343,0.625,1.0133333333333667,0.015975983567094315,0.9203124654880315,27.77777777777778,0.909090909061157,0.9511111111110949,0.0,0.9991920855369096,0
215,137.01388888888889,0.5944444444444343,0.6333333333333258,0.625,0.9511111111110949,0.016019730902424964,0.9228325743669369,27.77777777777778,0.909090909061157,1.0133333333333212,0.0,0.9971242687174284,0
216,137.6472222222222,0.6333333333333258,0.63611111111112,0.625,1.0133333333333212,0.01564929335934015,0.901493150277399,30.555555555555557,0.9999999999672727,1.0177777777777919,0.0,0.9990622656808354,0
217,138.28333333333333,0.63611111111112,0.6555555555555657,0.625,1.0177777777777919,0.016472638108316635,0.9489227456256238,30.555555555555557,0.9999999999672727,1.048888888888905,0.0,0.9975942955062596,0
218,138.9388888888889,0.6555555555555657,0.669444444444423,0.625,1.048888888888905,0.01662007746291822,0.957416136681861,30.555555555555557,0.9999999999672727,1.0711111111110767,0.0,0.9970796629159744,0
219,139.60833333333332,0.669444444444423,0.63611111111112,0.625,1.0711111111110767,0.02023679523596077,1.1657607707824427,33.333333333333336,1.0909090908733885,1.0177777777777919,0.0,0.9867179494626104,0
220,140.24444444444444,0.63611111111112,0.6333333333333258,0.625,1.0177777777777919,0.016254710650065455,0.9363688170641437,27.77777777777778,0.909090909061157,1.0133333333333212,0.0,0.9963818891310634,0
221,140.87777777777777,0.6333333333333258,0.6138888888889085,0.625,1.0133333333333212,0.016739411017272648,0.9642904650862527,33.333333333333336,1.0909090908733885,0.9822222222222535,0.0,0.9983243410893798,0
222,141.49166666666667,0.6138888888889085,0.625,0.625,0.9822222222222535,0.015881991337782023,0.914897949384417,30.555555555555557,0.9999999999672727,1.0,0.0,0.999657617535389,0
223,142.11666666666667,0.625,0.625,0.625,1.0,0.015820788389007592,0.911372292485411,27.77777777777778,0.909090909061157,1.0,0.0,0.9977483323722964,0
224,142.74166666666667,0.625,0.5861111111111086,0.625,1.0,0.016703427957584987,0.9622176250487127,27.77777777777778,0.909090909061157,0.9377777777777737,0.0,0.9961346283632073,0
225,143.32777777777778,0.5861111111111086,0.6611111111110972,0.625,0.9377777777777737,0.015760106932675565,0.9078766766786096,27.77777777777778,0.909090909061157,1.0577777777777555,0.0,0.998844974934513,0
226,143.98888888888888,0.6611111111110972,0.6805555555555713,0.625,1.0577777777777555,0.01700419222680503,0.9795434507153541,30.555555555555557,0.9999999999672727,1.088888888888914,0.0,0.9949395707896975,0
227,144.66944444444445,0.6805555555555713,0.6611111111110972,0.625,1.088888888888914,0.016897497018708203,0.9733971668507664,30.555555555555557,0.9999999999672727,1.0577777777777555,0.0,0.9935997217338163,0
228,145.33055555555555,0.6611111111110972,0.6527777777777715,0.625,1.0577777777777555,0.016947418631146117,0.9762729511197553,30.555555555555557,0.9999999999672727,1.0444444444444343,0.0,0.9931899278748229,0
229,145.98333333333332,0.6527777777777715,0.6277777777777942,0.625,1.0444444444444343,0.016562517422042018,0.9541003331252349,30.555555555555557,0.9999999999672727,1.0044444444444707,0.0,0.9982876630618731,0
230,146.61111111111111,0.6277777777777942,0.6333333333333258,0.625,1.0044444444444707,0.019875197023332125,1.1449305451388856,30.555555555555557,0.9999999999672727,1.0133333333333212,0.0,0.98831843175005,0
231,147.24444444444444,0.6333333333333258,0.625,0.625,1.0133333333333212,0.016670212331821064,0.9603042058021828,30.555555555555557,0.9999999999672727,1.0,0.0,0.9954912513707046,0
232,147.86944444444444,0.625,0.49444444444444,0.625,1.0,0.017294439998065878,0.9962634630294417,27.77777777777778,0.909090909061157,0.791111111111104,0.0,0.9836884856114112,0
233,148.36388888888888,0.49444444444444,0.6666666666666856,0.625,0.791111111111104,0.01672948736986237,0.9637188034807915,27.77777777777778,0.909090909061157,1.066666666666697,0.0,0.9655495706020858,0
234,149.03055555555557,0.6666666666666856,0.6111111111111143,0.625,1.066666666666697,0.018410065093182038,1.0605301591946412,27.77777777777778,0.909090909061157,0.9777777777777829,0.0,0.9885473613514439,0
235,149.64166666666668,0.6111111111111143,0.6222222222222058,0.625,0.9777777777777829,0.017635818956792063,1.0159289383882257,33.333333333333336,1.0909090908733885,0.9955555555555293,0.0,0.9909100304061993,0
236,150.26388888888889,0.6222222222222058,0.6277777777777942,0.625,0.9955555555555293,0.02097911543454394,1.2085228661032439,25.0,0.8181818181550413,1.0044444444444707,0.0,0.9608411083445842,0
237,150.89166666666668,0.6277777777777942,0.6305555555555316,0.625,1.0044444444444707,0.01979092471342014,1.1400759546855495,30.555555555555557,0.9999999999672727,1.0088888888888505,0.0,0.9815218220394396,0
238,151.5222222222222,0.6305555555555316,0.6277777777777942,0.625,1.0088888888888505,0.016559023435189626,0.9538990585282122,30.555555555555557,0.9999999999672727,1.0044444444444707,0.0,0.9965874709360393,0
239,152.15,0.6277777777777942,0.63055555555556,0.625,1.0044444444444707,0.017601168992142664,1.0139328926197984,30.555555555555557,0.9999999999672727,1.008888888888896,0.0,0.9939473754772635,0
240,152.78055555555557,0.63055555555556,0.6333333333333258,0.625,1.008888888888896,0.017395179054653362,1.0020666368465407,30.555555555555557,0.9999999999672727,1.0133333333333212,0.0,0.9945150665545381,0
241,153.4138888888889,0.6333333333333258,0.6083333333333201,0.625,1.0133333333333212,0.01572342064681455,0.905763326596059,30.555555555555557,0.9999999999672727,0.9733333333333121,0.0,0.9990809088400241,0
242,154.0222222222222,0.6083333333333201,0.6083333333333485,0.625,0.9733333333333121,0.016081270799158866,0.9263776414891708,30.555555555555557,0.9999999999672727,0.9733333333333576,0.0,0.9988721752331473,0
243,154.63055555555556,0.6083333333333485,0.5833333333333428,0.625,0.9733333333333576,0.026777036073172566,1.5425178664881083,30.555555555555557,0.9999999999672727,0.9333333333333484,0.0,0.9628579680653506,0
244,155.2138888888889,0.5833333333333428,0.6388888888888857,0.625,0.9333333333333484,0.018235770397197742,1.0504897394164698,27.77777777777778,0.909090909061157,1.0222222222222173,0.0,0.9770485752604249,0
245,155.8527777777778,0.6388888888888857,0.6666666666666572,0.625,1.0222222222222173,0.01877983514566486,1.081831131822394,30.555555555555557,0.9999999999672727,1.0666666666666516,0.0,0.986847537625394,0
246,156.51944444444445,0.6666666666666572,0.6416666666666515,0.625,1.0666666666666516,0.022800204003788658,1.3134284892215393,27.77777777777778,0.909090909061157,1.0266666666666424,0.0,0.9122039703423003,0
247,157.1611111111111,0.6416666666666515,0.46666666666666856,0.625,1.0266666666666424,0.016330779732576198,0.9407508524223339,27.77777777777778,0.909090909061157,0.7466666666666697,0.0,0.9977519518261371,0
248,157.62777777777777,0.46666666666666856,0.6666666666666856,0.625,0.7466666666666697,0.019476985615140854,1.121991179852306,30.555555555555557,0.9999999999672727,1.066666666666697,0.0,0.9884685932370261,0
249,158.29444444444445,0.6666666666666856,0.6361111111110915,0.625,1.066666666666697,0.018233400569815414,1.0503532231467922,30.555555555555557,0.9999999999672727,1.0177777777777464,0.0,0.992541929896564,0
250,158.93055555555554,0.6361111111110915,0.6111111111111143,0.625,1.0177777777777464,0.017037398145199414,0.9814563107591809,30.555555555555557,0.9999999999672727,0.9777777777777829,0.0,0.9980517944624734,0
251,159.54166666666666,0.6111111111111143,0.6027777777777885,0.625,0.9777777777777829,0.022283479530952846,1.2836620606585423,33.333333333333336,1.0909090908733885,0.9644444444444616,0.0,0.9844593349594395,0
252,160.14444444444445,0.6027777777777885,0.5888888888888744,0.625,0.9644444444444616,0.016683063996133552,0.9610445387412709,33.333333333333336,1.0909090908733885,0.942222222222199,0.0,0.9959802024370423,0
253,160.73333333333332,0.5888888888888744,0.6222222222222342,0.625,0.942222222222199,0.018948055075097912,1.0915216086152988,30.555555555555557,0.9999999999672727,0.9955555555555747,0.0,0.9924423271002458,0
254,161.35555555555555,0.6222222222222342,0.6388888888888857,0.625,0.9955555555555747,0.017330401025812573,0.9983350338950508,33.333333333333336,1.0909090908733885,1.0222222222222173,0.0,0.9939077888563774,0
255,161.99444444444444,0.6388888888888857,0.6500000000000057,0.625,1.0222222222222173,0.01627961100070315,0.9378032265945898,30.555555555555557,0.9999999999672727,1.0400000000000091,0.0,0.9969408419474315,0
256,162.64444444444445,0.6500000000000057,0.6416666666666515,0.625,1.0400000000000091,0.01823081438134826,1.0502042431810563,30.555555555555557,0.9999999999672727,1.0266666666666424,0.0,0.9956316067982595,0
257,163.2861111111111,0.6416666666666515,0.63611111111112,0.625,1.0266666666666424,0.016008809963038828,0.9222034627626534,27.77777777777778,0.909090909061157,1.0177777777777919,0.0,0.9993120682103259,0
258,163.92222222222222,0.63611111111112,0.6277777777777942,0.625,1.0177777777777919,0.015614368814688086,0.8994812870540924,27.77777777777778,0.909090909061157,1.0044444444444707,0.0,0.998784334524222,0
259,164.55,0.6277777777777942,0.6361111111110915,0.625,1.0044444444444707,0.01703507926777135,0.9813227295124286,30.555555555555557,0.9999999999672727,1.0177777777777464,0.0,0.9943009228593513,0
260,165.1861111111111,0.6361111111110915,0.61944444444444,0.625,1.0177777777777464,0.01904649449435133,1.0971923095304477,30.555555555555557,0.9999999999672727,0.9911111111111041,0.0,0.9899657724691844,0
261,165.80555555555554,0.61944444444444,0.6138888888889085,0.625,0.9911111111111041,0.016795075694554698,0.9674970843328796,30.555555555555557,0.9999999999672727,0.9822222222222535,0.0,0.9987876919626918,0
262,166.41944444444445,0.6138888888889085,0.6055555555555543,0.625,0.9822222222222535,0.015489866934232958,0.8923092320705384,27.77777777777778,0.909090909061157,0.9688888888888869,0.0,0.9895887828574955,0
263,167.025,0.6055555555555543,0.5999999999999943,0.625,0.9688888888888869,0.01785980663336567,1.0288319718697434,38.888888888888886,1.2727272726856196,0.9599999999999909,0.0,0.9707966512172561,0
264,167.625,0.5999999999999943,0.6555555555555657,0.625,0.9599999999999909,0.017228970753345237,0.9924920418978755,30.555555555555557,0.9999999999672727,1.048888888888905,0.0,0.9948339509579012,0
265,168.28055555555557,0.6555555555555657,0.6583333333333314,0.625,1.048888888888905,0.015972443401187253,0.9201085307005124,27.77777777777778,0.909090909061157,1.0533333333333303,0.0,0.9991341085825598,0
266,168.9388888888889,0.6583333333333314,0.6611111111110972,0.625,1.0533333333333303,0.01755373751334647,1.0112005549825354,30.555555555555557,0.9999999999672727,1.0577777777777555,0.0,0.9941775969438384,0
267,169.6,0.6611111111110972,0.6527777777777715,0.625,1.0577777777777555,0.0166759072544712,0.9606322675007255,33.333333333333336,1.0909090908733885,1.0444444444444343,0.0,0.9985730246581158,0
268,170.25277777777777,0.6527777777777715,0.6222222222222342,0.625,1.0444444444444343,0.015431267738178869,0.888933566943589,27.77777777777778,0.909090909061157,0.9955555555555747,0.0,0.9977628278339885,0
269,170.875,0.6222222222222342,0.625,0.625,0.9955555555555747,0.019819076097053346,1.1416976432138062,33.333333333333336,1.0909090908733885,1.0,0.0,0.9918865905326812,0
270,171.5,0.625,0.61944444444444,0.625,1.0,0.015157083234204095,0.8731388951606655,27.77777777777778,0.909090909061157,0.9911111111111041,0.0,0.9889633432775911,0
271,172.11944444444444,0.61944444444444,0.6388888888888857,0.625,0.9911111111111041,0.015043837181734267,0.8666152433731186,27.77777777777778,0.909090909061157,1.0222222222222173,0.0,0.9972751907004005,0
272,172.75833333333333,0.6388888888888857,0.6416666666666799,0.625,1.0222222222222173,0.015070765407848857,0.8681664706927172,27.77777777777778,0.909090909061157,1.026666666666688,0.0,0.9950295784155325,0
273,173.4,0.6416666666666799,0.6638888888888914,0.625,1.026666666666688,0.016037153595065207,0.9238362259513193,30.555555555555557,0.9999999999672727,1.0622222222222262,0.0,0.9942458059435659,0
274,174.0638888888889,0.6638888888888914,0.6833333333333371,0.625,1.0622222222222262,0.016547297784266755,0.9532235907133538,27.77777777777778,0.909090909061157,1.0933333333333395,0.0,0.9980552915715535,0
275,174.74722222222223,0.6833333333333371,0.669444444444423,0.625,1.0933333333333395,0.016251551472717746,0.9361868295025282,27.77777777777778,0.909090909061157,1.0711111111110767,0.0,0.9947358782204488,0
276,175.41666666666666,0.669444444444423,0.6527777777777999,0.625,1.0711111111110767,0.016551499829546866,0.9534656537222189,30.555555555555557,0.9999999999672727,1.0444444444444798,0.0,0.9936562450483808,0
277,176.06944444444446,0.6527777777777999,0.6833333333333087,0.625,1.0444444444444798,0.01957558329030821,1.1276709972571983,30.555555555555557,0.9999999999672727,1.093333333333294,0.0,0.9851030084770054,0
278,176.75277777777777,0.6833333333333087,0.6388888888889142,0.625,1.093333333333294,0.01777404479069077,1.0238915753961577,41.666666666666664,1.3636363635917355,1.0222222222222626,0.0,0.9753974849451821,0
279,177.39166666666668,0.6388888888889142,0.6583333333333314,0.625,1.0222222222222626,0.016165584150145382,0.9312345961545336,30.555555555555557,0.9999999999672727,1.0533333333333303,0.0,0.9991088817228406,0
280,178.05,0.6583333333333314,0.6472222222222115,0.625,1.0533333333333303,0.016904357515791946,0.9737923726269302,30.555555555555557,0.9999999999672727,1.0355555555555385,0.0,0.9902084391442294,0
281,178.69722222222222,0.6472222222222115,0.6055555555555543,0.625,1.0355555555555385,0.01685207517163936,0.9707805960532697,30.555555555555557,0.9999999999672727,0.9688888888888869,0.0,0.9979217788540445,0
282,179.30277777777778,0.6055555555555543,0.6500000000000057,0.625,0.9688888888888869,0.01832440550283122,1.0555956530681558,30.555555555555557,0.9999999999672727,1.0400000000000091,0.0,0.9970458841078019,0
283,179.95277777777778,0.6500000000000057,0.6527777777777715,0.625,1.0400000000000091,0.01845020694876064,1.0628425708168527,33.333333333333336,1.0909090908733885,1.0444444444444343,0.0,0.9967081386455778,0
284,180.60555555555555,0.6527777777777715,0.6666666666666572,0.625,1.0444444444444343,0.020806558403853228,1.1985825462672022,33.333333333333336,1.0909090908733885,1.0666666666666516,0.0,0.9873211856243287,0
285,181.2722222222222,0.6666666666666572,0.6750000000000114,0.625,1.0666666666666516,0.017927288221333684,1.0327193160408905,30.555555555555557,0.9999999999672727,1.0800000000000183,0.0,0.993813550941584,0
286,181.94722222222222,0.6750000000000114,0.6333333333333258,0.625,1.0800000000000183,0.01679092976516272,0.9672582539357121,30.555555555555557,0.9999999999672727,1.0133333333333212,0.0,0.9942082525247281,0
287,182.58055555555555,0.6333333333333258,0.63055555555556,0.625,1.0133333333333212,0.016441474314377185,0.9471275241975392,27.77777777777778,0.909090909061157,1.008888888888896,0.0,0.9995241171300291,0
288,183.2111111111111,0.63055555555556,0.6055555555555543,0.625,1.008888888888896,0.01637883676636111,0.9435192257785591,30.555555555555557,0.9999999999672727,0.9688888888888869,0.0,0.9986530777159723,0
289,183.81666666666666,0.6055555555555543,0.61944444444444,0.625,0.9688888888888869,0.019782327345352246,1.139580694724243,30.555555555555557,0.9999999999672727,0.9911111111111041,0.0,0.9915192467754975,0
290,184.4361111111111,0.61944444444444,0.6027777777777885,0.625,0.9911111111111041,0.015984280140657448,0.9207903978819227,33.333333333333336,1.0909090908733885,0.9644444444444616,0.0,0.999012470547097,0
291,185.0388888888889,0.6027777777777885,0.63055555555556,0.625,0.9644444444444616,0.01829443061231669,1.053868919607502,30.555555555555557,0.9999999999672727,1.008888888888896,0.0,0.9881993305230887,0
292,185.66944444444445,0.63055555555556,0.6666666666666572,0.625,1.008888888888896,0.01758593380235686,1.013055254318841,33.333333333333336,1.0909090908733885,1.0666666666666516,0.0,0.994576291073013,0
293,186.3361111111111,0.6666666666666572,0.6777777777777771,0.625,1.0666666666666516,0.01687273192140908,0.9719705487237704,30.555555555555557,0.9999999999672727,1.0844444444444434,0.0,0.9962284095331766,0
294,187.01388888888889,0.6777777777777771,0.6388888888888857,0.625,1.0844444444444434,0.017117126845871546,0.9860491620711251,30.555555555555557,0.9999999999672727,1.0222222222222173,0.0,0.9976301626885402,0
295,187.65277777777777,0.6388888888888857,0.6277777777777942,0.625,1.0222222222222173,0.01741568040905557,1.0032476378119273,30.555555555555557,0.9999999999672727,1.0044444444444707,0.0,0.9916032603028777,0
296,188.28055555555557,0.6277777777777942,0.6388888888888857,0.625,1.0044444444444707,0.019985661181659828,1.1512939431401217,30.555555555555557,0.9999999999672727,1.0222222222222173,0.0,0.9915373596452832,0
297,188.91944444444445,0.6388888888888857,0.6388888888888857,0.625,1.0222222222222173,0.01685181780529721,0.9707657702084705,30.555555555555557,0.9999999999672727,1.0222222222222173,0.0,0.9974424713699941,0
298,189.55833333333334,0.6388888888888857,0.6388888888888857,0.625,1.0222222222222173,0.015884764150636953,0.9150576800341226,30.555555555555557,0.9999999999672727,1.0222222222222173,0.0,0.9988944055158815,0
299,190.19722222222222,0.6388888888888857,0.6111111111111143,0.625,1.0222222222222173,0.016370994747071967,0.9430674784369267,30.555555555555557,0.9999999999672727,0.9777777777777829,0.0,0.9963522513183425,0
300,190.80833333333334,0.6111111111111143,0.6055555555555543,0.625,0.9777777777777829,0.015323512249535595,0.8827262045607548,27.77777777777778,0.909090909061157,0.9688888888888869,0.0,0.9963133813106857,0
301,191.4138888888889,0.6055555555555543,0.6333333333333258,0.625,0.9688888888888869,0.015126311616766799,0.8713662654510868,27.77777777777778,0.909090909061157,1.0133333333333212,0.0,0.9951814231251037,0
302,192.04722222222222,0.6333333333333258,0.6416666666666799,0.625,1.0133333333333212,0.017060055084609668,0.9827614863486208,30.555555555555557,0.9999999999672727,1.026666666666688,0.0,0.9962209811811626,0
303,192.6888888888889,0.6416666666666799,0.5250000000000057,0.625,1.026666666666688,0.016446214263875953,0.9474005737153469,30.555555555555557,0.9999999999672727,0.8400000000000091,0.0,0.9975430997333214,0
304,193.2138888888889,0.5250000000000057,0.7249999999999943,0.625,0.8400000000000091,0.015957536518713775,0.9192498048696869,27.77777777777778,0.909090909061157,1.1599999999999908,0.0,0.9982446456491156,0
305,193.9388888888889,0.7249999999999943,0.6361111111110915,0.625,1.1599999999999908,0.016671988132259598,0.9604065025573677,30.555555555555557,0.9999999999672727,1.0177777777777464,0.0,0.9953419348352033,0
306,194.575,0.6361111111110915,0.6416666666666799,0.625,1.0177777777777464,0.016563163456246685,0.9541375485698547,30.555555555555557,0.9999999999672727,1.026666666666688,0.0,0.997373135569365,0
307,195.21666666666667,0.6416666666666799,0.6083333333333201,0.625,1.026666666666688,0.015975230677684665,0.920269094542767,30.555555555555557,0.9999999999672727,0.9733333333333121,0.0,0.9981558354299578,0
308,195.825,0.6083333333333201,0.6000000000000227,0.625,0.9733333333333121,0.014769206607015055,0.8507948752401159,27.77777777777778,0.909090909061157,0.9600000000000364,0.0,0.9940026966188706,0
309,196.425,0.6000000000000227,0.5777777777777544,0.625,0.9600000000000364,0.015693514127188224,0.9040405317086029,27.77777777777778,0.909090909061157,0.9244444444444071,0.0,0.9898914957851834,0
310,197.00277777777777,0.5777777777777544,0.63055555555556,0.625,0.9244444444444071,0.01475997405018236,0.8502630245965689,27.77777777777778,0.909090909061157,1.008888888888896,0.0,0.9853786083562948,0
311,197.63333333333333,0.63055555555556,0.6833333333333371,0.625,1.008888888888896,0.016527294331780747,0.9520712718843842,33.333333333333336,1.0909090908733885,1.0933333333333395,0.0,0.9985507018346786,0
312,198.31666666666666,0.6833333333333371,0.6722222222222172,0.625,1.0933333333333395,0.01786971725612204,1.0294028831770272,30.555555555555557,0.9999999999672727,1.0755555555555474,0.0,0.9952700590305963,0
313,198.98888888888888,0.6722222222222172,0.6694444444444514,0.625,1.0755555555555474,0.01615256816676287,0.930484797451549,30.555555555555557,0.9999999999672727,1.0711111111111222,0.0,0.9956631952866537,0
314,199.65833333333333,0.6694444444444514,0.6333333333333258,0.625,1.0711111111111222,0.017433954468994615,1.0043003332585863,27.77777777777778,0.909090909061157,1.0133333333333212,0.0,0.9969989934815692,0
315,200.29166666666666,0.6333333333333258,0.6500000000000057,0.625,1.0133333333333212,0.01946790616849203,1.1214681492735905,30.555555555555557,0.9999999999672727,1.0400000000000091,0.0,0.9887620302743039,0
316,200.94166666666666,0.6500000000000057,0.6416666666666799,0.625,1.0400000000000091,0.015109395818181024,0.8703918140042137,27.77777777777778,0.909090909061157,1.026666666666688,0.0,0.9984242889580071,0
317,201.58333333333334,0.6416666666666799,0.6166666666666458,0.625,1.026666666666688,0.015022392038988083,0.8653798745389809,27.77777777777778,0.909090909061157,0.9866666666666333,0.0,0.9944411971949182,0
318,202.2,0.6166666666666458,0.6416666666666799,0.625,0.9866666666666333,0.019576817422925944,1.127742090697386,33.333333333333336,1.0909090908733885,1.026666666666688,0.0,0.9884281580443548,0
319,202.84166666666667,0.6416666666666799,0.6222222222222342,0.625,1.026666666666688,0.016614477654026655,0.9570935541062332,30.555555555555557,0.9999999999672727,0.9955555555555747,0.0,0.9945955616840634,0
320,203.4638888888889,0.6222222222222342,0.6416666666666515,0.625,0.9955555555555747,0.01770427471279853,1.0198724004807207,30.555555555555557,0.9999999999672727,1.0266666666666424,0.0,0.9939736419550795,0
321,204.10555555555555,0.6416666666666515,0.6666666666666572,0.625,1.0266666666666424,0.02238856390548485,1.2897155508492189,33.333333333333336,1.0909090908733885,1.0666666666666516,0.0,0.9860822511083186,0
322,204.7722222222222,0.6666666666666572,0.6444444444444457,0.625,1.0666666666666516,0.017837988773922106,1.02757513231856,33.333333333333336,1.0909090908733885,1.031111111111113,0.0,0.9965303477381504,0
323,205.41666666666666,0.6444444444444457,0.6444444444444457,0.625,1.031111111111113,0.018878708994166278,1.0875268584676099,30.555555555555557,0.9999999999672727,1.031111111111113,0.0,0.9898193774889085,0
324,206.0611111111111,0.6444444444444457,0.6472222222222399,0.625,1.031111111111113,0.016766117755019173,0.9658289333475291,30.555555555555557,0.9999999999672727,1.0355555555555838,0.0,0.9934020897616698,0
325,206.70833333333334,0.6472222222222399,0.63055555555556,0.625,1.0355555555555838,0.017726247148508928,1.0211381445519065,30.555555555555557,0.9999999999672727,1.008888888888896,0.0,0.9938268778364652,0
326,207.3388888888889,0.63055555555556,0.6361111111110915,0.625,1.008888888888896,0.01653541847062833,0.9525392710045253,33.333333333333336,1.0909090908733885,1.0177777777777464,0.0,0.9985906986778268,0
327,207.975,0.6361111111110915,0.6055555555555543,0.625,1.0177777777777464,0.0161826750109756,0.9322191322365792,27.77777777777778,0.909090909061157,0.9688888888888869,0.0,0.9969226493422693,0
328,208.58055555555555,0.6055555555555543,0.5833333333333428,0.625,0.9688888888888869,0.02117539761723094,1.2198298969800225,33.333333333333336,1.0909090908733885,0.9333333333333484,0.0,0.9914359062723411,0
329,209.1638888888889,0.5833333333333428,0.6472222222222115,0.625,0.9333333333333484,0.01814638183603671,1.0453404222077332,30.555555555555557,0.9999999999672727,1.0355555555555385,0.0,0.9914037711204358,0
330,209.8111111111111,0.6472222222222115,0.6555555555555657,0.625,1.0355555555555385,0.01802806220681689,1.0385245019718607,30.555555555555557,0.9999999999672727,1.048888888888905,0.0,0.9950758896057121,0
331,210.46666666666667,0.6555555555555657,0.6666666666666572,0.625,1.048888888888905,0.016702395515638783,0.9621581502007953,30.555555555555557,0.9999999999672727,1.0666666666666516,0.0,0.9967673707474344,0
332,211.13333333333333,0.6666666666666572,0.6722222222222172,0.625,1.0666666666666516,0.016437727855104167,0.9469117056749473,30.555555555555557,0.9999999999672727,1.0755555555555474,0.0,0.9966014286503599,0
333,211.80555555555554,0.6722222222222172,0.6472222222222399,0.625,1.0755555555555474,0.019836011783703773,1.1426732403324769,33.333333333333336,1.0909090908733885,1.0355555555555838,0.0,0.9879113512676532,0
334,212.45277777777778,0.6472222222222399,0.6500000000000057,0.625,1.0355555555555838,0.016787863758984646,0.9670816335922388,30.555555555555557,0.9999999999672727,1.0400000000000091,0.0,0.9960949025088138,0
335,213.1027777777778,0.6500000000000057,0.6166666666666458,0.625,1.0400000000000091,0.01601920717160645,0.9228024043308439,27.77777777777778,0.909090909061157,0.9866666666666333,0.0,0.9981365075729045,0
336,213.71944444444443,0.6166666666666458,0.6222222222222342,0.625,0.9866666666666333,0.015709312766335956,0.9049506280719563,30.555555555555557,0.9999999999672727,0.9955555555555747,0.0,0.9983317166095278,0
337,214.34166666666667,0.6222222222222342,0.63611111111112,0.625,0.9955555555555747,0.020130783617808016,1.1596538657982958,36.111111111111114,1.1818181817795042,1.0177777777777919,0.0,0.9876379212811637,0
338,214.9777777777778,0.63611111111112,0.61388888888888,0.625,1.0177777777777919,0.01865033968436419,1.0743714166343665,41.666666666666664,1.3636363635917355,0.9822222222222081,0.0,0.9871663031424833,0
339,215.59166666666667,0.61388888888888,0.6527777777777715,0.625,0.9822222222222081,0.02065834930970417,1.1900448135967077,36.111111111111114,1.1818181817795042,1.0444444444444343,0.0,0.9900379507262442,0
340,216.24444444444444,0.6527777777777715,0.6388888888888857,0.625,1.0444444444444343,0.01811995064559854,1.0438178271239449,33.333333333333336,1.0909090908733885,1.0222222222222173,0.0,0.9967931443647169,0
341,216.88333333333333,0.6388888888888857,0.6555555555555657,0.625,1.0222222222222173,0.020425351913463983,1.1766227662288222,33.333333333333336,1.0909090908733885,1.048888888888905,0.0,0.9870982755700664,0
342,217.5388888888889,0.6555555555555657,0.6444444444444457,0.625,1.048888888888905,0.01665438609643147,0.9593925197297966,33.333333333333336,1.0909090908733885,1.031111111111113,0.0,0.9950218271706317,0
343,218.18333333333334,0.6444444444444457,0.6222222222222058,0.625,1.031111111111113,0.019409245221709632,1.118088926934356,30.555555555555557,0.9999999999672727,0.9955555555555293,0.0,0.9902404729493377,0
344,218.80555555555554,0.6222222222222058,0.6222222222222342,0.625,0.9955555555555293,0.0265490108612339,1.5293822467554403,25.0,0.8181818181550413,0.9955555555555747,0.0,0.8491602584851754,0
345,219.42777777777778,0.6222222222222342,0.6166666666666742,0.625,0.9955555555555747,0.01671013990232512,0.9626042733189785,27.77777777777778,0.909090909061157,0.9866666666666788,0.0,0.9870105019797613,0
346,220.04444444444445,0.6166666666666742,0.5861111111111086,0.625,0.9866666666666788,0.018945581625303794,1.0913791230732521,27.77777777777778,0.909090909061157,0.9377777777777737,0.0,0.9953285269674967,0
347,220.63055555555556,0.5861111111111086,0.5749999999999886,0.625,0.9377777777777737,0.016900875490153122,0.9735917870675435,27.77777777777778,0.909090909061157,0.9199999999999818,0.0,0.9958524754457821,0
348,221.20555555555555,0.5749999999999886,0.5972222222222285,0.625,0.9199999999999818,0.016449870053955328,0.9476111691486188,33.333333333333336,1.0909090908733885,0.9555555555555657,0.0,0.9958749210487579,0
349,221.80277777777778,0.5972222222222285,0.63055555555556,0.625,0.9555555555555657,0.017987421722195186,1.0361833663263618,33.333333333333336,1.0909090908733885,1.008888888888896,0.0,0.9960859999651753,0
350,222.43333333333334,0.63055555555556,0.6388888888888857,0.625,1.008888888888896,0.019176066461736686,1.1046564319277792,33.333333333333336,1.0909090908733885,1.0222222222222173,0.0,0.996098196047945,0
351,223.07222222222222,0.6388888888888857,0.6277777777777658,0.625,1.0222222222222173,0.018725825511954158,1.0787198530111928,27.77777777777778,0.909090909061157,1.0044444444444252,0.0,0.9955420801963308,0
352,223.7,0.6277777777777658,0.6000000000000227,0.625,1.0044444444444252,0.01775304577227212,1.0226819059988066,30.555555555555557,0.9999999999672727,0.9600000000000364,0.0,0.9978582061210253,0
353,224.3,0.6000000000000227,0.5999999999999943,0.625,0.9600000000000364,0.018019929231855816,1.0380559938385903,30.555555555555557,0.9999999999672727,0.9599999999999909,0.0,0.9966106640413065,0
354,224.9,0.5999999999999943,0.5888888888888744,0.625,0.9599999999999909,0.016394118460296266,0.9443995429974165,27.77777777777778,0.909090909061157,0.942222222222199,0.0,0.9966815018736257,0
355,225.48888888888888,0.5888888888888744,0.5888888888889028,0.625,0.942222222222199,0.01627959316713219,0.9378021992739501,27.77777777777778,0.909090909061157,0.9422222222222445,0.0,0.9985091305341549,0
356,226.07777777777778,0.5888888888889028,0.5972222222222285,0.625,0.9422222222222445,0.015780986924749885,0.9090794894446961,30.555555555555557,0.9999999999672727,0.9555555555555657,0.0,0.9982448872744217,0
357,226.675,0.5972222222222285,0.5722222222222229,0.625,0.9555555555555657,0.01572494065226604,0.9058508880259226,27.77777777777778,0.909090909061157,0.9155555555555566,0.0,0.9971310483046076,0
358,227.24722222222223,0.5722222222222229,0.6166666666666458,0.625,0.9155555555555566,0.015682608667625143,0.9034123118349638,30.555555555555557,0.9999999999672727,0.9866666666666333,0.0,0.9988278208374772,0
359,227.86388888888888,0.6166666666666458,0.6527777777777999,0.625,0.9866666666666333,0.016266842882060484,0.9370677063871281,30.555555555555557,0.9999999999672727,1.0444444444444798,0.0,0.9927972295023104,0
360,228.51666666666668,0.6527777777777999,0.6305555555555316,0.625,1.0444444444444798,0.017532984877387085,1.0100050786924561,33.333333333333336,1.0909090908733885,1.0088888888888505,0.0,0.9945259047634726,0
361,229.1472222222222,0.6305555555555316,0.6500000000000057,0.625,1.0088888888888505,0.01784530121818075,1.0279963729624397,27.77777777777778,0.909090909061157,1.0400000000000091,0.0,0.9933366637428725,0
362,229.79722222222222,0.6500000000000057,0.5722222222222229,0.625,1.0400000000000091,0.026639012230004384,1.534566865357644,27.77777777777778,0.909090909061157,0.9155555555555566,0.0,0.8979912101863703,0
363,230.36944444444444,0.5722222222222229,0.6055555555555543,0.625,0.9155555555555566,0.0169877091229992,0.9785939250827863,27.77777777777778,0.909090909061157,0.9688888888888869,0.0,0.9978579170815451,0
364,230.975,0.6055555555555543,0.6055555555555543,0.625,0.9688888888888869,0.01705659785503961,0.9825623291915032,30.555555555555557,0.9999999999672727,0.9688888888888869,0.0,0.997395370137846,0
365,231.58055555555555,0.6055555555555543,0.5944444444444628,0.625,0.9688888888888869,0.021481918731555798,1.237487351449961,30.555555555555557,0.9999999999672727,0.9511111111111404,0.0,0.9886893823529967,0
366,232.175,0.5944444444444628,0.5861111111111086,0.625,0.9511111111111404,0.024966067285919245,1.4381952035034153,33.333333333333336,1.0909090908733885,0.9377777777777737,0.0,0.929603577546589,0
367,232.76111111111112,0.5861111111111086,0.549999999999983,0.625,0.9377777777777737,0.016234211660803372,0.9351879523450125,27.77777777777778,0.909090909061157,0.8799999999999727,0.0,0.9972136731469989,0
368,233.3111111111111,0.549999999999983,0.6138888888889085,0.625,0.8799999999999727,0.019861962165071464,1.1441681379302715,30.555555555555557,0.9999999999672727,0.9822222222222535,0.0,0.9884301709879968,0
369,233.925,0.6138888888889085,0.6361111111110915,0.625,0.9822222222222535,0.01961458841279035,1.129917926235777,30.555555555555557,0.9999999999672727,1.0177777777777464,0.0,0.9913116398918711,0
370,234.5611111111111,0.6361111111110915,0.6166666666666742,0.625,1.0177777777777464,0.01770190640390852,1.0197359716853074,30.555555555555557,0.9999999999672727,0.9866666666666788,0.0,0.9955983803759665,0
371,235.17777777777778,0.6166666666666742,0.63055555555556,0.625,0.9866666666666788,0.01759633650539596,1.0136545124015401,30.555555555555557,0.9999999999672727,1.008888888888896,0.0,0.9959746811927384,0
372,235.80833333333334,0.63055555555556,0.6166666666666742,0.625,1.008888888888896,0.020456080180190274,1.1783928986774619,33.333333333333336,1.0909090908733885,0.9866666666666788,0.0,0.9870881446594202,0
373,236.425,0.6166666666666742,0.6222222222222058,0.625,0.9866666666666788,0.017450303698858083,1.0052421469491981,33.333333333333336,1.0909090908733885,0.9955555555555293,0.0,0.9965626402583314,0
374,237.04722222222222,0.6222222222222058,0.5861111111111086,0.625,0.9955555555555293,0.016801219419432384,0.9678509997313098,30.555555555555557,0.9999999999672727,0.9377777777777737,0.0,0.9937667644671173,0
375,237.63333333333333,0.5861111111111086,0.5583333333333371,0.625,0.9377777777777737,0.016633567510501383,0.9581932443258862,30.555555555555557,0.9999999999672727,0.8933333333333394,0.0,0.9956255497242348,0
376,238.19166666666666,0.5583333333333371,0.6166666666666742,0.625,0.8933333333333394,0.01615576337694251,0.9306688607203817,30.555555555555557,0.9999999999672727,0.9866666666666788,0.0,0.9966235817999287,0
377,238.80833333333334,0.6166666666666742,0.5888888888888744,0.625,0.9866666666666788,0.015353384748301077,0.8844470396425944,30.555555555555557,0.9999999999672727,0.942222222222199,0.0,0.996093238520741,0
378,239.3972222222222,0.5888888888888744,0.6444444444444457,0.625,0.942222222222199,0.016548640010418624,0.953300910989372,27.77777777777778,0.909090909061157,1.031111111111113,0.0,0.9975805276733962,0
379,240.04166666666666,0.6444444444444457,0.63611111111112,0.625,1.031111111111113,0.018921910610075632,1.0900155306350312,36.111111111111114,1.1818181817795042,1.0177777777777919,0.0,0.9919523186414789,0
380,240.67777777777778,0.63611111111112,0.6444444444444457,0.625,1.0177777777777919,0.018816940422765716,1.0839686183131565,30.555555555555557,0.9999999999672727,1.031111111111113,0.0,0.9951713103910533,0
381,241.32222222222222,0.6444444444444457,0.6027777777777885,0.625,1.031111111111113,0.019094414932858638,1.099952814179486,33.333333333333336,1.0909090908733885,0.9644444444444616,0.0,0.9946793294807038,0
382,241.925,0.6027777777777885,0.6027777777777601,0.625,0.9644444444444616,0.01951547567100653,1.1242084379047912,33.333333333333336,1.0909090908733885,0.9644444444444161,0.0,0.9893136824092827,0
383,242.52777777777777,0.6027777777777601,0.6166666666666742,0.625,0.9644444444444161,0.01658667040131218,0.9554916895827357,30.555555555555557,0.9999999999672727,0.9866666666666788,0.0,0.9970447306413657,0
384,243.14444444444445,0.6166666666666742,0.5916666666666686,0.625,0.9866666666666788,0.01781928531271759,1.0264977007837817,30.555555555555557,0.9999999999672727,0.9466666666666697,0.0,0.9963033915386208,0
385,243.73611111111111,0.5916666666666686,0.6055555555555543,0.625,0.9466666666666697,0.017034747870214244,0.9813036390256643,30.555555555555557,0.9999999999672727,0.9688888888888869,0.0,0.9961575574825019,0
386,244.34166666666667,0.6055555555555543,0.625,0.625,0.9688888888888869,0.017931444396102895,1.032958736633231,27.77777777777778,0.909090909061157,1.0,0.0,0.9946077195497276,0
387,244.96666666666667,0.625,0.5722222222222229,0.625,1.0,0.02577863964242972,1.4850042444408296,38.888888888888886,1.2727272726856196,0.9155555555555566,0.0,0.936727286777078,0
388,245.5388888888889,0.5722222222222229,0.625,0.625,0.9155555555555566,0.016990740761659802,0.9787685656511425,27.77777777777778,0.909090909061157,1.0,0.0,0.9939098182868338,0
389,246.1638888888889,0.625,0.625,0.625,1.0,0.02301367248085589,1.3257255537251835,36.111111111111114,1.1818181817795042,1.0,0.0,0.9757302424820544,0
390,246.7888888888889,0.625,0.6277777777777658,0.625,1.0,0.018252264644064885,1.0514399069561973,30.555555555555557,0.9999999999672727,1.0044444444444252,0.0,0.9936304836811611,0
391,247.41666666666666,0.6277777777777658,0.63611111111112,0.625,1.0044444444444252,0.016228926736325006,0.9348835090000268,30.555555555555557,0.9999999999672727,1.0177777777777919,0.0,0.9985786298065631,0
392,248.05277777777778,0.63611111111112,0.61944444444444,0.625,1.0177777777777919,0.01678529186804356,0.9669334772497503,30.555555555555557,0.9999999999672727,0.9911111111111041,0.0,0.997011851049167,0
393,248.67222222222222,0.61944444444444,0.61944444444444,0.625,0.9911111111111041,0.01734239140936787,0.9990257518972059,30.555555555555557,0.9999999999672727,0.9911111111111041,0.0,0.983956894818167,0
394,249.29166666666666,0.61944444444444,0.5722222222222229,0.625,0.9911111111111041,0.022950397604449065,1.3220805413686765,30.555555555555557,0.9999999999672727,0.9155555555555566,0.0,0.8681742630976474,0
395,249.86388888888888,0.5722222222222229,0.5888888888889028,0.625,0.9155555555555566,0.02885875585829175,1.6624374107122453,55.55555555555556,1.818181818122314,0.9422222222222445,0.0,0.8446857274586064,0
396,250.45277777777778,0.5888888888889028,0.5611111111111029,0.625,0.9422222222222445,0.01697039280044124,0.9775964010530716,25.0,0.8181818181550413,0.8977777777777647,0.0,0.9926713335695652,0
397,251.01388888888889,0.5611111111111029,0.5916666666666686,0.625,0.8977777777777647,0.023014582609510836,1.3257779825939808,33.333333333333336,1.0909090908733885,0.9466666666666697,0.0,0.9758065559345825,0
398,251.60555555555555,0.5916666666666686,0.5999999999999943,0.625,0.9466666666666697,0.026414424777395393,1.5216292811794796,27.77777777777778,0.909090909061157,0.9599999999999909,0.0,0.8709829076950194,0
399,252.20555555555555,0.5999999999999943,0.6222222222222342,0.625,0.9599999999999909,0.021371473113511716,1.231125021480252,33.333333333333336,1.0909090908733885,0.9955555555555747,0.0,0.9795416755311224,0
400,252.82777777777778,0.6222222222222342,0.61388888888888,0.625,0.9955555555555747,0.030157671014261027,1.7372627136195438,33.333333333333336,1.0909090908733885,0.9822222222222081,0.0,0.9284310496985543,0
401,253.44166666666666,0.61388888888888,0.5916666666666686,0.625,0.9822222222222081,0.025815029915325773,1.4871005424013337,36.111111111111114,1.1818181817795042,0.9466666666666697,0.0,0.9671865709824436,0
402,254.03333333333333,0.5916666666666686,0.5805555555555486,0.625,0.9466666666666697,0.017155163410644585,0.9882402963169735,33.333333333333336,1.0909090908733885,0.9288888888888778,0.0,0.9929617598569382,0
403,254.61388888888888,0.5805555555555486,0.5777777777777828,0.625,0.9288888888888778,0.018547566130921945,1.06845104359704,30.555555555555557,0.9999999999672727,0.9244444444444525,0.0,0.9664813819057244,0
404,255.19166666666666,0.5777777777777828,0.5694444444444571,0.625,0.9244444444444525,0.017002779789942458,0.979462085881328,30.555555555555557,0.9999999999672727,0.9111111111111313,0.0,0.9875890813570694,0
405,255.76111111111112,0.5694444444444571,0.5722222222221944,0.625,0.9111111111111313,0.01893078498068536,1.0905267476040015,30.555555555555557,0.9999999999672727,0.915555555555511,0.0,0.9936346400226677,0
406,256.3333333333333,0.5722222222221944,0.5777777777777828,0.625,0.915555555555511,0.016911853028310175,0.9742241591004689,30.555555555555557,0.9999999999672727,0.9244444444444525,0.0,0.9907495070690213,0
407,256.9111111111111,0.5777777777777828,0.5444444444444798,0.625,0.9244444444444525,0.015677936461336497,0.9031431647323322,27.77777777777778,0.909090909061157,0.8711111111111677,0.0,0.9924796179307541,0
408,257.4555555555556,0.5444444444444798,0.5888888888888459,0.625,0.8711111111111677,0.016412464609672266,0.9454563912279826,27.77777777777778,0.909090909061157,0.9422222222221535,0.0,0.9885909286096651,0
409,258.0444444444444,0.5888888888888459,0.4194444444444798,0.625,0.9422222222221535,0.017147201314799996,0.987781631845618,30.555555555555557,0.9999999999672727,0.6711111111111677,0.0,0.9887600974019771,0
410,258.4638888888889,0.4194444444444798,0.6638888888888914,0.625,0.6711111111111677,0.01721359751459315,0.9916064511485454,25.0,0.8181818181550413,1.0622222222222262,0.0,0.9511108056697918,0
411,259.1277777777778,0.6638888888888914,0.6027777777777601,0.625,1.0622222222222262,0.016717864854916772,0.9630492769167566,30.555555555555557,0.9999999999672727,0.9644444444444161,0.0,0.9877826647935442,0
412,259.73055555555555,0.6027777777777601,0.5888888888889028,0.625,0.9644444444444161,0.01892242516871776,1.0900451722987563,30.555555555555557,0.9999999999672727,0.9422222222222445,0.0,0.9830957845284916,0
413,260.31944444444446,0.5888888888889028,0.5555555555555429,0.625,0.9422222222222445,0.01548932653556698,0.8922781018664703,25.0,0.8181818181550413,0.8888888888888686,0.0,0.9337602972776768,0
414,260.875,0.5555555555555429,0.5666666666666629,0.625,0.8888888888888686,0.01645173672374567,0.9477187005234343,27.77777777777778,0.909090909061157,0.9066666666666606,0.0,0.9915238849147401,0
415,261.44166666666666,0.5666666666666629,0.5749999999999886,0.625,0.9066666666666606,0.019424571279477425,1.1189717997760344,27.77777777777778,0.909090909061157,0.9199999999999818,0.0,0.9747488980394199,0
416,262.01666666666665,0.5749999999999886,0.5555555555555429,0.625,0.9199999999999818,0.016991370833780974,0.9788048615840242,30.555555555555557,0.9999999999672727,0.8888888888888686,0.0,0.9913697382944793,0
417,262.5722222222222,0.5555555555555429,0.5333333333333599,0.625,0.8888888888888686,0.016545343566403668,0.9531110160445,27.77777777777778,0.909090909061157,0.8533333333333758,0.0,0.9964695117209621,0
418,263.10555555555555,0.5333333333333599,0.5527777777778056,0.625,0.8533333333333758,0.016937809071855374,0.9757193828736453,30.555555555555557,0.9999999999672727,0.8844444444444889,0.0,0.9977569649162842,0
419,263.65833333333336,0.5527777777778056,0.4777777777777601,0.625,0.8844444444444889,0.01745005362122334,1.005227740977658,30.555555555555557,0.9999999999672727,0.7644444444444162,0.0,0.9973274491675633,0
420,264.1361111111111,0.4777777777777601,0.6750000000000114,0.625,0.7644444444444162,0.017373987201948157,1.000845859037808,27.77777777777778,0.909090909061157,1.0800000000000183,0.0,0.9952750401064125,0
421,264.81111111111113,0.6750000000000114,0.6055555555555543,0.625,1.0800000000000183,0.01940078306690674,1.1176014560680216,33.333333333333336,1.0909090908733885,0.9688888888888869,0.0,0.9908515053136633,0
422,265.4166666666667,0.6055555555555543,0.5666666666666629,0.625,0.9688888888888869,0.018365647797496283,1.0579714565813596,30.555555555555557,0.9999999999672727,0.9066666666666606,0.0,0.9944274681268463,0
423,265.98333333333335,0.5666666666666629,0.5666666666666629,0.625,0.9066666666666606,0.01749862645265566,1.0080258273717428,30.555555555555557,0.9999999999672727,0.9066666666666606,0.0,0.994520024446521,0
424,266.55,0.5666666666666629,0.4583333333333144,0.625,0.9066666666666606,0.01724638284025622,0.9934950825286474,27.77777777777778,0.909090909061157,0.733333333333303,0.0,0.9955941471464318,0
425,267.0083333333333,0.4583333333333144,0.6166666666666742,0.625,0.733333333333303,0.016383151738547756,0.943767794054492,30.555555555555557,0.9999999999672727,0.9866666666666788,0.0,0.9962379582674203,0
426,267.625,0.6166666666666742,0.544444444444423,0.625,0.9866666666666788,0.01702365821268053,0.9806648082442349,30.555555555555557,0.9999999999672727,0.8711111111110768,0.0,0.9971351348983153,0
427,268.1694444444444,0.544444444444423,0.5361111111111541,0.625,0.8711111111110768,0.017356496913097496,0.9998383135063138,27.77777777777778,0.909090909061157,0.8577777777778465,0.0,0.9962022357704792,0
428,268.7055555555556,0.5361111111111541,0.533333333333303,0.625,0.8577777777778465,0.01658779840066711,0.9555566691104779,33.333333333333336,1.0909090908733885,0.8533333333332849,0.0,0.9976433553414639,0
429,269.2388888888889,0.533333333333303,0.5611111111111313,0.625,0.8533333333332849,0.017416009711414226,1.0032666076026957,33.333333333333336,1.0909090908733885,0.8977777777778101,0.0,0.9945928959831527,0
430,269.8,0.5611111111111313,0.5888888888889028,0.625,0.8977777777778101,0.017624544072364814,1.015279437426876,33.333333333333336,1.0909090908733885,0.9422222222222445,0.0,0.9968778827854344,0
431,270.3888888888889,0.5888888888889028,0.5666666666666629,0.625,0.9422222222222445,0.018645736231948398,1.074106230167146,33.333333333333336,1.0909090908733885,0.9066666666666606,0.0,0.995821245791586,0
432,270.9555555555556,0.5666666666666629,0.5805555555555202,0.625,0.9066666666666606,0.02211394142571363,1.2738956490337678,33.333333333333336,1.0909090908733885,0.9288888888888323,0.0,0.9897375600412026,0
433,271.5361111111111,0.5805555555555202,0.5444444444444798,0.625,0.9288888888888323,0.017987322961101743,1.0361776770950841,33.333333333333336,1.0909090908733885,0.8711111111111677,0.0,0.9968714285767735,0
434,272.0805555555556,0.5444444444444798,0.5555555555555429,0.625,0.8711111111111677,0.01993533072383198,1.1483946069247233,30.555555555555557,0.9999999999672727,0.8888888888888686,0.0,0.9904511778058775,0
435,272.6361111111111,0.5555555555555429,0.5555555555555429,0.625,0.8888888888888686,0.017022353820052818,0.9805896674061054,30.555555555555557,0.9999999999672727,0.8888888888888686,0.0,0.9944380349535584,0
436,273.19166666666666,0.5555555555555429,0.5666666666666629,0.625,0.8888888888888686,0.020789781083737836,1.1976160720107139,36.111111111111114,1.1818181817795042,0.9066666666666606,0.0,0.9877816381335395,0
437,273.7583333333333,0.5666666666666629,0.5388888888888914,0.625,0.9066666666666606,0.017429978408341307,1.004071288319512,30.555555555555557,0.9999999999672727,0.8622222222222262,0.0,0.9937541361957131,0
438,274.2972222222222,0.5388888888888914,0.5388888888888914,0.625,0.8622222222222262,0.015865311649035645,0.9139370992803039,30.555555555555557,0.9999999999672727,0.8622222222222262,0.0,0.9971756696476707,0
439,274.8361111111111,0.5388888888888914,0.5027777777777942,0.625,0.8622222222222262,0.021164303951589733,1.219190835307564,30.555555555555557,0.9999999999672727,0.8044444444444707,0.0,0.9863357229080258,0
440,275.3388888888889,0.5027777777777942,0.5638888888888687,0.625,0.8044444444444707,0.016096117872326836,0.9272329219453075,30.555555555555557,0.9999999999672727,0.9022222222221898,0.0,0.9984943489287678,0
441,275.90277777777777,0.5638888888888687,0.5749999999999886,0.625,0.9022222222221898,0.015764858964115093,0.9081504221886637,30.555555555555557,0.9999999999672727,0.9199999999999818,0.0,0.9985392329693894,0
442,276.47777777777776,0.5749999999999886,0.5722222222222513,0.625,0.9199999999999818,0.016321053737071902,0.9401905767520259,30.555555555555557,0.9999999999672727,0.9155555555556021,0.0,0.9963440666935546,0
443,277.05,0.5722222222222513,0.5666666666666629,0.625,0.9155555555556021,0.017493859116493017,1.0077512002178513,27.77777777777778,0.909090909061157,0.9066666666666606,0.0,0.9984450269373522,0
444,277.6166666666667,0.5666666666666629,0.5611111111111313,0.625,0.9066666666666606,0.016727293073133802,0.9635923988294722,30.555555555555557,0.9999999999672727,0.8977777777778101,0.0,0.9963927558848038,0
445,278.1777777777778,0.5611111111111313,0.5666666666666629,0.625,0.8977777777778101,0.017098181604328723,0.9849578025388424,30.555555555555557,0.9999999999672727,0.9066666666666606,0.0,0.9962355394379594,0
446,278.74444444444447,0.5666666666666629,0.5638888888888687,0.625,0.9066666666666606,0.016232616833362173,0.935096080719815,30.555555555555557,0.9999999999672727,0.9022222222221898,0.0,0.9966619539811368,0
447,279.30833333333334,0.5638888888888687,0.5194444444444457,0.625,0.9022222222221898,0.020610386003560896,1.1872818395147493,44.44444444444444,1.454545454497851,0.8311111111111131,0.0,0.975941897990934,0
448,279.8277777777778,0.5194444444444457,0.5277777777777715,0.625,0.8311111111111131,0.020043502161971254,1.1546259304930815,33.333333333333336,1.0909090908733885,0.8444444444444343,0.0,0.9885958387447549,0
449,280.35555555555555,0.5277777777777715,0.5277777777777715,0.625,0.8444444444444343,0.016575014058275946,0.9548202143178045,27.77777777777778,0.909090909061157,0.8444444444444343,0.0,0.9970802410270914,0
450,280.8833333333333,0.5277777777777715,0.5250000000000341,0.625,0.8444444444444343,0.015522413001443181,0.8941840807288628,27.77777777777778,0.909090909061157,0.8400000000000546,0.0,0.9965153524202552,0
451,281.40833333333336,0.5250000000000341,0.5666666666666629,0.625,0.8400000000000546,0.015926663681899454,0.9174713443169533,27.77777777777778,0.909090909061157,0.9066666666666606,0.0,0.9950319366747868,0
452,281.975,0.5666666666666629,0.5583333333333371,0.625,0.9066666666666606,0.016229821032248976,0.9349350258085668,30.555555555555557,0.9999999999672727,0.8933333333333394,0.0,0.9954751966533242,0
453,282.53333333333336,0.5583333333333371,0.5638888888888687,0.625,0.8933333333333394,0.016726271951249694,0.9635335760850209,27.77777777777778,0.909090909061157,0.9022222222221898,0.0,0.9955588458533526,0
454,283.09722222222223,0.5638888888888687,0.5500000000000114,0.625,0.9022222222221898,0.02087618984748713,1.202593735017934,33.333333333333336,1.0909090908733885,0.8800000000000182,0.0,0.9868663950371686,0
455,283.64722222222224,0.5500000000000114,0.5472222222222172,0.625,0.8800000000000182,0.01801141385608886,1.0375654571255464,25.0,0.8181818181550413,0.8755555555555474,0.0,0.9646947169769524,0
456,284.19444444444446,0.5472222222222172,0.5305555555555657,0.625,0.8755555555555474,0.015799208618160022,0.9101291682652346,30.555555555555557,0.9999999999672727,0.848888888888905,0.0,0.9950747389139114,0
457,284.725,0.5305555555555657,0.5472222222222172,0.625,0.848888888888905,0.017243440075171222,0.9933255616112433,30.555555555555557,0.9999999999672727,0.8755555555555474,0.0,0.9980390609975971,0
458,285.27222222222224,0.5472222222222172,0.5222222222221831,0.625,0.8755555555555474,0.016187106511343155,0.9324744132345815,27.77777777777778,0.909090909061157,0.8355555555554929,0.0,0.9941532546117797,0
459,285.7944444444444,0.5222222222221831,0.5333333333333599,0.625,0.8355555555554929,0.02032977889233772,1.1711171870363137,30.555555555555557,0.9999999999672727,0.8533333333333758,0.0,0.9874539190624958,0
460,286.3277777777778,0.5333333333333599,0.533333333333303,0.625,0.8533333333333758,0.02097575687333217,1.208329392835303,30.555555555555557,0.9999999999672727,0.8533333333332849,0.0,0.9853501057713222,0
461,286.8611111111111,0.533333333333303,0.5166666666667084,0.625,0.8533333333332849,0.016758247753613183,0.9653755740681504,30.555555555555557,0.9999999999672727,0.8266666666667334,0.0,0.9976547850268364,0
462,287.3777777777778,0.5166666666667084,0.544444444444423,0.625,0.8266666666667334,0.015991684691581853,0.9212169444221375,27.77777777777778,0.909090909061157,0.8711111111110768,0.0,0.9981804807861765,0
463,287.9222222222222,0.544444444444423,0.5361111111110972,0.625,0.8711111111110768,0.017969530933015558,1.0351527495740172,33.333333333333336,1.0909090908733885,0.8577777777777555,0.0,0.9940458881581076,0
464,288.4583333333333,0.5361111111110972,0.5722222222222513,0.625,0.8577777777777555,0.017943160242099344,1.0336336396255248,27.77777777777778,0.909090909061157,0.9155555555556021,0.0,0.9919324935231844,0
465,289.03055555555557,0.5722222222222513,0.5694444444444571,0.625,0.9155555555556021,0.018450962016652007,1.062886067255729,33.333333333333336,1.0909090908733885,0.9111111111111313,0.0,0.9963563169621334,0
466,289.6,0.5694444444444571,0.5638888888888687,0.625,0.9111111111111313,0.018189171350037846,1.0478053548337611,33.333333333333336,1.0909090908733885,0.9022222222221898,0.0,0.9967953216763366,0
467,290.1638888888889,0.5638888888888687,0.5555555555555429,0.625,0.9022222222221898,0.018801422427518234,1.08307468872155,30.555555555555557,0.9999999999672727,0.8888888888888686,0.0,0.9873537487628162,0
468,290.71944444444443,0.5555555555555429,0.5416666666666856,0.625,0.8888888888888686,0.015885014172772882,0.9150720828085982,30.555555555555557,0.9999999999672727,0.866666666666697,0.0,0.9930755767964479,0
469,291.2611111111111,0.5416666666666856,0.533333333333303,0.625,0.866666666666697,0.016077193493690616,0.9261427642415652,27.77777777777778,0.909090909061157,0.8533333333332849,0.0,0.9973846757191948,0
470,291.7944444444444,0.533333333333303,0.5222222222222399,0.625,0.8533333333332849,0.015339566755429596,0.8836510403831911,25.0,0.8181818181550413,0.8355555555555838,0.0,0.9896359071696672,0
471,292.31666666666666,0.5222222222222399,0.5333333333333599,0.625,0.8355555555555838,0.016495441845566637,0.950236377651017,30.555555555555557,0.9999999999672727,0.8533333333333758,0.0,0.9952697336940746,0
472,292.85,0.5333333333333599,0.5166666666666515,0.625,0.8533333333333758,0.015646623634282375,0.9013393581030532,30.555555555555557,0.9999999999672727,0.8266666666666425,0.0,0.9976476962102712,0
473,293.3666666666667,0.5166666666666515,0.544444444444423,0.625,0.8266666666666425,0.015909508620936576,0.916483109922242,27.77777777777778,0.909090909061157,0.8711111111110768,0.0,0.9963654032797897,0
474,293.9111111111111,0.544444444444423,0.591666666666697,0.625,0.8711111111110768,0.015740860700200764,0.9067679782635261,27.77777777777778,0.909090909061157,0.9466666666667152,0.0,0.9969329950347987,0
475,294.5027777777778,0.591666666666697,0.544444444444423,0.625,0.9466666666667152,0.020542889363971355,1.1833936282799336,108.33333333333333,3.545454545338512,0.8711111111110768,0.0,0.9430493219670621,0
476,295.0472222222222,0.544444444444423,0.580555555555577,0.625,0.8711111111110768,0.0181346417774816,1.0446641244268513,30.555555555555557,0.9999999999672727,0.9288888888889233,0.0,0.9839701086483132,0
477,295.6277777777778,0.580555555555577,0.5361111111110972,0.625,0.9288888888889233,0.018141397004391227,1.045053266009654,27.77777777777778,0.909090909061157,0.8577777777777555,0.0,0.9915800918976965,0
478,296.1638888888889,0.5361111111110972,0.5472222222222172,0.625,0.8577777777777555,0.020166020604668405,1.161683727566597,30.555555555555557,0.9999999999672727,0.8755555555555474,0.0,0.9887429255821131,0
479,296.7111111111111,0.5472222222222172,0.5333333333333599,0.625,0.8755555555555474,0.01652766323935401,0.9520925231730365,33.333333333333336,1.0909090908733885,0.8533333333333758,0.0,0.9982050554955875,0
480,297.24444444444447,0.5333333333333599,0.5555555555555429,0.625,0.8533333333333758,0.01604918111768857,0.9245290833865272,27.77777777777778,0.909090909061157,0.8888888888888686,0.0,0.9958952387931834,0
481,297.8,0.5555555555555429,0.3722222222222058,0.625,0.8888888888888686,0.020717142922177977,1.193431678275397,30.555555555555557,0.9999999999672727,0.5955555555555293,0.0,0.9458024916963015,0
482,298.1722222222222,0.3722222222222058,0.5694444444444571,0.625,0.5955555555555293,0.018478719720923003,1.0644850774917276,33.333333333333336,1.0909090908733885,0.9111111111111313,0.0,0.9756641942353981,0
483,298.7416666666667,0.5694444444444571,0.5527777777777487,0.625,0.9111111111111313,0.0187160959684471,1.0781593729546473,30.555555555555557,0.9999999999672727,0.884444444444398,0.0,0.9967945811615034,0
484,299.2944444444444,0.5527777777777487,0.5472222222222172,0.625,0.884444444444398,0.02010463117893721,1.1581473284765318,30.555555555555557,0.9999999999672727,0.8755555555555474,0.0,0.9759969788226056,0
485,299.84166666666664,0.5472222222222172,0.5555555555555998,0.625,0.8755555555555474,0.018035023578186277,1.0389255187118462,33.333333333333336,1.0909090908733885,0.8888888888889597,0.0,0.9964852997484515,0
486,300.39722222222224,0.5555555555555998,0.5555555555555429,0.625,0.8888888888889597,0.017205070449680622,0.9911152410706139,25.0,0.8181818181550413,0.8888888888888686,0.0,0.9916899336680871,0
487,300.9527777777778,0.5555555555555429,0.5416666666666856,0.625,0.8888888888888686,0.018029795879706777,1.038624371927594,33.333333333333336,1.0909090908733885,0.866666666666697,0.0,0.9937565525646379,0
488,301.49444444444447,0.5416666666666856,0.5666666666666629,0.625,0.866666666666697,0.02032350622827397,1.1707558439674852,36.111111111111114,1.1818181817795042,0.9066666666666606,0.0,0.9899983556370675,0
489,302.06111111111113,0.5666666666666629,0.533333333333303,0.625,0.9066666666666606,0.01738368295149696,1.001404392359687,27.77777777777778,0.909090909061157,0.8533333333332849,0.0,0.9947858245820658,0
490,302.59444444444443,0.533333333333303,0.5500000000000114,0.625,0.8533333333332849,0.018272964294424262,1.052632330957948,30.555555555555557,0.9999999999672727,0.8800000000000182,0.0,0.9910428919408918,0
491,303.14444444444445,0.5500000000000114,0.5277777777777715,0.625,0.8800000000000182,0.016909083849212837,0.9740646377769931,30.555555555555557,0.9999999999672727,0.8444444444444343,0.0,0.9986415021947277,0
492,303.6722222222222,0.5277777777777715,0.5361111111110972,0.625,0.8444444444444343,0.020912202799480552,1.2046682970315579,33.333333333333336,1.0909090908733885,0.8577777777777555,0.0,0.9867536166197973,0
493,304.2083333333333,0.5361111111110972,0.5222222222222399,0.625,0.8577777777777555,0.01686594840703259,0.9715797776132293,30.555555555555557,0.9999999999672727,0.8355555555555838,0.0,0.9963902087258694,0
494,304.73055555555555,0.5222222222222399,0.4972222222222058,0.625,0.8355555555555838,0.016300785579504398,0.9390230093228586,27.77777777777778,0.909090909061157,0.7955555555555293,0.0,0.9911400224045919,0
495,305.22777777777776,0.4972222222222058,0.38611111111111995,0.625,0.7955555555555293,0.017223690820699168,0.9921878861123674,27.77777777777778,0.909090909061157,0.617777777777792,0.0,0.9931240772735793,0
496,305.6138888888889,0.38611111111111995,0.5861111111111086,0.625,0.617777777777792,0.019787273286473367,1.1398656105948823,33.333333333333336,1.0909090908733885,0.9377777777777737,0.0,0.9870295797989724,0
497,306.2,0.5861111111111086,0.591666666666697,0.625,0.9377777777777737,0.0179524329073554,1.0341678007547979,33.333333333333336,1.0909090908733885,0.9466666666667152,0.0,0.9932571568424953,0
498,306.7916666666667,0.591666666666697,0.5916666666666401,0.625,0.9466666666667152,0.017415978573255806,1.0032648138580271,30.555555555555557,0.9999999999672727,0.9466666666666242,0.0,0.9921537119688206,0
499,307.3833333333333,0.5916666666666401,0.5444444444444798,0.625,0.9466666666666242,0.017602607233664063,1.01401574395693,27.77777777777778,0.909090909061157,0.8711111111111677,0.0,0.9965008496174256,0
500,307.9277777777778,0.5444444444444798,0.533333333333303,0.625,0.8711111111111677,0.016892261585060315,0.9730955744744253,30.555555555555557,0.9999999999672727,0.8533333333332849,0.0,0.9989695262331304,0
501,308.4611111111111,0.533333333333303,0.5305555555555657,0.625,0.8533333333332849,0.01754457258663764,1.010672600239718,27.77777777777778,0.909090909061157,0.848888888888905,0.0,0.9952132138408887,0
502,308.9916666666667,0.5305555555555657,0.533333333333303,0.625,0.848888888888905,0.017635498975876646,1.015910505568491,27.77777777777778,0.909090909061157,0.8533333333332849,0.0,0.9943854384975053,0
503,309.525,0.533333333333303,0.5305555555555657,0.625,0.8533333333332849,0.01732357491921648,0.9979418092172241,30.555555555555557,0.9999999999672727,0.848888888888905,0.0,0.9968174760090973,0
504,310.05555555555554,0.5305555555555657,0.5222222222222399,0.625,0.848888888888905,0.01701858023970472,0.980372286546937,30.555555555555557,0.9999999999672727,0.8355555555555838,0.0,0.9946060158096239,0
505,310.5777777777778,0.5222222222222399,0.5083333333333258,0.625,0.8355555555555838,0.01612725148004912,0.929026404466249,30.555555555555557,0.9999999999672727,0.8133333333333213,0.0,0.9988957497071387,0
506,311.0861111111111,0.5083333333333258,0.5388888888888914,0.625,0.8133333333333213,0.017172228758650147,0.9892233627073119,30.555555555555557,0.9999999999672727,0.8622222222222262,0.0,0.9952397681017355,0
507,311.625,0.5388888888888914,0.5722222222221944,0.625,0.8622222222222262,0.020891524970950315,1.2034771300980365,33.333333333333336,1.0909090908733885,0.915555555555511,0.0,0.987077119810851,0
508,312.1972222222222,0.5722222222221944,0.4166666666666856,0.625,0.915555555555511,0.019499618480760105,1.1232949686470075,33.333333333333336,1.0909090908733885,0.6666666666666969,0.0,0.9941776095870134,0
509,312.6138888888889,0.4166666666666856,0.580555555555577,0.625,0.6666666666666969,0.021381911094335838,1.2317263117749386,36.111111111111114,1.1818181817795042,0.9288888888889233,1.0,0.9769845373563455,1
510,313.19444444444446,0.580555555555577,0.5944444444444343,0.625,0.9288888888889233,0.018940897476015593,1.091109287982221,33.333333333333336,1.0909090908733885,0.9511111111110949,0.0,0.991109612363607,0
511,313.7888888888889,0.5944444444444343,0.5166666666666515,0.625,0.9511111111110949,0.02095924808238344,1.2073783874692519,30.555555555555557,0.9999999999672727,0.8266666666666425,0.0,0.9476712704277671,0
512,314.30555555555554,0.5166666666666515,0.5500000000000114,0.625,0.8266666666666425,0.017121833067042437,0.9863202686349699,30.555555555555557,0.9999999999672727,0.8800000000000182,0.0,0.9948315983330047,0
513,314.85555555555555,0.5500000000000114,0.5500000000000114,0.625,0.8800000000000182,0.02057679630086022,1.1853468711932282,30.555555555555557,0.9999999999672727,0.8800000000000182,0.0,0.9812478538098719,0
514,315.40555555555557,0.5500000000000114,0.5305555555555657,0.625,0.8800000000000182,0.017137749523857444,0.9872371520025407,30.555555555555557,0.9999999999672727,0.848888888888905,0.0,0.9969796018835546,0
515,315.93611111111113,0.5305555555555657,0.5361111111110972,0.625,0.848888888888905,0.019610604095182036,1.1296884056465755,30.555555555555557,0.9999999999672727,0.8577777777777555,0.0,0.98940165560758,0
516,316.47222222222223,0.5361111111110972,0.5083333333333258,0.625,0.8577777777777555,0.017097984544013536,0.9849464506828669,30.555555555555557,0.9999999999672727,0.8133333333333213,0.0,0.9963909238841167,0
517,316.98055555555555,0.5083333333333258,0.5166666666666515,0.625,0.8133333333333213,0.01887455839847322,1.0872877592635153,27.77777777777778,0.909090909061157,0.8266666666666425,0.0,0.9758555161929273,0
518,317.4972222222222,0.5166666666666515,0.5472222222222172,0.625,0.8266666666666425,0.016918294777639703,0.9745952424946535,30.555555555555557,0.9999999999672727,0.8755555555555474,0.0,0.9931902513802184,0
519,318.0444444444444,0.5472222222222172,0.5694444444444571,0.625,0.8755555555555474,0.017974973717108284,1.0354662865795141,36.111111111111114,1.1818181817795042,0.9111111111111313,0.0,0.9927522167707397,0
520,318.6138888888889,0.5694444444444571,0.5583333333333371,0.625,0.9111111111111313,0.021629645988696912,1.2459973274190992,30.555555555555557,0.9999999999672727,0.8933333333333394,0.0,0.9868156918613271,0
521,319.1722222222222,0.5583333333333371,0.5722222222222513,0.625,0.8933333333333394,0.018655863464154886,1.0746896194778186,30.555555555555557,0.9999999999672727,0.9155555555556021,0.0,0.9941136435640443,0
522,319.74444444444447,0.5722222222222513,0.5499999999999545,0.625,0.9155555555556021,0.017837519408268835,1.0275480940420267,33.333333333333336,1.0909090908733885,0.8799999999999273,0.0,0.995825550306524,0
523,320.2944444444444,0.5499999999999545,0.5611111111111313,0.625,0.8799999999999273,0.02142886205458214,1.2344309686619364,33.333333333333336,1.0909090908733885,0.8977777777778101,0.0,0.987776832016727,0
524,320.85555555555555,0.5611111111111313,0.5472222222222172,0.625,0.8977777777778101,0.02042432711033232,1.1765637314224342,30.555555555555557,0.9999999999672727,0.8755555555555474,0.0,0.987857056074911,0
525,321.40277777777777,0.5472222222222172,0.544444444444423,0.625,0.8755555555555474,0.01622380923093613,0.9345887099986504,27.77777777777778,0.909090909061157,0.8711111111110768,0.0,0.9970382501115189,0
526,321.9472222222222,0.544444444444423,0.5277777777778283,0.625,0.8711111111110768,0.015578270608819582,0.897401813905975,30.555555555555557,0.9999999999672727,0.8444444444445253,0.0,0.9942915996135857,0
527,322.475,0.5277777777778283,0.5305555555555088,0.625,0.8444444444445253,0.01629186948375534,0.9385093887356264,27.77777777777778,0.909090909061157,0.8488888888888141,0.0,0.9963926277524274,0
528,323.00555555555553,0.5305555555555088,0.5666666666666629,0.625,0.8488888888888141,0.018416860557008974,1.060921618665192,38.888888888888886,1.2727272726856196,0.9066666666666606,0.0,0.9674149887843077,0
529,323.5722222222222,0.5666666666666629,0.5750000000000455,0.625,0.9066666666666606,0.017344170032610587,0.9991282112628407,30.555555555555557,0.9999999999672727,0.9200000000000728,0.0,0.9971041290105616,0
530,324.14722222222224,0.5750000000000455,0.5833333333333144,0.625,0.9200000000000728,0.01767521516314853,1.0181983961433947,33.333333333333336,1.0909090908733885,0.933333333333303,0.0,0.9971496692685962,0
531,324.73055555555555,0.5833333333333144,0.5722222222222513,0.625,0.933333333333303,0.018061223341289227,1.0404347821931972,30.555555555555557,0.9999999999672727,0.9155555555556021,0.0,0.9933560614623971,0
532,325.3027777777778,0.5722222222222513,0.5805555555555202,0.625,0.9155555555556021,0.015533363302898659,0.8948148837644321,33.333333333333336,1.0909090908733885,0.9288888888888323,0.0,0.9976569055169179,0
533,325.8833333333333,0.5805555555555202,0.5555555555555429,0.625,0.9288888888888323,0.019656594569801164,1.1323377328011721,30.555555555555557,0.9999999999672727,0.8888888888888686,0.0,0.984076146501905,0
534,326.43888888888887,0.5555555555555429,0.5694444444444571,0.625,0.8888888888888686,0.015753642639197655,0.9075042946062754,27.77777777777778,0.909090909061157,0.9111111111111313,0.0,0.9971582126214686,0
535,327.0083333333333,0.5694444444444571,0.5527777777778056,0.625,0.9111111111111313,0.016019479562539917,0.9228180956822092,30.555555555555557,0.9999999999672727,0.8844444444444889,0.0,0.9976736102473516,0
536,327.56111111111113,0.5527777777778056,0.46944444444443434,0.625,0.8844444444444889,0.015445638165325425,0.8897613897303253,30.555555555555557,0.9999999999672727,0.751111111111095,0.0,0.9985178756763138,0
537,328.03055555555557,0.46944444444443434,0.6416666666666515,0.625,0.751111111111095,0.01493569076647761,0.8603853612728675,25.0,0.8181818181550413,1.0266666666666424,0.0,0.9769582703971443,0
538,328.6722222222222,0.6416666666666515,0.5416666666666856,0.625,1.0266666666666424,0.020060126747325872,1.1555836063113603,33.333333333333336,1.0909090908733885,0.866666666666697,0.0,0.985469254401186,0
539,329.2138888888889,0.5416666666666856,0.5638888888888687,0.625,0.866666666666697,0.016889174262243536,0.9729177261647213,27.77777777777778,0.909090909061157,0.9022222222221898,0.0,0.9935340127734061,0
540,329.77777777777777,0.5638888888888687,0.5749999999999886,0.625,0.9022222222221898,0.016173219320934632,0.9316744277820492,27.77777777777778,0.909090909061157,0.9199999999999818,0.0,0.9976198818533469,0
541,330.35277777777776,0.5749999999999886,0.5888888888889028,0.625,0.9199999999999818,0.01968397599179407,1.1339150669212925,30.555555555555557,0.9999999999672727,0.9422222222222445,0.0,0.9879923521851812,0
542,330.94166666666666,0.5888888888889028,0.5944444444444343,0.625,0.9422222222222445,0.01592406698235378,0.917321758850057,30.555555555555557,0.9999999999672727,0.9511111111110949,0.0,0.998249511879119,0
543,331.5361111111111,0.5944444444444343,0.591666666666697,0.625,0.9511111111110949,0.01689859052633062,0.97346015944786,27.77777777777778,0.909090909061157,0.9466666666667152,0.0,0.992979640600657,0
544,332.1277777777778,0.591666666666697,0.5694444444444002,0.625,0.9466666666667152,0.017808648495055326,1.0258849562947434,30.555555555555557,0.9999999999672727,0.9111111111110404,0.0,0.9943784503020227,0
545,332.6972222222222,0.5694444444444002,0.5722222222222513,0.625,0.9111111111110404,0.017007927908247518,0.97975864837027,27.77777777777778,0.909090909061157,0.9155555555556021,0.0,0.9941483980842127,0
546,333.26944444444445,0.5722222222222513,0.5555555555555429,0.625,0.9155555555556021,0.017253072638466666,0.9938804550259848,30.555555555555557,0.9999999999672727,0.8888888888888686,0.0,0.9958870868488132,0
547,333.825,0.5555555555555429,0.5222222222222399,0.625,0.8888888888888686,0.019317253326991312,1.1127896420998677,108.33333333333333,3.545454545338512,0.8355555555555838,0.0,0.9662282260411117,0
548,334.34722222222223,0.5222222222222399,0.5555555555555429,0.625,0.8355555555555838,0.020095946497209215,1.1576470387247613,30.555555555555557,0.9999999999672727,0.8888888888888686,0.0,0.9882134552447362,0
549,334.90277777777777,0.5555555555555429,0.5416666666666856,0.625,0.8888888888888686,0.02144287230450247,1.2352380430803678,30.555555555555557,0.9999999999672727,0.866666666666697,0.0,0.9770012605971927,0
550,335.44444444444446,0.5416666666666856,0.5833333333333144,0.625,0.866666666666697,0.019436268041646932,1.1196456034254458,30.555555555555557,0.9999999999672727,0.933333333333303,0.0,0.9863525641899966,0
551,336.02777777777777,0.5833333333333144,0.6027777777777601,0.625,0.933333333333303,0.01694565838066927,0.9761715501356205,30.555555555555557,0.9999999999672727,0.9644444444444161,0.0,0.9948046863648421,0
552,336.63055555555553,0.6027777777777601,0.5722222222222513,0.625,0.9644444444444161,0.021441573212319858,1.2351632075796641,30.555555555555557,0.9999999999672727,0.9155555555556021,0.0,0.9400197196974935,0
553,337.2027777777778,0.5722222222222513,0.5694444444444571,0.625,0.9155555555556021,0.01972127236066752,1.136063561444182,30.555555555555557,0.9999999999672727,0.9111111111111313,0.0,0.9889337881665192,0
554,337.77222222222224,0.5694444444444571,0.5527777777777487,0.625,0.9111111111111313,0.01669494109507813,0.9617287308704519,27.77777777777778,0.909090909061157,0.884444444444398,0.0,0.9962364703543252,0
555,338.325,0.5527777777777487,0.5444444444444798,0.625,0.884444444444398,0.02010657369385499,1.1582592289855502,30.555555555555557,0.9999999999672727,0.8711111111111677,0.0,0.9847072097279472,0
556,338.86944444444447,0.5444444444444798,0.544444444444423,0.625,0.8711111111111677,0.018122970386349174,1.0439917823013323,27.77777777777778,0.909090909061157,0.8711111111110768,0.0,0.9925406040176412,0
557,339.4138888888889,0.544444444444423,0.3972222222222399,0.625,0.8711111111110768,0.01789425123647624,1.0308161875819288,30.555555555555557,0.9999999999672727,0.6355555555555839,0.0,0.9925480919974281,0
558,339.81111111111113,0.3972222222222399,0.6611111111110972,0.625,0.6355555555555839,0.01802026617159356,1.0380754035881972,30.555555555555557,0.9999999999672727,1.0577777777777555,0.0,0.9898621411953699,0
559,340.47222222222223,0.6611111111110972,0.533333333333303,0.625,1.0577777777777555,0.01749707226546752,1.0079362968688514,27.77777777777778,0.909090909061157,0.8533333333332849,0.0,0.9868429280772426,0
560,341.00555555555553,0.533333333333303,0.5361111111111541,0.625,0.8533333333332849,0.014099724100961077,0.8122286678351026,22.22222222222222,0.7272727272489256,0.8577777777778465,0.0,0.9588036690955195,0
561,341.5416666666667,0.5361111111111541,0.544444444444423,0.625,0.8577777777778465,0.016769099138438593,0.9660006789125998,27.77777777777778,0.909090909061157,0.8711111111110768,0.0,0.9920585662110681,0
562,342.0861111111111,0.544444444444423,0.5861111111111086,0.625,0.8711111111110768,0.016331569134042146,0.9407963266810132,30.555555555555557,0.9999999999672727,0.9377777777777737,0.0,0.996749072515654,0
563,342.6722222222222,0.5861111111111086,0.5777777777777828,0.625,0.9377777777777737,0.01699615784937187,0.9790806223910058,30.555555555555557,0.9999999999672727,0.9244444444444525,0.0,0.9894410154719536,0
564,343.25,0.5777777777777828,0.5611111111111313,0.625,0.9244444444444525,0.016650754119372665,0.9591832960693223,30.555555555555557,0.9999999999672727,0.8977777777778101,0.0,0.993483284812467,0
565,343.81111111111113,0.5611111111111313,0.5611111111110745,0.625,0.8977777777778101,0.01671382784875806,0.9628167211510655,27.77777777777778,0.909090909061157,0.8977777777777192,0.0,0.9891802698162926,0
566,344.3722222222222,0.5611111111110745,0.4333333333333371,0.625,0.8977777777777192,0.017912188466184864,1.031849479587259,30.555555555555557,0.9999999999672727,0.6933333333333394,0.0,0.9912904104346112,0
567,344.80555555555554,0.4333333333333371,0.6583333333333599,0.625,0.6933333333333394,0.0183161125776534,1.0551179308431389,41.666666666666664,1.3636363635917355,1.0533333333333759,1.0,0.9657836765789224,1
568,345.4638888888889,0.6583333333333599,0.5416666666666288,0.625,1.0533333333333759,0.017207079356918897,0.9912309661754645,30.555555555555557,0.9999999999672727,0.8666666666666061,0.0,0.9920404342379837,0
569,346.00555555555553,0.5416666666666288,0.5444444444444798,0.625,0.8666666666666061,0.015790333501105876,0.909617908296589,27.77777777777778,0.909090909061157,0.8711111111111677,0.0,0.9911492352690593,0
570,346.55,0.5444444444444798,0.5138888888888573,0.625,0.8711111111111677,0.016565172730258582,0.9542532948030655,27.77777777777778,0.909090909061157,0.8222222222221717,0.0,0.9949747983653343,0
571,347.06388888888887,0.5138888888888573,0.4000000000000341,0.625,0.8222222222221717,0.015660436734855652,0.9021350755367397,25.0,0.8181818181550413,0.6400000000000545,0.0,0.9836409679730482,0
572,347.4638888888889,0.4000000000000341,0.6027777777777601,0.625,0.6400000000000545,0.018953821567541027,1.0918537931631394,30.555555555555557,0.9999999999672727,0.9644444444444161,0.0,0.9628416704860836,0
573,348.06666666666666,0.6027777777777601,0.5944444444444343,0.625,0.9644444444444161,0.019831033019838986,1.142386433674956,27.77777777777778,0.909090909061157,0.9511111111110949,0.0,0.9855266127450978,0
574,348.6611111111111,0.5944444444444343,0.5722222222222513,0.625,0.9511111111110949,0.023063137270246555,1.3285750222469674,33.333333333333336,1.0909090908733885,0.9155555555556021,0.0,0.9871350013095408,0
575,349.23333333333335,0.5722222222222513,0.5694444444444571,0.625,0.9155555555556021,0.01949750375266752,1.1231731476263143,33.333333333333336,1.0909090908733885,0.9111111111111313,0.0,0.9866363646801881,0
576,349.8027777777778,0.5694444444444571,0.4111111111110972,0.625,0.9111111111111313,0.019793335995556584,1.1402148589976788,33.333333333333336,1.0909090908733885,0.6577777777777556,0.0,0.9845444044265548,0
577,350.2138888888889,0.4111111111110972,0.5777777777777828,0.625,0.6577777777777556,0.025292366858572602,1.4569920157895035,38.888888888888886,1.2727272726856196,0.9244444444444525,1.0,0.9446020883129083,1
578,350.7916666666667,0.5777777777777828,0.5555555555555429,0.625,0.9244444444444525,0.02026060524151738,1.1671323698971425,27.77777777777778,0.909090909061157,0.8888888888888686,0.0,0.9816273369914575,0
579,351.34722222222223,0.5555555555555429,0.5555555555555429,0.625,0.8888888888888686,0.01908540908208491,1.0994340231645494,27.77777777777778,0.909090909061157,0.8888888888888686,0.0,0.9321411253719321,0
580,351.90277777777777,0.5555555555555429,0.5250000000000341,0.625,0.8888888888888686,0.02069025841910135,1.1918829696650033,25.0,0.8181818181550413,0.8400000000000546,0.0,0.9395673052323432,0
581,352.4277777777778,0.5250000000000341,0.5583333333332803,0.625,0.8400000000000546,0.01837054765276102,1.0582537176302826,30.555555555555557,0.9999999999672727,0.8933333333332485,0.0,0.9707436952166952,0
582,352.9861111111111,0.5583333333332803,0.5166666666667084,0.625,0.8933333333332485,0.0177112942766782,1.0202767694582937,22.22222222222222,0.7272727272489256,0.8266666666667334,0.0,0.949773790930771,0
583,353.5027777777778,0.5166666666667084,0.5749999999999886,0.625,0.8266666666667334,0.017420927241049072,1.0035498868013346,30.555555555555557,0.9999999999672727,0.9199999999999818,0.0,0.9929597556265628,0
584,354.0777777777778,0.5749999999999886,0.5666666666666629,0.625,0.9199999999999818,0.018896398130082162,1.0885458587825971,30.555555555555557,0.9999999999672727,0.9066666666666606,0.0,0.9922776796766115,0
585,354.64444444444445,0.5666666666666629,0.4833333333333485,0.625,0.9066666666666606,0.018002097100964554,1.037028756155444,30.555555555555557,0.9999999999672727,0.7733333333333576,0.0,0.9897286924559743,0
586,355.1277777777778,0.4833333333333485,0.6194444444444116,0.625,0.7733333333333576,0.015043462509140293,0.8665936599846991,30.555555555555557,0.9999999999672727,0.9911111111110585,0.0,0.9904953220392245,0
587,355.7472222222222,0.6194444444444116,0.5555555555555998,0.625,0.9911111111110585,0.01771689897052683,1.0205996334367446,30.555555555555557,0.9999999999672727,0.8888888888889597,0.0,0.9954954844752619,0
588,356.3027777777778,0.5555555555555998,0.5638888888888687,0.625,0.8888888888889597,0.019443798225746708,1.1200793871900159,27.77777777777778,0.909090909061157,0.9022222222221898,0.0,0.9849712673334008,0
589,356.8666666666667,0.5638888888888687,0.5527777777777487,0.625,0.9022222222221898,0.018994681470698806,1.0942075686322246,30.555555555555557,0.9999999999672727,0.884444444444398,0.0,0.9857096896838858,0
590,357.4194444444444,0.5527777777777487,0.37222222222226264,0.625,0.884444444444398,0.016733695352719728,0.9639612085297152,27.77777777777778,0.909090909061157,0.5955555555556202,0.0,0.9900237313907592,0
591,357.7916666666667,0.37222222222226264,0.63611111111112,0.625,0.5955555555556202,0.018512797734517073,1.0664481754492323,30.555555555555557,0.9999999999672727,1.0177777777777919,0.0,0.9818769764459334,0
