beat_index,peak_time_s,rr_prev_s,rr_next_s,rr_baseline_s,prematurity_index,aa_ratio,morph_index,qrs_width_ms,width_index,pause_index,pvc_score,morphology_score,is_pvc_candidate
0,0.16111111111111112,,0.5361111111111111,0.6861111111111313,,0.032550082140386453,0.9866145363660065,58.333333333333336,1.0499999999811,0.7813765182186004,4.849454171562684e-09,0.9992274694909739,0
1,0.6972222222222222,0.5361111111111111,0.6138888888888889,0.6861111111111313,0.7813765182186004,0.032013796454439025,0.9703593622279277,55.55555555555556,0.9999999999820001,0.8947368421052369,8.631939749648154e-07,0.9992688162854645,0
2,1.3111111111111111,0.6138888888888889,0.4222222222222223,0.6861111111111313,0.8947368421052369,0.0331392351151918,1.0044721530251368,55.55555555555556,0.9999999999820001,0.6153846153845973,6.235180194380519e-08,0.9994645988966936,0
3,1.7333333333333334,0.4222222222222223,0.6749999999999998,0.6861111111111313,0.6153846153845973,0.047468555866572136,1.438803350365552,94.44444444444444,1.6999999999694,0.9838056680161651,0.9931986927986145,0.472423572763652,1
4,2.408333333333333,0.6749999999999998,0.5972222222222223,0.6861111111111313,0.9838056680161651,0.0327547306374724,0.9928175677807853,58.333333333333336,1.0499999999811,0.8704453441295291,3.93897998662851e-08,0.9990191703401732,0
5,3.0055555555555555,0.5972222222222223,0.6000000000000001,0.5972222222222223,1.0,0.032441266682490304,0.9833162678062335,58.333333333333336,1.0499999999811,1.0046511627906975,1.2489969776652288e-05,0.997445417771416,0
6,3.6055555555555556,0.6000000000000001,0.8027777777777776,0.5986111111111112,1.0023201856148491,0.033009141854775506,1.0005289401860298,58.333333333333336,1.0499999999811,1.34106728538283,0.0002886246074922383,0.9981516770905415,0
7,4.408333333333333,0.8027777777777776,0.6416666666666666,0.6000000000000001,1.3379629629629624,0.03319883004785045,1.0062785148831865,55.55555555555556,0.9999999999820001,1.0694444444444442,5.979354256169245e-08,0.9994104445514715,0
8,5.05,0.6416666666666666,0.5861111111111112,0.6069444444444445,1.0572082379862697,0.03029976986459674,0.9184060816812699,52.77777777777778,0.9499999999829001,0.9656750572082381,1.2563565299217316e-08,0.9979312102014466,0
9,5.636111111111111,0.5861111111111112,0.6138888888888889,0.6000000000000001,0.976851851851852,0.030789727494205426,0.933257021764631,52.77777777777778,0.9499999999829001,1.0231481481481481,2.4081768401629233e-07,0.9985050375787937,0
10,6.25,0.6138888888888889,0.7166666666666668,0.6069444444444445,1.0114416475972539,0.03078745554677716,0.9331881575341533,50.0,0.8999999999838,1.1807780320366132,5.586744578067737e-07,0.9983026399893986,0
11,6.966666666666667,0.7166666666666668,0.6722222222222225,0.6138888888888889,1.167420814479638,0.03441077246395117,1.0430132917665886,61.111111111111114,1.0999999999802001,1.0950226244343895,3.643188392743468e-05,0.9975843427004483,0
12,7.638888888888889,0.6722222222222225,0.6583333333333332,0.6277777777777778,1.0707964601769917,0.03419412013893492,1.036446416381248,61.111111111111114,1.0999999999802001,1.0486725663716812,8.779824383964296e-06,0.9994010183066997,0
13,8.297222222222222,0.6583333333333332,0.7222222222222214,0.6499999999999999,1.0128205128205128,0.03386921859097812,1.0265984353924604,58.333333333333336,1.0499999999811,1.11111111111111,4.199516297376249e-06,0.9983866424226248,0
14,9.019444444444444,0.7222222222222214,0.6027777777777779,0.6499999999999999,1.11111111111111,0.03401501475359456,1.0310176135918692,61.111111111111114,1.0999999999802001,0.9273504273504276,7.85683369031176e-07,0.9992552117362623,0
15,9.622222222222222,0.6027777777777779,0.5861111111111121,0.6499999999999999,0.9273504273504276,0.03406582351648043,1.0325576608280567,58.333333333333336,1.0499999999811,0.9017094017094034,4.141907083976548e-06,0.9975312331831881,0
16,10.208333333333334,0.5861111111111121,0.46111111111111036,0.6499999999999999,0.9017094017094034,0.03316487681148649,1.0052493698134792,55.55555555555556,0.9999999999820001,0.7094017094017083,2.8561396447912557e-07,0.9989273136517798,0
17,10.669444444444444,0.46111111111111036,0.8638888888888889,0.6277777777777778,0.734513274336282,0.04348829247459606,1.318158932199348,94.44444444444444,1.6999999999694,1.3761061946902655,0.9963364601135254,0.25919181924321866,1
18,11.533333333333333,0.8638888888888889,0.6361111111111111,0.6361111111111111,1.3580786026200875,0.03196722444491392,0.9689477337906455,55.55555555555556,0.9999999999820001,1.0,3.010197369146539e-10,0.9989306531943687,0
19,12.169444444444444,0.6361111111111111,0.594444444444445,0.6472222222222221,0.9828326180257512,0.031720198431196354,0.9614602117947515,55.55555555555556,0.9999999999820001,0.9184549356223186,8.80941470882135e-08,0.9972665487654931,0
20,12.76388888888889,0.594444444444445,0.6416666666666657,0.6472222222222221,0.9184549356223186,0.03309473423250457,1.0031233018133034,52.77777777777778,0.9499999999829001,0.9914163090128741,7.49533455746132e-07,0.9980432774998702,0
21,13.405555555555555,0.6416666666666657,0.8305555555555557,0.6388888888888884,1.0043478260869558,0.035192233181258435,1.0666998834000316,61.111111111111114,1.0999999999802001,1.3000000000000012,0.0005657702567987144,0.9987560537711238,0
22,14.23611111111111,0.8305555555555557,0.6611111111111114,0.6388888888888884,1.3000000000000012,0.03368601545986672,1.0210454272162381,58.333333333333336,1.0499999999811,1.0347826086956535,4.246172125021985e-08,0.9989031412620188,0
23,14.897222222222222,0.6611111111111114,0.7472222222222218,0.6388888888888884,1.0347826086956535,0.03378333081050109,1.0239951199123527,58.333333333333336,1.0499999999811,1.1695652173913045,9.45125884754816e-06,0.9983407659659542,0
24,15.644444444444444,0.7472222222222218,0.5444444444444461,0.6388888888888884,1.1695652173913045,0.0332205308610511,1.0069362808962607,55.55555555555556,0.9999999999820001,0.8521739130434814,1.8059747475263066e-08,0.999654506927945,0
25,16.18888888888889,0.5444444444444461,0.7333333333333307,0.6388888888888884,0.8521739130434814,0.032226754109428386,0.9768142497190481,52.77777777777778,0.9499999999829001,1.1478260869565184,1.866493039415218e-05,0.9971496499202914,0
26,16.92222222222222,0.7333333333333307,0.7583333333333364,0.6513888888888886,1.1257995735607642,0.03237587862129293,0.9813343123873846,58.333333333333336,1.0499999999811,1.1641791044776173,4.252592020748125e-07,0.9978245317151049,0
27,17.680555555555557,0.7583333333333364,1.0416666666666643,0.6972222222222211,1.0876494023904444,0.03408867295488492,1.0332502424313976,58.333333333333336,1.0499999999811,1.4940239043824692,8.98966463864781e-05,0.9990767604969839,0
28,18.72222222222222,1.0416666666666643,0.5777777777777793,0.6972222222222211,1.4940239043824692,0.033773897749152675,1.0237091975786197,58.333333333333336,1.0499999999811,0.8286852589641469,1.4049714083114173e-12,0.9982326788300594,0
29,19.3,0.5777777777777793,0.6638888888888879,0.6972222222222211,0.8286852589641469,0.03418055157257131,1.0360351441529863,58.333333333333336,1.0499999999811,0.952191235059761,7.509532679250697e-06,0.998980416669773,0
30,19.96388888888889,0.6638888888888879,0.6333333333333329,0.6986111111111093,0.9502982107355875,0.03406230113217771,1.0324508950281812,58.333333333333336,1.0499999999811,0.9065606361829043,2.664914973138366e-07,0.9982693778344404,0
31,20.59722222222222,0.6333333333333329,0.56388888888889,0.6986111111111093,0.9065606361829043,0.03170048498945151,0.960862684326053,55.55555555555556,0.9999999999820001,0.8071570576540792,7.838002247240183e-09,0.9989513741719547,0
32,21.16111111111111,0.56388888888889,0.625,0.6624999999999996,0.8511530398322873,0.03440115780484865,1.0427218650847192,61.111111111111114,1.0999999999802001,0.9433962264150948,1.9681034245877527e-05,0.9994542871115324,0
33,21.78611111111111,0.625,0.75,0.6486111111111104,0.9635974304068534,0.03311569700239364,1.0037586972450523,58.333333333333336,1.0499999999811,1.156316916488224,4.754136625706451e-06,0.9989018011192834,0
34,22.53611111111111,0.75,0.7972222222222207,0.6486111111111104,1.156316916488224,0.021546097261072514,0.6530764705307609,44.44444444444444,0.7999999999856,1.2291220556745173,0.307508647441864,0.5003511425477594,0
35,23.333333333333332,0.7972222222222207,0.7472222222222236,0.6986111111111093,1.1411530815109352,0.03253321616195494,0.9861033173952278,55.55555555555556,0.9999999999820001,1.0695825049701837,1.3622536432222887e-09,0.9989429840722392,0
36,24.080555555555556,0.7472222222222236,0.5777777777777793,0.7055555555555557,1.059055118110238,0.03200113695466195,0.969975644409665,55.55555555555556,0.9999999999820001,0.8188976377952776,1.2040662911161348e-09,0.998447404203517,0
37,24.658333333333335,0.5777777777777793,0.6277777777777764,0.6486111111111104,0.8907922912205601,0.03347673199961532,1.0147019069997771,55.55555555555556,0.9999999999820001,0.967880085653104,1.5252705907187192e-06,0.9990138320165977,0
38,25.28611111111111,0.6277777777777764,0.8694444444444436,0.6305555555555546,0.995594713656387,0.034553514177844705,1.0473398876032987,58.333333333333336,1.0499999999811,1.3788546255506613,0.0008595227845944464,0.9982288953886684,0
39,26.155555555555555,0.8694444444444436,0.7277777777777779,0.6486111111111104,1.340471092077088,0.034241775086470125,1.0378908693864726,58.333333333333336,1.0499999999811,1.1220556745182027,4.564549271890428e-08,0.998885760892682,0
40,26.883333333333333,0.7277777777777779,0.6166666666666671,0.6805555555555554,1.0693877551020412,0.03641996222408508,1.1039131633895336,63.888888888888886,1.1499999999793,0.9061224489795928,3.3698961487971246e-05,0.9965965002568723,0
41,27.5,0.6166666666666671,0.966666666666665,0.6777777777777771,0.9098360655737721,0.03344932677825643,1.013871236599365,55.55555555555556,0.9999999999820001,1.4262295081967202,0.00040700024692341685,0.9995435669697901,0
42,28.466666666666665,0.966666666666665,0.6972222222222229,0.7375000000000007,1.3107344632768327,0.03409511154523151,1.03344540036686,58.333333333333336,1.0499999999811,0.9453860640301318,2.8442614583013004e-11,0.9975584693598354,0
43,29.163888888888888,0.6972222222222229,0.6972222222222229,0.7375000000000007,0.9453860640301318,0.03128683781321164,0.9483247645983901,52.77777777777778,0.9499999999829001,0.9453860640301318,4.5930156900020336e-10,0.9994421241131415,0
44,29.86111111111111,0.6972222222222229,0.56111111111111,0.7125000000000004,0.9785575048732947,0.031299713746733335,0.9487150426667217,52.77777777777778,0.9499999999829001,0.787524366471733,3.0311633758550727e-10,0.9989306612977935,0
45,30.42222222222222,0.56111111111111,0.34166666666666856,0.6972222222222229,0.8047808764940216,0.031652701275689664,0.9594143283312615,52.77777777777778,0.9499999999829001,0.4900398406374525,1.5472856773612875e-08,0.9978626615918396,0
46,30.76388888888889,0.34166666666666856,0.9777777777777779,0.6624999999999996,0.5157232704402547,0.05021809465535178,1.522143691124519,83.33333333333333,1.499999999973,1.4758909853249484,0.9929023385047913,0.2116298238007958,1
47,31.741666666666667,0.9777777777777779,0.6777777777777771,0.6972222222222229,1.4023904382470107,0.034269817081185046,1.0387408408088217,58.333333333333336,1.0499999999811,0.9721115537848588,7.34359101306481e-11,0.9976836902521713,0
48,32.419444444444444,0.6777777777777771,0.7027777777777757,0.6972222222222229,0.9721115537848588,0.03227500570686048,0.978276787577603,55.55555555555556,0.9999999999820001,1.007968127490036,1.721013198618948e-08,0.9988180230967285,0
49,33.12222222222222,0.7027777777777757,0.6777777777777771,0.6972222222222229,1.007968127490036,0.033742477882533296,1.0227568406228473,55.55555555555556,0.9999999999820001,0.9721115537848588,4.251756280382324e-08,0.9988912761077392,0
50,33.8,0.6777777777777771,0.5777777777777828,0.6875,0.985858585858585,0.034473874206731724,1.044925947360784,58.333333333333336,1.0499999999811,0.8404040404040477,2.925951605448063e-07,0.9992276750271353,0
51,34.37777777777778,0.5777777777777828,0.36388888888888715,0.6875,0.8404040404040477,0.03297647335200689,0.9995387362420329,55.55555555555556,0.9999999999820001,0.5292929292929268,3.155951446842664e-07,0.9970626278137122,0
52,34.74166666666667,0.36388888888888715,0.7861111111111114,0.6777777777777771,0.5368852459016373,0.041890097117619436,1.2697165729959168,77.77777777777777,1.3999999999747998,1.159836065573772,0.9906628131866455,0.27932674407448377,1
53,35.52777777777778,0.7861111111111114,0.62777777777778,0.6777777777777771,1.159836065573772,0.03160227713640828,0.9578859392911296,58.333333333333336,1.0499999999811,0.9262295081967254,1.462541754371216e-09,0.9981845126460056,0
54,36.15555555555556,0.62777777777778,0.5138888888888857,0.6527777777777786,0.9617021276595767,0.03263559223368053,0.9892064038975871,55.55555555555556,0.9999999999820001,0.7872340425531857,1.48686154943789e-07,0.9978391575428438,0
55,36.669444444444444,0.5138888888888857,0.6972222222222229,0.6527777777777786,0.7872340425531857,0.032150318169597715,0.9744974257856249,58.333333333333336,1.0499999999811,1.0680851063829784,4.8763573431642726e-05,0.9980953583615199,0
56,37.36666666666667,0.6972222222222229,0.7555555555555529,0.6777777777777771,1.0286885245901658,0.03410239660453357,1.0336662153366871,58.333333333333336,1.0499999999811,1.1147540983606528,1.3192241112847114e-06,0.997650984207086,0
57,38.12222222222222,0.7555555555555529,0.7055555555555557,0.6777777777777771,1.1147540983606528,0.03360126519264524,1.0184765905158886,55.55555555555556,0.9999999999820001,1.0409836065573783,2.7827486093201514e-08,0.9993654404113382,0
58,38.827777777777776,0.7055555555555557,0.6111111111111143,0.6875,1.0262626262626264,0.0329561382850372,0.9989223669012817,58.333333333333336,1.0499999999811,0.8888888888888935,3.529727266027294e-08,0.9990379862052696,0
59,39.43888888888889,0.6111111111111143,0.6999999999999957,0.6527777777777786,0.9361702127659611,0.03264179740858421,0.9893944868564644,55.55555555555556,0.9999999999820001,1.0723404255319071,6.650468549196376e-07,0.9989068373771977,0
60,40.138888888888886,0.6999999999999957,0.6055555555555614,0.6625000000000014,1.056603773584897,0.03281585042107562,0.9946701488803477,58.333333333333336,1.0499999999811,0.9140461215932982,8.115117822171669e-08,0.9988526924110905,0
61,40.74444444444445,0.6055555555555614,0.7944444444444443,0.6625000000000014,0.9140461215932982,0.03094567499607656,0.9379838937765799,52.77777777777778,0.9499999999829001,1.199161425576517,1.0762124702523579e-06,0.9982566546596624,0
62,41.53888888888889,0.7944444444444443,0.6416666666666657,0.6986111111111093,1.137176938369784,0.03457947688815588,1.0481268345389771,58.333333333333336,1.0499999999811,0.9184890656063629,4.807809617091152e-08,0.9987203207755129,0
63,42.18055555555556,0.6416666666666657,0.6361111111111128,0.6694444444444443,0.9585062240663889,0.030694344353346118,0.9303658956258347,52.77777777777778,0.9499999999829001,0.9502074688796709,2.8431255127969735e-09,0.998692322768886,0
64,42.81666666666667,0.6361111111111128,0.6333333333333329,0.6694444444444443,0.9502074688796709,0.03335860797456711,1.0111214896077723,55.55555555555556,0.9999999999820001,0.9460580912863066,1.5932205599256122e-07,0.9988765558104432,0
65,43.45,0.6333333333333329,0.6444444444444386,0.6694444444444443,0.9460580912863066,0.034138694452838486,1.0347664271463528,58.333333333333336,1.0499999999811,0.9626556016597425,1.7628565274208086e-06,0.9980533890164739,0
66,44.09444444444444,0.6444444444444386,0.7000000000000028,0.6430555555555522,1.002159827213819,0.035054957817389126,1.062538976251034,58.333333333333336,1.0499999999811,1.0885529157667488,2.9632616133312695e-05,0.997887997957788,0
67,44.794444444444444,0.7000000000000028,0.62777777777778,0.6430555555555522,1.0885529157667488,0.033689874283119876,1.0211623907034089,58.333333333333336,1.0499999999811,0.9762419006479568,7.596767659379111e-07,0.999023900288041,0
68,45.422222222222224,0.62777777777778,0.7055555555555557,0.6388888888888893,0.9826086956521768,0.03461535813115282,1.049214418765984,58.333333333333336,1.0499999999811,1.1043478260869561,2.314095399924554e-05,0.998300972068054,0
69,46.12777777777778,0.7055555555555557,0.6638888888888843,0.6430555555555522,1.0971922246220362,0.03379611393544706,1.024382584891319,58.333333333333336,1.0499999999811,1.0323974082073417,1.0069320524053182e-06,0.9988875674943877,0
70,46.791666666666664,0.6638888888888843,0.4194444444444443,0.6430555555555522,1.0323974082073417,0.032986618036781705,0.9998462283528828,58.333333333333336,1.0499999999811,0.6522678185745172,3.569370790046378e-07,0.9974845332695326,0
71,47.21111111111111,0.4194444444444443,0.7305555555555614,0.6430555555555522,0.6522678185745172,0.04671075875946742,1.4158340184215943,100.0,1.7999999999676,1.1360691144708575,0.9793670773506165,0.949904386397849,1
72,47.94166666666667,0.7305555555555614,0.7305555555555543,0.6430555555555522,1.1360691144708575,0.0325238355073926,0.9858189835458718,55.55555555555556,0.9999999999820001,1.1360691144708464,2.2487216710942448e-07,0.9981448466669751,0
73,48.672222222222224,0.7305555555555543,0.7361111111111072,0.6541666666666615,1.1167728237792,0.033735407217070766,1.0225425240722155,58.333333333333336,1.0499999999811,1.1252653927813192,7.218154109978059e-07,0.9990775619292724,0
74,49.40833333333333,0.7361111111111072,0.7416666666666671,0.6819444444444436,1.0794297352342115,0.03471993118678633,1.052384097304897,58.333333333333336,1.0499999999811,1.0875763747454197,4.703344131939957e-07,0.9988836387607505,0
75,50.15,0.7416666666666671,0.56666666666667,0.7027777777777793,1.055335968379445,0.033923143120486846,1.028232923577484,58.333333333333336,1.0499999999811,0.8063241106719398,7.954606218163462e-08,0.9980175855810404,0
76,50.71666666666667,0.56666666666667,0.7111111111111086,0.7027777777777793,0.8063241106719398,0.032258955992423115,0.977790310108817,52.77777777777778,0.9499999999829001,1.0118577075098756,9.738248536450556e-07,0.9994243043198557,0
77,51.42777777777778,0.7111111111111086,0.6499999999999986,0.7083333333333321,1.0039215686274492,0.03263390377116064,0.9891552254809229,55.55555555555556,0.9999999999820001,0.9176470588235289,6.2789649035721595e-09,0.999233415238973,0
78,52.077777777777776,0.6499999999999986,0.6361111111111128,0.7083333333333321,0.9176470588235289,0.033959227121929815,1.029326653547207,55.55555555555556,0.9999999999820001,0.8980392156862784,8.461708489448938e-08,0.9995128274014655,0
79,52.71388888888889,0.6361111111111128,0.3388888888888886,0.6874999999999964,0.9252525252525325,0.03291236423670017,0.9975955465197345,55.55555555555556,0.9999999999820001,0.492929292929295,2.720895331265183e-08,0.9983251141374203,0
80,53.05277777777778,0.3388888888888886,0.7138888888888886,0.6805555555555536,0.49795918367347036,0.045909152024417935,1.391536787654627,75.0,1.3499999999757,1.0489795918367373,0.99196857213974,0.4453787194683965,1
81,53.766666666666666,0.7138888888888886,0.5555555555555571,0.7124999999999986,1.001949317738793,0.031130739542469102,0.9435933226821468,52.77777777777778,0.9499999999829001,0.7797270955165729,1.2237316715513202e-10,0.9991813180793356,0
82,54.32222222222222,0.5555555555555571,0.5888888888888886,0.6805555555555536,0.8163265306122496,0.02936996313356779,0.8902230241735316,50.0,0.8999999999838,0.8653061224489816,3.5644731610773306e-09,0.9969486630786317,0
83,54.91111111111111,0.5888888888888886,0.7388888888888872,0.6430555555555557,0.9157667386609064,0.03261214638699576,0.9884957447644754,55.55555555555556,0.9999999999820001,1.1490280777537767,2.92392587653012e-06,0.9996436682688388,0
84,55.65,0.7388888888888872,0.6694444444444443,0.6430555555555557,1.1490280777537767,0.03403038426035096,1.0314834735155782,58.333333333333336,1.0499999999811,1.0410367170626345,1.3721985396841774e-06,0.9976569858818971,0
85,56.31944444444444,0.6694444444444443,0.6555555555555586,0.6430555555555557,1.0410367170626345,0.03287864425152924,0.9965734714480894,55.55555555555556,0.9999999999820001,1.0194384449244105,1.8062405615637545e-07,0.9997582096212763,0
86,56.975,0.6555555555555586,0.5055555555555529,0.6527777777777786,1.0042553191489396,0.0348072110688814,1.0550296083065562,61.111111111111114,1.0999999999802001,0.7744680851063779,4.2700280573626515e-06,0.9986226593489519,0
87,57.480555555555554,0.5055555555555529,0.9833333333333343,0.6430555555555557,0.7861771058315291,0.03270726991614321,0.9913790019004339,52.77777777777778,0.9499999999829001,1.52915766738661,0.006761413533240557,0.998247790608272,0
88,58.46388888888889,0.9833333333333343,0.5555555555555571,0.6458333333333357,1.5225806451612862,0.033150104869186674,1.00480162246401,58.333333333333336,1.0499999999811,0.8602150537634401,3.526519007368556e-11,0.9981654290282405,0
89,59.019444444444446,0.5555555555555571,0.5472222222222243,0.6222222222222236,0.8928571428571435,0.030492556939329722,0.9242495855328022,52.77777777777778,0.9499999999829001,0.8794642857142871,4.095039685125812e-08,0.9977413897383713,0
90,59.56666666666667,0.5472222222222243,0.5416666666666643,0.6222222222222236,0.8794642857142871,0.03117409942972084,0.9449075895670428,55.55555555555556,0.9999999999820001,0.8705357142857086,1.0312044196325587e-07,0.9990045280223443,0
91,60.108333333333334,0.5416666666666643,0.55833333333333,0.5722222222222229,0.9466019417475676,0.033153240851182764,1.0048966761541906,55.55555555555556,0.9999999999820001,0.975728155339799,2.764540840871632e-05,0.9993896730901304,0
92,60.666666666666664,0.55833333333333,0.6750000000000043,0.5736111111111093,0.9733656174334113,0.03138634585530692,0.9513409192241478,55.55555555555556,0.9999999999820001,1.1767554479418998,1.7455584384151734e-05,0.9988610851604574,0
93,61.34166666666667,0.6750000000000043,0.7611111111111057,0.6069444444444443,1.1121281464530965,0.033121617416458755,1.003938148914414,55.55555555555556,0.9999999999820001,1.2540045766590304,2.762738222372718e-05,0.9979965626364065,0
94,62.102777777777774,0.7611111111111057,0.7277777777777814,0.6069444444444443,1.2540045766590304,0.032995144168931345,1.0001046610622546,55.55555555555556,0.9999999999820001,1.199084668192226,6.454023377955309e-07,0.9995500336454262,0
95,62.830555555555556,0.7277777777777814,0.7138888888888886,0.6069444444444443,1.199084668192226,0.03420748613942182,1.0368515487036971,61.111111111111114,1.0999999999802001,1.1762013729977114,3.2053991162683815e-05,0.9985715084410095,0
96,63.544444444444444,0.7138888888888886,0.8583333333333272,0.6166666666666671,1.1576576576576563,0.03169684974463952,0.9607524976494332,55.55555555555556,0.9999999999820001,1.3918918918918808,2.0915189452352934e-05,0.9968555977230837,0
97,64.40277777777777,0.8583333333333272,0.7055555555555628,0.6944444444444464,1.2359999999999876,0.03518082731700942,1.0663541641044745,58.333333333333336,1.0499999999811,1.0160000000000076,1.7190743051287427e-08,0.9983474927885962,0
98,65.10833333333333,0.7055555555555628,0.7000000000000028,0.6902777777777835,1.0221327967806861,0.03128242894298192,0.9481911288232534,52.77777777777778,0.9499999999829001,1.014084507042249,5.677619441257775e-08,0.9907598524240824,0
99,65.80833333333334,0.7000000000000028,0.6888888888888829,0.7027777777777828,0.9960474308300364,0.03006296309158824,0.9112283116359456,55.55555555555556,0.9999999999820001,0.9802371541501821,1.5676092646188522e-09,0.9958000795069379,0
100,66.49722222222222,0.6888888888888829,0.7083333333333286,0.7027777777777828,0.9802371541501821,0.03201255690536034,0.970321790674827,55.55555555555556,0.9999999999820001,1.007905138339907,1.2729129750255197e-08,0.9980000844502621,0
101,67.20555555555555,0.7083333333333286,0.6611111111111114,0.7069444444444457,1.0019646365422312,0.03257615794913374,0.9874049113901496,55.55555555555556,0.9999999999820001,0.9351669941060892,7.0234480453734704e-09,0.9989332941610117,0
102,67.86666666666666,0.6611111111111114,0.7444444444444542,0.7069444444444457,0.9351669941060892,0.033082436808193776,1.0027505587421013,55.55555555555556,0.9999999999820001,1.0530451866404835,6.601219837421013e-08,0.9996530490928943,0
103,68.61111111111111,0.7444444444444542,0.74444444444444,0.7111111111111086,1.0468750000000175,0.03356551473781369,1.0173929705647506,58.333333333333336,1.0499999999811,1.0468749999999976,4.870536329804054e-08,0.9978321821990692,0
104,69.35555555555555,0.74444444444444,0.625,0.7111111111111086,1.0468749999999976,0.033144304296672984,1.004625803271402,55.55555555555556,0.9999999999820001,0.8789062500000031,1.0442933628951323e-08,0.9978026938530653,0
105,69.98055555555555,0.625,0.5499999999999972,0.7069444444444457,0.884086444007857,0.032399165597781714,0.982040156059691,55.55555555555556,0.9999999999820001,0.7779960707269101,2.2873768656950233e-08,0.99903685006969,0
106,70.53055555555555,0.5499999999999972,0.375,0.7027777777777828,0.7826086956521643,0.03297449835941809,0.9994788729093103,52.77777777777778,0.9499999999829001,0.5335968379446602,2.019982474621429e-07,0.9986556739856427,0
107,70.90555555555555,0.375,0.8916666666666657,0.6944444444444429,0.5400000000000013,0.04746891668727942,1.438814287080037,88.88888888888889,1.5999999999712,1.2840000000000016,0.990902841091156,0.4966391793842807,1
108,71.79722222222222,0.8916666666666657,0.7111111111111228,0.6944444444444429,1.2840000000000016,0.03356540918885166,1.0173897713058428,58.333333333333336,1.0499999999811,1.0240000000000191,6.357170345694385e-10,0.9988991425833103,0
109,72.50833333333334,0.7111111111111228,0.5722222222222086,0.6986111111111057,1.0178926441352134,0.03242164427894528,0.982721499765635,52.77777777777778,0.9499999999829001,0.8190854870775216,1.481948008752454e-09,0.9991114042074852,0
110,73.08055555555555,0.5722222222222086,0.5722222222222229,0.68472222222222,0.8356997971602262,0.03262897465305247,0.9890058206482097,55.55555555555556,0.9999999999820001,0.835699797160247,1.350331757521417e-07,0.9996431995932771,0
111,73.65277777777777,0.5722222222222229,0.7361111111111143,0.6430555555555557,0.8898488120950332,0.03357803571844466,1.0177724897760014,61.111111111111114,1.0999999999802001,1.1447084233261386,4.5765955292154104e-05,0.998593010240706,0
112,74.38888888888889,0.7361111111111143,0.9194444444444514,0.6680555555555614,1.101871101871097,0.03422374237465628,1.0373442859545505,61.111111111111114,1.0999999999802001,1.3762993762993747,4.161594551987946e-05,0.9990710030100357,0
113,75.30833333333334,0.9194444444444514,0.7083333333333286,0.6680555555555614,1.3762993762993747,0.03317979574419629,1.005701572539576,58.333333333333336,1.0499999999811,1.060291060291044,8.692867536908011e-10,0.9979472041804651,0
114,76.01666666666667,0.7083333333333286,0.5944444444444485,0.6666666666666643,1.0624999999999967,0.033071374635359266,1.0024152569608262,58.333333333333336,1.0499999999811,0.891666666666676,7.732326423592895e-08,0.999045045666211,0
115,76.61111111111111,0.5944444444444485,0.6861111111111029,0.6513888888888886,0.9125799573560835,0.03189327012277159,0.9667061293320753,52.77777777777778,0.9499999999829001,1.0533049040511606,1.965768632317122e-07,0.9995087431287322,0
116,77.29722222222222,0.6861111111111029,0.75555555555556,0.6972222222222157,0.9840637450199177,0.0339492164496308,1.0290232234432088,58.333333333333336,1.0499999999811,1.0836653386454347,5.14788439431868e-07,0.998104203400058,0
117,78.05277777777778,0.75555555555556,0.6500000000000057,0.7097222222222257,1.0645792563600793,0.0326617738206835,0.9899999851306804,52.77777777777778,0.9499999999829001,0.9158512720156591,1.2782745972828025e-09,0.9977637158102834,0
118,78.70277777777778,0.6500000000000057,0.7972222222222172,0.6972222222222157,0.9322709163346782,0.03280177413970602,0.9942434874741699,55.55555555555556,0.9999999999820001,1.1434262948207206,3.966173380831606e-07,0.9996831986383716,0
119,79.5,0.7972222222222172,0.74166666666666,0.6972222222222157,1.1434262948207206,0.03383548506348253,1.0255759498439907,55.55555555555556,0.9999999999820001,1.0637450199203191,5.757222254487715e-09,0.999613332364609,0
120,80.24166666666666,0.74166666666666,0.6888888888888971,0.7222222222222214,1.0269230769230688,0.03483899218023636,1.0559929148293918,61.111111111111114,1.0999999999802001,0.9538461538461662,1.5310752132791094e-07,0.9986201146150943,0
121,80.93055555555556,0.6888888888888971,0.7749999999999915,0.7222222222222214,0.9538461538461662,0.03565911595875712,1.0808514094414239,58.333333333333336,1.0499999999811,1.0730769230769124,3.5947321066487348e-06,0.9973547880061233,0
122,81.70555555555555,0.7749999999999915,0.6888888888888971,0.7249999999999943,1.068965517241376,0.03377326928227777,1.0236901483316245,58.333333333333336,1.0499999999811,0.9501915708812448,1.0044863607561183e-08,0.999148504695157,0
123,82.39444444444445,0.6888888888888971,0.6861111111111029,0.6986111111111128,0.9860834990059735,0.032513645787574666,0.9855101263930538,55.55555555555556,0.9999999999820001,0.9821073558647969,1.5140251719003572e-08,0.9986118154085075,0
124,83.08055555555555,0.6861111111111029,0.8222222222222229,0.6888888888888971,0.9959677419354601,0.03217786605323985,0.9753324203742784,55.55555555555556,0.9999999999820001,1.193548387096761,7.597767535116873e-07,0.9973338167317244,0
125,83.90277777777777,0.8222222222222229,0.6750000000000114,0.7152777777777786,1.1495145631067958,0.03336099107051056,1.0111937228233208,58.333333333333336,1.0499999999811,0.9436893203883644,3.008287396966125e-09,0.9981799939209219,0
126,84.57777777777778,0.6750000000000114,0.6555555555555515,0.7152777777777786,0.9436893203883644,0.03253362254327024,0.9861156350819008,52.77777777777778,0.9499999999829001,0.9165048543689253,8.619681857169326e-09,0.9978248088216196,0
127,85.23333333333333,0.6555555555555515,0.75555555555556,0.6888888888888971,0.9516129032257892,0.03415996706657116,1.035411214150104,58.333333333333336,1.0499999999811,1.0967741935483803,1.065735432348447e-06,0.9993042395251199,0
128,85.9888888888889,0.75555555555556,0.5416666666666572,0.7152777777777786,1.0563106796116555,0.03412181161972969,1.0342546972991489,55.55555555555556,0.9999999999820001,0.7572815533980441,9.443261284047821e-09,0.9995672141380575,0
129,86.53055555555555,0.5416666666666572,0.75833333333334,0.6888888888888971,0.786290322580622,0.03410904047061452,1.0338675953155414,55.55555555555556,0.9999999999820001,1.1008064516128997,9.913363464875147e-05,0.9994385099221352,0
130,87.28888888888889,0.75833333333334,0.5916666666666686,0.6888888888888971,1.1008064516128997,0.031221486287347302,0.9463439165896701,52.77777777777778,0.9499999999829001,0.858870967741928,8.398297335343585e-11,0.9986592799745431,0
131,87.88055555555556,0.5916666666666686,0.7749999999999915,0.6875,0.8606060606060634,0.03228808787246824,0.9786733166769794,52.77777777777778,0.9499999999829001,1.1272727272727148,2.9533125598391052e-06,0.9976322733937254,0
132,88.65555555555555,0.7749999999999915,0.6555555555555657,0.6875,1.1272727272727148,0.03305399054214063,1.0018883335878812,58.333333333333336,1.0499999999811,0.9535353535353682,1.814589545290346e-08,0.9977461558289231,0
133,89.31111111111112,0.6555555555555657,0.5249999999999915,0.6805555555555571,0.9632653061224616,0.033071369074408156,1.002415088404717,52.77777777777778,0.9499999999829001,0.7714285714285571,2.3700589935060634e-08,0.9983664285664675,0
134,89.83611111111111,0.5249999999999915,0.5888888888888886,0.6652777777777885,0.7891440501043586,0.03180165523240639,0.9639292213601677,52.77777777777778,0.9499999999829001,0.8851774530271251,3.5279813914712577e-07,0.9991343902168272,0
135,90.425,0.5888888888888886,0.7027777777777828,0.6555555555555586,0.8983050847457581,0.03258437278545269,0.9876539085168293,55.55555555555556,0.9999999999820001,1.0720338983050874,9.657287591835484e-07,0.9992268099065206,0
136,91.12777777777778,0.7027777777777828,0.7694444444444457,0.6555555555555586,1.0720338983050874,0.03595459246285526,1.0898074978727994,61.111111111111114,1.0999999999802001,1.1737288135593187,6.087280416977592e-05,0.9983199180212503,0
137,91.89722222222223,0.7694444444444457,0.7083333333333286,0.6791666666666742,1.1329243353783123,0.035019320335791096,1.061458780593387,58.333333333333336,1.0499999999811,1.042944785276055,3.9897778947306506e-07,0.9979576051188986,0
138,92.60555555555555,0.7083333333333286,0.74444444444444,0.6791666666666742,1.042944785276055,0.031062014040176708,0.9415102072144718,52.77777777777778,0.9499999999829001,1.096114519427384,6.384440975892858e-09,0.9983817388257705,0
139,93.35,0.74444444444444,0.7361111111111143,0.7055555555555557,1.055118110236214,0.032588987908700524,0.9877937959574753,55.55555555555556,0.9999999999820001,1.0433070866141774,8.906149595588886e-09,0.9979062677723028,0
140,94.08611111111111,0.7361111111111143,0.7222222222222285,0.7055555555555557,1.0433070866141774,0.032138729176320234,0.974146155727992,52.77777777777778,0.9499999999829001,1.023622047244103,2.120732700561234e-09,0.9978265055047987,0
141,94.80833333333334,0.7222222222222285,0.6916666666666629,0.7152777777777786,1.0097087378640854,0.03305092588810478,1.0017954418953914,55.55555555555556,0.9999999999820001,0.9669902912621295,8.315358179800114e-09,0.9988213258227925,0
142,95.5,0.6916666666666629,0.62777777777778,0.7055555555555557,0.9803149606299156,0.03207973780860372,0.9723580883228714,52.77777777777778,0.9499999999829001,0.889763779527562,1.6041934447486028e-09,0.9993555485241166,0
143,96.12777777777778,0.62777777777778,0.5416666666666714,0.7055555555555557,0.889763779527562,0.031568183569880365,0.9568525407212604,52.77777777777778,0.9499999999829001,0.7677165354330774,5.261985069893171e-09,0.9978815190303831,0
144,96.66944444444445,0.5416666666666714,0.75,0.7055555555555557,0.7677165354330774,0.031304043621980505,0.9488462840516462,52.77777777777778,0.9499999999829001,1.0629921259842516,5.537135621125344e-06,0.998925602469069,0
145,97.41944444444445,0.75,0.8305555555555486,0.7152777777777786,1.0485436893203872,0.03365251378666858,1.0200299693250012,61.111111111111114,1.0999999999802001,1.1611650485436784,2.6338099701206374e-07,0.9987093575903556,0
146,98.25,0.8305555555555486,0.9027777777777715,0.7291666666666714,1.1390476190476022,0.048219138134691815,1.461553995763974,108.33333333333333,1.9499999999649,1.2380952380952215,0.9948862195014954,0.513504681618584,1
147,99.15277777777777,0.9027777777777715,0.6111111111111143,0.7291666666666714,1.2380952380952215,0.03213533508861321,0.9740432786828586,55.55555555555556,0.9999999999820001,0.838095238095237,4.9651016804930226e-12,0.9978374994886887,0
148,99.76388888888889,0.6111111111111143,0.7000000000000028,0.7291666666666714,0.838095238095237,0.03267861430095968,0.9905104312354924,55.55555555555556,0.9999999999820001,0.9599999999999976,2.1477515588230744e-07,0.9992919465793029,0
149,100.46388888888889,0.7000000000000028,0.7027777777777828,0.7111111111111157,0.9843749999999977,0.03229594724104297,0.9789115393410283,55.55555555555556,0.9999999999820001,0.9882812500000008,5.414953818672075e-09,0.9994451011000316,0
150,101.16666666666667,0.7027777777777828,0.62222222222222,0.7013888888888928,1.0019801980198035,0.03354515238668127,1.0167757742229662,55.55555555555556,0.9999999999820001,0.887128712871279,2.3354383316132044e-08,0.9996336366385206,0
151,101.78888888888889,0.62222222222222,0.6805555555555571,0.6958333333333329,0.8942115768463048,0.032812230944825965,0.9945604401592901,58.333333333333336,1.0499999999811,0.9780439121756517,2.775114182895777e-07,0.9985705834292264,0
152,102.46944444444445,0.6805555555555571,0.6444444444444457,0.69027777777778,0.9859154929577456,0.0336249495977505,1.0191944805126405,58.333333333333336,1.0499999999811,0.9336016096579465,8.835159803766146e-08,0.9993506183629286,0
153,103.1138888888889,0.6444444444444457,0.5777777777777686,0.69027777777778,0.9336016096579465,0.032397054078015346,0.9819761544978411,55.55555555555556,0.9999999999820001,0.8370221327967647,1.8223866860012095e-08,0.9991049469211908,0
154,103.69166666666666,0.5777777777777686,0.7833333333333314,0.69027777777778,0.8370221327967647,0.03476969355732159,1.0538924276962724,58.333333333333336,1.0499999999811,1.134808853118706,0.00020330229017417878,0.9976657596099308,0
155,104.475,0.7833333333333314,0.7333333333333343,0.69027777777778,1.134808853118706,0.03535853649978759,1.07174064706997,61.111111111111114,1.0999999999802001,1.062374245472835,6.006180797157867e-07,0.9977037260375661,0
156,105.20833333333333,0.7333333333333343,0.7194444444444485,0.69027777777778,1.062374245472835,0.03218838741193013,0.9756513297208471,52.77777777777778,0.9499999999829001,1.0422535211267632,5.511148426506907e-09,0.9973184081508715,0
157,105.92777777777778,0.7194444444444485,0.6555555555555515,0.69027777777778,1.0422535211267632,0.03246740056811319,0.9841084031789205,55.55555555555556,0.9999999999820001,0.9496981891347999,1.0169629582890138e-08,0.9983696118087072,0
158,106.58333333333333,0.6555555555555515,0.6472222222222257,0.69027777777778,0.9496981891347999,0.030659986541510517,0.9293244876057709,50.0,0.8999999999838,0.937625754527165,3.2513494674368815e-10,0.9987801038648365,0
159,107.23055555555555,0.6472222222222257,0.6888888888888971,0.6680555555555543,0.9688149688149759,0.03112641085929493,0.943462117429744,50.0,0.8999999999838,1.0311850311850455,9.09326480780237e-09,0.9975933172199565,0
160,107.91944444444445,0.6888888888888971,0.5999999999999943,0.6680555555555543,1.0311850311850455,0.03285894927584233,0.9959765036978306,55.55555555555556,0.9999999999820001,0.8981288981288913,7.099264109911019e-08,0.9976328744309662,0
161,108.51944444444445,0.5999999999999943,0.7611111111111057,0.6680555555555543,0.8981288981288913,0.0331472280719985,1.004714424836926,55.55555555555556,0.9999999999820001,1.1392931392931334,2.5071860818570713e-06,0.9995477819146772,0
162,109.28055555555555,0.7611111111111057,0.6000000000000085,0.6722222222222243,1.1322314049586661,0.03260477795875232,0.9882724028268485,55.55555555555556,0.9999999999820001,0.8925619834710843,6.774407701470864e-09,0.9975860792048717,0
163,109.88055555555556,0.6000000000000085,0.7777777777777715,0.6722222222222243,0.8925619834710843,0.03315493453192435,1.0049480127386086,52.77777777777778,0.9499999999829001,1.1570247933884168,4.981635811418528e-06,0.998327884210525,0
164,110.65833333333333,0.7777777777777715,0.76111111111112,0.7041666666666728,1.1045364891518552,0.03383199657462763,1.025470211437576,55.55555555555556,0.9999999999820001,1.0808678500986224,1.4765316969089781e-08,0.9992575177233796,0
165,111.41944444444445,0.76111111111112,0.6027777777777743,0.7041666666666728,1.0808678500986224,0.034252102202900904,1.0382038911215763,58.333333333333336,1.0499999999811,0.8560157790926898,7.485556352548883e-08,0.9983543853736068,0
166,112.02222222222223,0.6027777777777743,0.5833333333333286,0.6722222222222243,0.8966942148760252,0.03414548649548879,1.0349722984551104,58.333333333333336,1.0499999999811,0.8677685950413127,1.505629938947095e-06,0.9981091740754047,0
167,112.60555555555555,0.5833333333333286,0.6666666666666714,0.6513888888888886,0.8955223880596946,0.031142124150720582,0.943938397694348,50.0,0.8999999999838,1.0234541577825238,5.8975881955802834e-08,0.9991674609754206,0
168,113.27222222222223,0.6666666666666714,0.74444444444444,0.6569444444444485,1.0147991543340389,0.03060749688418524,0.9277334913464487,52.77777777777778,0.9499999999829001,1.1331923890063287,3.213136423596552e-08,0.9989374508547962,0
169,114.01666666666667,0.74444444444444,0.7055555555555628,0.6777777777777843,1.098360655737688,0.03182572832074018,0.9646588926028671,52.77777777777778,0.9499999999829001,1.0409836065573779,3.337621956589487e-09,0.9968976624399671,0
170,114.72222222222223,0.7055555555555628,0.73888888888888,0.6861111111111171,1.0283400809716614,0.0316724394403064,0.9600126051665723,52.77777777777778,0.9499999999829001,1.0769230769230547,1.6026774574129377e-08,0.9970706875379812,0
171,115.46111111111111,0.73888888888888,0.6944444444444429,0.7222222222222214,1.023076923076912,0.03426032563357638,1.0384531487488915,61.111111111111114,1.0999999999802001,0.9615384615384605,1.1105746722250842e-07,0.9979134108707433,0
172,116.15555555555555,0.6944444444444429,0.6472222222222257,0.7000000000000028,0.9920634920634858,0.03426832737572821,1.0386956868503068,58.333333333333336,1.0499999999811,0.9246031746031758,2.1655174009538314e-07,0.997989962929674,0
173,116.80277777777778,0.6472222222222257,0.6666666666666714,0.7000000000000028,0.9246031746031758,0.03282804321208079,0.9950397204467939,55.55555555555556,0.9999999999820001,0.9523809523809553,3.460941400135198e-08,0.9994373345809955,0
174,117.46944444444445,0.6666666666666714,0.5555555555555571,0.6805555555555571,0.9795918367346985,0.03365833811840098,1.0202065086752559,55.55555555555556,0.9999999999820001,0.8163265306122454,8.703045750735328e-08,0.9993118726853841,0
175,118.025,0.5555555555555571,0.5333333333333314,0.6666666666666714,0.8333333333333298,0.0323155278044054,0.9795050391779961,55.55555555555556,0.9999999999820001,0.7999999999999915,1.2608364841071307e-07,0.9996205181439188,0
176,118.55833333333334,0.5333333333333314,0.6611111111111114,0.6666666666666714,0.7999999999999915,0.03185770877170111,0.9656282412411135,55.55555555555556,0.9999999999820001,0.9916666666666601,2.2024121335562086e-06,0.9989256113246279,0
177,119.21944444444445,0.6611111111111114,0.5472222222222172,0.6666666666666714,0.9916666666666601,0.031163122134934808,0.9445748604956026,52.77777777777778,0.9499999999829001,0.8208333333333199,1.0150903451133786e-09,0.9993214010220233,0
178,119.76666666666667,0.5472222222222172,0.6388888888888857,0.6638888888888914,0.8242677824267675,0.0317926858352461,0.9636573529949017,52.77777777777778,0.9499999999829001,0.9623430962343013,4.1751030721570714e-07,0.9982674932039723,0
179,120.40555555555555,0.6388888888888857,0.5666666666666771,0.6541666666666686,0.9766454352441537,0.031433991349374066,0.9527850856884978,52.77777777777778,0.9499999999829001,0.866242038216574,4.8741211067238055e-09,0.9992987588799218,0
180,120.97222222222223,0.5666666666666771,0.6944444444444429,0.6430555555555557,0.8812095032397568,0.034119550397504424,1.0341861581566736,58.333333333333336,1.0499999999811,1.0799136069114443,2.6294826966477558e-05,0.9989584489107067,0
181,121.66666666666667,0.6944444444444429,0.9222222222222172,0.6430555555555557,1.0799136069114443,0.03496959807366177,1.0599516659143453,61.111111111111114,1.0999999999802001,1.4341252699783935,0.0006854188395664096,0.9983604623635741,0
182,122.58888888888889,0.9222222222222172,0.6638888888888914,0.6430555555555557,1.4341252699783935,0.03284967965029225,0.9956955352113326,55.55555555555556,0.9999999999820001,1.032397408207347,1.6456778995088683e-10,0.9976218181726716,0
183,123.25277777777778,0.6638888888888914,0.6527777777777715,0.6499999999999986,1.0213675213675275,0.030167663893069553,0.9144018622360673,52.77777777777778,0.9499999999829001,1.0042735042734967,3.4918783420323507e-09,0.9979405580812775,0
184,123.90555555555555,0.6527777777777715,0.38333333333333997,0.6458333333333286,1.0107526881720406,0.03327168949940883,1.008486933089602,63.888888888888886,1.1499999999793,0.5935483870967888,0.9759056568145752,0.4207940689124885,1
185,124.28888888888889,0.38333333333333997,0.8555555555555543,0.6458333333333286,0.5935483870967888,0.048634960759560086,1.474157854779613,116.66666666666667,2.0999999999622,1.3247311827957067,0.9903572201728821,0.49898343328549927,1
186,125.14444444444445,0.8555555555555543,0.4333333333333371,0.6569444444444414,1.302325581395353,0.03306466690958984,1.002211941352542,55.55555555555556,0.9999999999820001,0.6596194503171335,1.68024344437967e-10,0.9993912705136463,0
187,125.57777777777778,0.4333333333333371,0.8499999999999943,0.6458333333333286,0.6709677419354947,0.03925296613672194,1.1897833873027723,86.11111111111111,1.5499999999721001,1.3161290322580654,0.9967834949493408,0.4140964469927031,1
188,126.42777777777778,0.8499999999999943,0.4361111111111171,0.6583333333333314,1.2911392405063242,0.03065494306570019,0.9291716165154057,52.77777777777778,0.9499999999829001,0.6624472573839773,4.984332174426398e-13,0.9992213140329611,0
189,126.8638888888889,0.4361111111111171,0.86388888888888,0.6583333333333314,0.6624472573839773,0.03814499740739412,1.1562001216913627,94.44444444444444,1.6999999999694,1.3122362869198216,0.9959408044815063,0.38990668187255545,1
190,127.72777777777777,0.86388888888888,0.7055555555555628,0.6791666666666671,1.2719836400817857,0.03554100857483027,1.0772714964528232,63.888888888888886,1.1499999999793,1.0388548057259814,2.3208050947687298e-07,0.9981129000989206,0
191,128.43333333333334,0.7055555555555628,0.5694444444444287,0.6847222222222271,1.030425963488847,0.035634776819799895,1.0801136740282147,61.111111111111114,1.0999999999802001,0.8316430020283686,3.036672296730103e-06,0.9984253124145137,0
192,129.00277777777777,0.5694444444444287,0.625,0.6583333333333314,0.864978902953565,0.03388370685909425,1.0270375843896424,97.22222222222223,1.7499999999685,0.9493670886075977,0.996239423751831,0.5961087850759235,1
193,129.62777777777777,0.625,0.5416666666666856,0.6388888888888857,0.9782608695652222,0.03479958371046722,1.0547984180240542,58.333333333333336,1.0499999999811,0.8478260869565556,9.331907676823903e-06,0.9979150510116768,0
194,130.16944444444445,0.5416666666666856,0.6972222222222229,0.5972222222222143,0.9069767441860902,0.03033942951035265,0.9196081917970339,61.111111111111114,1.0999999999802001,1.1674418604651329,0.99860018491745,0.6022236142586863,1
195,130.86666666666667,0.6972222222222229,0.6805555555555429,0.6611111111111114,1.0546218487394963,0.03370711556823931,1.0216849854683345,58.333333333333336,1.0499999999811,1.0294117647058627,5.937577043368947e-07,0.9982786707902187,0
196,131.54722222222222,0.6805555555555429,0.63055555555556,0.6527777777777715,1.0425531914893524,0.032920529899928504,0.9978430531774871,55.55555555555556,0.9999999999820001,0.9659574468085268,1.1684119982646735e-07,0.9991639750740544,0
197,132.17777777777778,0.63055555555556,0.6750000000000114,0.6555555555555515,0.9618644067796738,0.02978544902166281,0.9028166764746689,72.22222222222223,1.2999999999766,1.0296610169491762,0.9900984168052673,0.5914492598263682,1
198,132.8527777777778,0.6750000000000114,0.7583333333333258,0.6527777777777857,1.0340425531914943,0.03387520186537111,1.0267797923999706,58.333333333333336,1.0499999999811,1.1617021276595487,3.822814505838323e-06,0.9988332738250252,0
199,133.61111111111111,0.7583333333333258,0.5583333333333371,0.6777777777777771,1.1188524590163833,0.03534863620689026,1.0714405626387031,61.111111111111114,1.0999999999802001,0.8237704918032851,1.536509330435365e-06,0.9979932399044513,0
200,134.16944444444445,0.5583333333333371,0.6027777777777601,0.6527777777777857,0.8553191489361657,0.032217976297107806,0.9765481884170942,66.66666666666667,1.1999999999784001,0.9234042553191106,0.9964697360992432,0.5498598434515172,1
201,134.7722222222222,0.6027777777777601,0.88611111111112,0.62777777777778,0.9601769911504109,0.04221456818038238,1.2795515056935165,94.44444444444444,1.6999999999694,1.4115044247787703,0.9980412721633911,0.5256751640181955,1
202,135.65833333333333,0.88611111111112,0.6972222222222229,0.6527777777777857,1.3574468085106355,0.03324419544971265,1.0076535702434863,55.55555555555556,0.9999999999820001,1.0680851063829668,9.277721368938785e-10,0.9990093529113578,0
203,136.35555555555555,0.6972222222222229,0.63055555555556,0.6777777777777771,1.0286885245901658,0.03302315670581361,1.000953739598196,58.333333333333336,1.0499999999811,0.9303278688524664,7.017813175025367e-08,0.998541385170396,0
204,136.98611111111111,0.63055555555556,0.5611111111111029,0.6777777777777771,0.9303278688524664,0.03251756824116335,0.9856290185578148,55.55555555555556,0.9999999999820001,0.8278688524590051,6.664360086006127e-08,0.9976678135594458,0
205,137.54722222222222,0.5611111111111029,0.4416666666666629,0.6527777777777857,0.8595744680850834,0.03325965430726931,1.0081221384490973,55.55555555555556,0.9999999999820001,0.676595744680837,4.341846135957894e-07,0.9985306796123864,0
206,137.98888888888888,0.4416666666666629,0.8888888888888857,0.63055555555556,0.7004405286343504,0.04804166135112406,1.456174556972384,102.77777777777777,1.8499999999667,1.4096916299559323,0.989029049873352,0.9433838892895143,1
207,138.87777777777777,0.8888888888888857,0.8111111111111313,0.6527777777777857,1.3617021276595531,0.03429728502181154,1.0395734122717524,58.333333333333336,1.0499999999811,1.2425531914893777,1.3895257211515855e-07,0.9980091754468239,0
208,139.6888888888889,0.8111111111111313,0.7527777777777658,0.6638888888888914,1.221757322175758,0.035038449609818854,1.062038601551888,58.333333333333336,1.0499999999811,1.133891213389099,8.711164696251217e-07,0.9975218008374043,0
209,140.44166666666666,0.7527777777777658,0.7027777777777828,0.6638888888888914,1.133891213389099,0.033098952287428984,1.0032511538502251,58.333333333333336,1.0499999999811,1.0585774058577442,9.051721150399317e-08,0.9984079410816441,0
210,141.14444444444445,0.7027777777777828,0.6833333333333371,0.7000000000000028,1.003968253968257,0.03425624239104398,1.0383293829648115,58.333333333333336,1.0499999999811,0.9761904761904776,1.752372185137574e-07,0.9983440124676428,0
211,141.82777777777778,0.6833333333333371,0.73888888888888,0.7000000000000028,0.9761904761904776,0.03420207512912227,1.0366875373996722,58.333333333333336,1.0499999999811,1.0555555555555387,9.112712291425851e-07,0.9970898905672598,0
212,142.56666666666666,0.73888888888888,0.5472222222222172,0.7000000000000028,1.0555555555555387,0.0315091826876746,0.9550641849256724,55.55555555555556,0.9999999999820001,0.7817460317460213,4.784432294790975e-10,0.9990665511446213,0
213,143.11388888888888,0.5472222222222172,0.8111111111111313,0.69305555555556,0.789579158316621,0.031839347214499276,0.9650716902878006,52.77777777777778,0.9499999999829001,1.170340681362747,4.9043290346162394e-05,0.9984491548056793,0
214,143.925,0.8111111111111313,0.7555555555555316,0.7208333333333314,1.1252408477842313,0.03306977405134538,1.0023667421998508,52.77777777777778,0.9499999999829001,1.0481695568400464,4.786823715186017e-10,0.9977701356531057,0
215,144.68055555555554,0.7555555555555316,0.7888888888888914,0.7458333333333229,1.0130353817504476,0.034584667189635605,1.048284156012574,58.333333333333336,1.0499999999811,1.0577281191806513,4.732368452664559e-08,0.999142449968121,0
216,145.46944444444443,0.7888888888888914,0.6750000000000114,0.7541666666666487,1.0460405156538037,0.03541844316055361,1.073556457613304,61.111111111111114,1.0999999999802001,0.8950276243094287,6.718718026377246e-08,0.998892234633413,0
217,146.14444444444445,0.6750000000000114,0.8555555555555543,0.7458333333333229,0.9050279329609218,0.03350761614931812,1.0156380260211875,58.333333333333336,1.0499999999811,1.1471135940409827,4.478715709410608e-06,0.997259238080751,0
218,147.0,0.8555555555555543,0.6888888888888971,0.7458333333333229,1.1471135940409827,0.034064939301733155,1.0325308596937564,58.333333333333336,1.0499999999811,0.9236499068901542,9.128240940903254e-10,0.999495754764268,0
219,147.6888888888889,0.6888888888888971,0.7027777777777828,0.7208333333333314,0.955684007707143,0.033173838496291644,1.0055210044121556,58.333333333333336,1.0499999999811,0.9749518304431695,8.668934015076957e-08,0.9972788674442467,0
220,148.39166666666668,0.7027777777777828,0.6805555555555429,0.7208333333333314,0.9749518304431695,0.033047557977711466,1.001693358301965,55.55555555555556,0.9999999999820001,0.9441233140654955,7.3965940039499856e-09,0.9997046946584113,0
221,149.07222222222222,0.6805555555555429,0.8305555555555486,0.7208333333333314,0.9441233140654955,0.03173431078782869,0.9618879666660233,52.77777777777778,0.9499999999829001,1.152215799614637,6.721179346413919e-08,0.9983815795524515,0
222,149.90277777777777,0.8305555555555486,0.7805555555555657,0.7291666666666572,1.1390476190476244,0.03235913867982192,0.9808269136803095,52.77777777777778,0.9499999999829001,1.0704761904762183,6.357433329773343e-11,0.9985445626155295,0
223,150.68333333333334,0.7805555555555657,0.8527777777777601,0.7680555555555486,1.0162748643761526,0.03333771816122173,1.0104883055371567,58.333333333333336,1.0499999999811,1.1103074141048694,1.3344898519562776e-08,0.9992091163192038,0
224,151.5361111111111,0.8527777777777601,0.63611111111112,0.7680555555555486,1.1103074141048694,0.03509607027918108,1.0637851221825494,61.111111111111114,1.0999999999802001,0.8282097649186447,1.4403704895471492e-08,0.9987592654687176,0
225,152.17222222222222,0.63611111111112,0.5999999999999943,0.7416666666666742,0.857677902621726,0.03464523971674968,1.050120149405691,61.111111111111114,1.0999999999802001,0.8089887640449279,1.8040004761132877e-06,0.998798389597537,0
226,152.7722222222222,0.5999999999999943,0.6527777777777999,0.69583333333334,0.86227544910178,0.03298583714849632,0.99982255911204,55.55555555555556,0.9999999999820001,0.9381237524950328,3.639787564679864e-07,0.9981074995010347,0
227,153.425,0.6527777777777999,0.8611111111110858,0.69583333333334,0.9381237524950328,0.030189285000295614,0.9150572123082902,52.77777777777778,0.9499999999829001,1.2375249500997523,3.4629294987098547e-07,0.9974528469523702,0
228,154.2861111111111,0.8611111111110858,0.7027777777777828,0.69583333333334,1.2375249500997523,0.03244065458108415,0.9832977146074294,55.55555555555556,0.9999999999820001,1.0099800399201573,1.7572732158299686e-10,0.9974347481063636,0
229,154.98888888888888,0.7027777777777828,0.7333333333333485,0.7027777777777828,1.0,0.0325630177057511,0.9870066219149717,52.77777777777778,0.9499999999829001,1.0434782608695792,1.4357159017208687e-08,0.9977948176662215,0
230,155.72222222222223,0.7333333333333485,0.6944444444444287,0.7180555555555657,1.0212765957446877,0.03280407449800124,0.9943132128568316,52.77777777777778,0.9499999999829001,0.9671179883945485,2.0028396718885233e-09,0.9983917319470379,0
231,156.41666666666666,0.6944444444444287,0.8027777777777771,0.7180555555555657,0.9671179883945485,0.03203042467471944,0.9708633745917614,52.77777777777778,0.9499999999829001,1.1179883945841227,2.4805478560097072e-08,0.9985435945093283,0
232,157.21944444444443,0.8027777777777771,0.75555555555556,0.7180555555555657,1.1179883945841227,0.03274415952892911,0.9924971504832397,55.55555555555556,0.9999999999820001,1.0522243713732988,6.120269291365332e-10,0.9995745909217588,0
233,157.975,0.75555555555556,0.7138888888889028,0.7180555555555657,1.0522243713732988,0.037490415344131695,1.1363593060499833,63.888888888888886,1.1499999999793,0.9941972920696378,1.3578875950770453e-05,0.9971918963039356,0
234,158.6888888888889,0.7138888888889028,0.6777777777777771,0.7083333333333428,1.0078431372549082,0.0326826991503764,0.9906342457252998,58.333333333333336,1.0499999999811,0.9568627450980255,1.4970227724120377e-08,0.9986916639656862,0
235,159.36666666666667,0.6777777777777771,0.63055555555556,0.7083333333333428,0.9568627450980255,0.031234796622308922,0.9467473616532001,50.0,0.8999999999838,0.8901960784313668,2.057491954587931e-10,0.9988809562742919,0
236,159.99722222222223,0.63055555555556,0.7027777777777544,0.7083333333333428,0.8901960784313668,0.0311323096329254,0.9436409131632064,52.77777777777778,0.9499999999829001,0.9921568627450518,1.834519558485681e-08,0.9976605902757152,0
237,160.7,0.7027777777777544,0.6694444444444514,0.7083333333333428,0.9921568627450518,0.031654504227636646,0.9594689769982476,52.77777777777778,0.9499999999829001,0.9450980392156835,1.5550867260571977e-09,0.9976791490971354,0
238,161.36944444444444,0.6694444444444514,0.7472222222222342,0.7027777777777686,0.9525691699604966,0.033083392740402756,1.0027795336801397,55.55555555555556,0.9999999999820001,1.0632411067193985,7.638045929070358e-08,0.9991822872857834,0
239,162.11666666666667,0.7472222222222342,0.5861111111111086,0.7083333333333286,1.0549019607843377,0.032821697872517694,0.9948473890043069,55.55555555555556,0.9999999999820001,0.8274509803921588,3.150836924703526e-09,0.9991671886690614,0
240,162.70277777777778,0.5861111111111086,0.73888888888888,0.6986111111110915,0.8389662027833201,0.03220351128707039,0.976109744387674,55.55555555555556,0.9999999999820001,1.0576540755467367,8.15531961961824e-07,0.999420978051277,0
241,163.44166666666666,0.73888888888888,0.6333333333333258,0.7083333333333286,1.0431372549019553,0.033013594921247114,1.000663915578514,55.55555555555556,0.9999999999820001,0.8941176470588188,5.7591993396499674e-09,0.9992590568251578,0
242,164.075,0.6333333333333258,0.9277777777777771,0.6902777777777658,0.9175050301810915,0.03339365257077191,1.0121837145166868,58.333333333333336,1.0499999999811,1.3440643863179298,0.00015016694669611752,0.9987808615361968,0
243,165.00277777777777,0.9277777777777771,0.580555555555577,0.6902777777777658,1.3440643863179298,0.03360916030056253,1.0187158964630683,58.333333333333336,1.0499999999811,0.8410462776660417,2.0741154627135217e-10,0.9984237982652984,0
244,165.58333333333334,0.580555555555577,0.75,0.6736111111111143,0.8618556701031206,0.03474117631541817,1.0530280512170478,58.333333333333336,1.0499999999811,1.1134020618556648,4.920190622215159e-05,0.9985274950760861,0
245,166.33333333333334,0.75,0.6638888888888914,0.6861111111111029,1.0931174089068956,0.03395810557249944,1.029292658641557,58.333333333333336,1.0499999999811,0.9676113360324039,9.140828893805519e-08,0.9980972025230921,0
246,166.99722222222223,0.6638888888888914,0.669444444444423,0.6861111111111029,0.9676113360324039,0.034378673109148154,1.0420403390741797,58.333333333333336,1.0499999999811,0.9757085020242718,4.968977123098739e-07,0.9990270894704392,0
247,167.66666666666666,0.669444444444423,0.5722222222222229,0.6694444444444372,0.9999999999999788,0.03208326754826024,0.9724650770683895,55.55555555555556,0.9999999999820001,0.8547717842323753,3.508082002667834e-08,0.9971999008485235,0
248,168.23888888888888,0.5722222222222229,0.5472222222222172,0.6666666666666572,0.8583333333333465,0.03110303088059953,0.9427534547989918,52.77777777777778,0.9499999999829001,0.8208333333333374,1.115914383120753e-08,0.9988968622978676,0
249,168.7861111111111,0.5472222222222172,0.7083333333333428,0.6486111111111086,0.8436830835117728,0.03466737646448028,1.0507911288829372,61.111111111111114,1.0999999999802001,1.0920770877944515,0.00029508539591915905,0.9982383535398903,0
250,169.49444444444444,0.7083333333333428,0.7083333333333428,0.6666666666666572,1.0625000000000293,0.035051342857790525,1.0624294044326597,58.333333333333336,1.0499999999811,1.0625000000000293,2.2250267193157924e-06,0.9984560908921423,0
251,170.20277777777778,0.7083333333333428,0.7055555555555486,0.6666666666666572,1.0625000000000293,0.02896848617779362,0.8780539918843226,52.77777777777778,0.9499999999829001,1.058333333333338,9.518628107940685e-10,0.9950930213623586,0
252,170.90833333333333,0.7055555555555486,0.7361111111111143,0.6874999999999858,1.0262626262626373,0.03347840089142706,1.0147524922153224,61.111111111111114,1.0999999999802001,1.0707070707070974,2.4276230305986246e-06,0.9938975247987741,0
253,171.64444444444445,0.7361111111111143,0.6333333333333258,0.6874999999999858,1.0707070707070974,0.03303267015719396,1.0012420986070114,58.333333333333336,1.0499999999811,0.9212121212121293,1.8102464593994227e-07,0.9947057853818934,0
254,172.27777777777777,0.6333333333333258,0.6444444444444457,0.6874999999999858,0.9212121212121293,0.03299808917294871,1.0001939260834813,55.55555555555556,0.9999999999820001,0.9373737373737586,6.785596440295194e-08,0.9991497442923931,0
255,172.92222222222222,0.6444444444444457,0.61944444444444,0.6666666666666572,0.9666666666666823,0.031120026441782203,0.9432686015087359,55.55555555555556,0.9999999999820001,0.9291666666666732,9.847759940839751e-09,0.9986412597450833,0
256,173.54166666666666,0.61944444444444,0.6555555555555657,0.6569444444444343,0.9429175475687182,0.031001334399401816,0.9396709671353908,52.77777777777778,0.9499999999829001,0.9978858350951681,1.4262477421311814e-08,0.999542038484939,0
257,174.19722222222222,0.6555555555555657,0.74444444444444,0.6500000000000057,1.0085470085470152,0.030875640298476507,0.9358610957325012,50.0,0.8999999999838,1.1452991452991286,3.842533757847377e-08,0.9985673623785648,0
258,174.94166666666666,0.74444444444444,0.6416666666666799,0.6805555555555571,1.093877551020399,0.03303774911077037,1.0013960450519515,55.55555555555556,0.9999999999820001,0.9428571428571602,8.288755459773256e-09,0.9995624899607387,0
259,175.58333333333334,0.6416666666666799,0.74444444444444,0.6805555555555571,0.9428571428571602,0.035698177794420125,1.0820353995375485,61.111111111111114,1.0999999999802001,1.093877551020399,3.178523911628872e-05,0.9984930222331208,0
260,176.32777777777778,0.74444444444444,0.6611111111110972,0.6805555555555571,1.093877551020399,0.033768169180408154,1.0235355608679184,58.333333333333336,1.0499999999811,0.9714285714285488,9.509872000990072e-08,0.9982818117194403,0
261,176.98888888888888,0.6611111111110972,0.6388888888888857,0.6583333333333314,1.0042194092826822,0.03192012872345698,0.9675202312980354,52.77777777777778,0.9499999999829001,0.9704641350210951,1.8878896668184098e-08,0.9986019111343292,0
262,177.62777777777777,0.6388888888888857,0.7583333333333542,0.6500000000000057,0.9829059829059694,0.033945008546209215,1.0288956791050579,58.333333333333336,1.0499999999811,1.1666666666666885,1.3710940038436092e-05,0.9983432001431682,0
263,178.38611111111112,0.7583333333333542,0.6944444444444287,0.6500000000000057,1.1666666666666885,0.032981302823775156,0.9996851207282224,55.55555555555556,0.9999999999820001,1.0683760683760348,9.625000529922545e-08,0.9969079118587423,0
264,179.08055555555555,0.6944444444444287,0.8333333333333428,0.6583333333333314,1.0548523206750846,0.03230855684532742,0.9792937447938811,58.333333333333336,1.0499999999811,1.2658227848101447,3.3219541819562437e-06,0.997736683226911,0
265,179.9138888888889,0.8333333333333428,0.61944444444444,0.6777777777777629,1.2295081967213524,0.03346551399535564,1.0143618818648519,55.55555555555556,0.9999999999820001,0.9139344262295217,3.900609613083361e-09,0.9966916550465934,0
266,180.53333333333333,0.61944444444444,0.6861111111111029,0.6777777777777629,0.9139344262295217,0.032498551972142395,0.9850526228558745,55.55555555555556,0.9999999999820001,1.0122950819672232,1.9793488093000633e-07,0.9981358382457699,0
267,181.21944444444443,0.6861111111111029,0.7805555555555657,0.6902777777777658,0.9939637826961825,0.03383840897798259,1.0256645756279874,58.333333333333336,1.0499999999811,1.1307847082495313,1.0163239494431764e-06,0.9984291196095352,0
268,182.0,0.7805555555555657,0.8027777777777771,0.6902777777777658,1.1307847082495313,0.03385503444080671,1.0261685044114954,55.55555555555556,0.9999999999820001,1.1629778672032387,2.269092078677204e-07,0.9970494293850547,0
269,182.80277777777778,0.8027777777777771,0.6416666666666799,0.7194444444444343,1.1158301158301307,0.0331579856779184,1.0050404949934097,55.55555555555556,0.9999999999820001,0.8918918918919229,2.966436873919065e-09,0.9965512091117192,0
270,183.44444444444446,0.6416666666666799,0.7277777777777601,0.6902777777777658,0.9295774647887678,0.030750149269300767,0.9320573795687654,52.77777777777778,0.9499999999829001,1.0543259557343991,1.968456331269408e-08,0.9972758852986563,0
271,184.17222222222222,0.7277777777777601,0.8972222222222399,0.7111111111110944,1.0234374999999991,0.03550537660185523,1.0761914677651856,58.333333333333336,1.0499999999811,1.2617187500000546,3.199898492312059e-05,0.9974240128619032,0
272,185.06944444444446,0.8972222222222399,0.549999999999983,0.7430555555555571,1.2074766355140398,0.03140894594301604,0.9520259428428532,55.55555555555556,0.9999999999820001,0.7401869158878259,9.844434295525062e-13,0.9979982723750502,0
273,185.61944444444444,0.549999999999983,0.7138888888889028,0.7111111111110944,0.7734374999999942,0.02956131261105322,0.8960229535008658,66.66666666666667,1.1999999999784001,1.003906250000043,2.1878289771848358e-05,0.9942067948948777,0
274,186.33333333333334,0.7138888888889028,0.6999999999999886,0.7208333333333314,0.9903660886320065,0.024347881148899384,0.7380003948257561,44.44444444444444,0.7999999999856,0.9710982658959405,1.2577842108498546e-14,0.9861061036742305,0
275,187.03333333333333,0.6999999999999886,0.6694444444444514,0.7069444444444457,0.9901768172887837,0.033426337506601234,1.0131744165576315,55.55555555555556,0.9999999999820001,0.9469548133595366,5.663720159532204e-08,0.9968338316463955,0
276,187.70277777777778,0.6694444444444514,0.7361111111111143,0.7069444444444457,0.9469548133595366,0.03282760458849409,0.9950264254755319,55.55555555555556,0.9999999999820001,1.041257367387036,1.0890879309499724e-07,0.9971190653236469,0
277,188.4388888888889,0.7361111111111143,0.7805555555555372,0.7208333333333314,1.021194605009641,0.03174643556260655,0.9622554766155957,58.333333333333336,1.0499999999811,1.08285163776491,1.4080943522287726e-08,0.996695690495393,0
278,189.21944444444443,0.7805555555555372,0.6750000000000114,0.7208333333333314,1.08285163776491,0.029869144280386433,0.9053535351690801,55.55555555555556,0.9999999999820001,0.9364161849711164,5.824713628088674e-11,0.9954594712856337,0
279,189.89444444444445,0.6750000000000114,0.5638888888888971,0.7069444444444457,0.9548133595285017,0.03131152550424881,0.9490730648558681,55.55555555555556,0.9999999999820001,0.7976424361493226,1.3539289689390444e-08,0.9947625849729946,0
280,190.45833333333334,0.5638888888888971,0.7111111111111086,0.7069444444444457,0.7976424361493226,0.03178391637135499,0.9633915447393713,55.55555555555556,0.9999999999820001,1.0058939096267137,3.4281918033229886e-06,0.9972792005538337,0
281,191.16944444444445,0.7111111111111086,0.7194444444444343,0.7055555555555486,1.007874015748038,0.03550978739685829,1.0763251618814764,58.333333333333336,1.0499999999811,1.0196850393700745,3.6830749650107464e-06,0.9951146300644726,0
282,191.88888888888889,0.7194444444444343,0.61944444444444,0.7055555555555486,1.0196850393700745,0.031097594431609313,0.9425886724314134,55.55555555555556,0.9999999999820001,0.8779527559055141,1.2740637433950042e-09,0.9972608226566236,0
283,192.50833333333333,0.61944444444444,0.6166666666666742,0.7055555555555486,0.8779527559055141,0.030749246870904197,0.9320300272760182,50.0,0.8999999999838,0.8740157480315154,2.1166470798306136e-09,0.996617119764994,0
284,193.125,0.6166666666666742,0.6277777777777658,0.6875,0.896969696969708,0.03277825934051035,0.9935307383448093,58.333333333333336,1.0499999999811,0.9131313131312957,3.5408001508585585e-07,0.996718103270023,0
285,193.75277777777777,0.6277777777777658,0.7361111111111143,0.6722222222222314,0.9338842975206306,0.031704208984766974,0.9609755610891824,58.333333333333336,1.0499999999811,1.0950413223140394,1.2845176570408512e-05,0.9908345551159448,0
286,194.48888888888888,0.7361111111111143,0.7638888888888857,0.69305555555556,1.0621242484969917,0.03163292766012106,0.9588149769541326,52.77777777777778,0.9499999999829001,1.1022044088176237,5.796336743912889e-09,0.9977918564999058,0
287,195.25277777777777,0.7638888888888857,0.6805555555555713,0.69305555555556,1.1022044088176237,0.0319858317091058,0.9695117322854736,52.77777777777778,0.9499999999829001,0.981963927855728,1.2766865786772996e-08,0.9908012088665612,0
288,195.93333333333334,0.6805555555555713,0.7138888888888744,0.6777777777777914,1.004098360655741,0.032025149619518065,0.9707034841767582,55.55555555555556,0.9999999999820001,1.0532786885245475,1.799370181743143e-07,0.9949599390746763,0
289,196.6472222222222,0.7138888888888744,0.6500000000000057,0.69583333333334,1.0259481037923845,0.0328656334125691,0.9961791043066173,55.55555555555556,0.9999999999820001,0.9341317365269454,1.539302552089339e-08,0.9985482072655291,0
290,197.29722222222222,0.6500000000000057,0.7111111111111086,0.69583333333334,0.9341317365269454,0.0303355627390652,0.9194909873996826,55.55555555555556,0.9999999999820001,1.0219560878243379,5.157670290856231e-09,0.9987829319314034,0
291,198.00833333333333,0.7111111111111086,0.6222222222222342,0.69583333333334,1.0219560878243379,0.03274228395665026,0.9924403006459234,55.55555555555556,0.9999999999820001,0.8942115768463161,9.382936205781789e-09,0.9993296461521436,0
292,198.63055555555556,0.6222222222222342,0.6166666666666742,0.6652777777777885,0.9352818371607545,0.031564508150736754,0.9567411363340553,52.77777777777778,0.9499999999829001,0.9269311064718128,1.4839399931076969e-08,0.9986816596102829,0
293,199.24722222222223,0.6166666666666742,0.5749999999999886,0.6652777777777885,0.9269311064718128,0.03276868913137783,0.9932406589709543,55.55555555555556,0.9999999999820001,0.8643006263047707,7.259236411982783e-08,0.9992007598426207,0
294,199.82222222222222,0.5749999999999886,0.34722222222222854,0.6652777777777885,0.8643006263047707,0.03354993110907506,1.0169206204620211,55.55555555555556,0.9999999999820001,0.5219206680584562,2.608848603813385e-07,0.9990066146182679,0
295,200.16944444444445,0.34722222222222854,0.4805555555555543,0.6652777777777885,0.5219206680584562,0.04574993274124829,1.3867107457857482,177.77777777777777,3.1999999999424,0.7223382045928883,0.9712325930595398,0.45436029842193704,1
296,200.65,0.4805555555555543,0.9277777777777771,0.63611111111112,0.7554585152838303,0.04655376920242807,1.4110755610277033,105.55555555555556,1.8999999999658002,1.4585152838427735,0.9967531561851501,0.328607005225581,1
297,201.57777777777778,0.9277777777777771,0.625,0.63611111111112,1.4585152838427735,0.03335159934171929,1.0109090533067548,58.333333333333336,1.0499999999811,0.9825327510916894,7.947213442882628e-10,0.9992281047574609,0
298,202.20277777777778,0.625,0.6222222222222058,0.6236111111111171,1.0022271714921953,0.03295165433993895,0.9987864555571836,55.55555555555556,0.9999999999820001,0.9977728285077592,9.661700914875837e-07,0.9993581699089276,0
299,202.825,0.6222222222222058,0.575000000000017,0.62222222222222,0.9999999999999771,0.031481794428606685,0.9542340286635278,52.77777777777778,0.9499999999829001,0.9241071428571735,2.9563953063416193e-08,0.9993722133734934,0
300,203.4,0.575000000000017,0.6666666666666572,0.61944444444444,0.9282511210762674,0.03134395249744767,0.950055948484937,52.77777777777778,0.9499999999829001,1.0762331838564947,1.2647955145439482e-06,0.9971835197229801,0
301,204.06666666666666,0.6666666666666572,0.6888888888888971,0.61944444444444,1.0762331838564947,0.03351269618352613,1.0157920052207867,58.333333333333336,1.0499999999811,1.1121076233184068,7.329897925956175e-06,0.9987185351852897,0
302,204.75555555555556,0.6888888888888971,0.7805555555555372,0.61944444444444,1.1121076233184068,0.03436252294482212,1.041550816902775,58.333333333333336,1.0499999999811,1.2600896860986341,8.846010314300656e-05,0.9979518412703359,0
303,205.5361111111111,0.7805555555555372,0.7166666666666686,0.6236111111111029,1.2516703786191408,0.035267676521825,1.0689866209927035,58.333333333333336,1.0499999999811,1.1492204899777465,9.739226698002312e-06,0.9986143023178231,0
304,206.25277777777777,0.7166666666666686,0.6083333333333485,0.6458333333333286,1.1096774193548498,0.03271438991928029,0.9915948139086408,55.55555555555556,0.9999999999820001,0.9419354838709981,3.684153071503715e-08,0.9993433533079645,0
305,206.86111111111111,0.6083333333333485,0.32777777777778283,0.6458333333333286,0.9419354838709981,0.03306989538794292,1.0023704199924417,55.55555555555556,0.9999999999820001,0.5075268817204417,7.490040587754265e-08,0.9991662821012102,0
306,207.1888888888889,0.32777777777778283,0.6722222222222172,0.6458333333333286,0.5075268817204417,0.047766117609386795,1.4478226437627593,77.77777777777777,1.3999999999747998,1.0408602150537634,0.9944490194320679,0.44669226694870295,1
307,207.86111111111111,0.6722222222222172,0.6666666666666572,0.6458333333333286,1.0408602150537634,0.03317629633435912,1.0055955031109591,55.55555555555556,0.9999999999820001,1.032258064516122,2.7282260361971566e-07,0.999422984839717,0
308,208.52777777777777,0.6666666666666572,0.5722222222222229,0.6666666666666572,1.0,0.03373877922128724,1.0226447317521319,58.333333333333336,1.0499999999811,0.8583333333333465,3.418637959384796e-07,0.9984678044503695,0
309,209.1,0.5722222222222229,0.5638888888888971,0.6666666666666572,0.8583333333333465,0.03355312242700101,1.0170173514208658,61.111111111111114,1.0999999999802001,0.8458333333333576,2.3718644115433563e-06,0.9984463167157905,0
310,209.6638888888889,0.5638888888888971,0.50555555555556,0.6666666666666572,0.8458333333333576,0.03194214768507792,0.9681876406003288,55.55555555555556,0.9999999999820001,0.7583333333333507,5.682927550765271e-08,0.9994152712697766,0
311,210.16944444444445,0.50555555555556,0.8194444444444287,0.6375000000000028,0.7930283224400906,0.03247683525652842,0.9843943748301256,44.44444444444444,0.7999999999856,1.285403050108902,0.029366957023739815,0.9878144654695388,0
312,210.98888888888888,0.8194444444444287,0.7416666666666742,0.6375000000000028,1.285403050108902,0.03423981605768452,1.037831489927192,58.333333333333336,1.0499999999811,1.1633986928104643,5.541771770367632e-07,0.9985918983464064,0
313,211.73055555555555,0.7416666666666742,0.625,0.6375000000000028,1.1633986928104643,0.035719300156613155,1.0826756323176734,58.333333333333336,1.0499999999811,0.9803921568627407,1.3118548849888612e-05,0.9974520540423321,0
314,212.35555555555555,0.625,0.6638888888888914,0.6166666666666742,1.0135135135135012,0.033758827134794694,1.02325239728136,58.333333333333336,1.0499999999811,1.0765765765765674,1.3990495972393546e-05,0.9989832431639446,0
315,213.01944444444445,0.6638888888888914,0.5888888888888744,0.6444444444444457,1.0301724137931054,0.032366620349468474,0.9810536880398255,55.55555555555556,0.9999999999820001,0.9137931034482515,6.038585098622207e-08,0.9994897111491173,0
316,213.60833333333332,0.5888888888888744,0.7027777777777828,0.6444444444444457,0.9137931034482515,0.03235385021261468,0.9806666167385306,55.55555555555556,0.9999999999820001,1.090517241379316,1.0770604603749234e-06,0.9994461844778488,0
317,214.3111111111111,0.7027777777777828,0.5500000000000114,0.6444444444444457,1.090517241379316,0.031769054759198105,0.962941079437177,55.55555555555556,0.9999999999820001,0.8534482758620849,6.100564053923563e-09,0.9993972330907568,0
318,214.86111111111111,0.5500000000000114,0.5305555555555657,0.6069444444444372,0.9061784897025468,0.031893283721289724,0.9667065415121615,52.77777777777778,0.9499999999829001,0.8741418764302331,2.3676646776493726e-07,0.9993130111303546,0
319,215.39166666666668,0.5305555555555657,0.7138888888888744,0.6069444444444372,0.8741418764302331,0.03217819317134303,0.9753423355405233,52.77777777777778,0.9499999999829001,1.1762013729977019,1.7516200387035497e-05,0.9987961818692668,0
320,216.10555555555555,0.7138888888888744,0.6611111111111256,0.6444444444444457,1.1077586206896304,0.03111499072866839,0.9431159657108406,50.0,0.8999999999838,1.0258620689655378,1.2190125575628485e-09,0.9978811314327021,0
321,216.76666666666668,0.6611111111111256,0.669444444444423,0.6625000000000085,0.9979035639413089,0.032790237528459984,0.9938938051505845,55.55555555555556,0.9999999999820001,1.0104821802934556,9.116104848772011e-08,0.9993549458028124,0
322,217.4361111111111,0.669444444444423,0.6777777777777771,0.6625000000000085,1.0104821802934556,0.03294847171668413,0.9986899881395765,55.55555555555556,0.9999999999820001,1.0230607966456882,1.5239719175497157e-07,0.9985548421051103,0
323,218.11388888888888,0.6777777777777771,0.6805555555555713,0.6625000000000085,1.0230607966456882,0.03426080928664328,1.0384678085935057,58.333333333333336,1.0499999999811,1.0272536687631133,1.2366459714030498e-06,0.9986809710198962,0
324,218.79444444444445,0.6805555555555713,0.6166666666666458,0.6666666666666572,1.0208333333333715,0.033020617076875196,1.0008767617639525,58.333333333333336,1.0499999999811,0.9249999999999818,9.848459114891739e-08,0.9990587495620984,0
325,219.4111111111111,0.6166666666666458,0.4972222222222342,0.6652777777777743,0.9269311064717898,0.03402577664638471,1.0313438136862279,58.333333333333336,1.0499999999811,0.7473903966597296,6.177141926855256e-07,0.9992279174895156,0
326,219.90833333333333,0.4972222222222342,0.8611111111111143,0.6652777777777743,0.7473903966597296,0.03259032718644343,0.9878343903524045,52.77777777777778,0.9499999999829001,1.29436325678498,0.010402844287455082,0.9963494591445867,0
327,220.76944444444445,0.8611111111111143,0.6722222222222172,0.6652777777777743,1.29436325678498,0.03292787095962801,0.9980655655564306,55.55555555555556,0.9999999999820001,1.0104384133611668,4.752417903652884e-10,0.9992443010088501,0
328,221.44166666666666,0.6722222222222172,0.6638888888888914,0.6708333333333201,1.0020703933747535,0.030755339895942976,0.9322147108982523,50.0,0.8999999999838,0.9896480331263173,7.742738672433802e-10,0.998748601636287,0
329,222.10555555555555,0.6638888888888914,0.7083333333333428,0.6708333333333201,0.9896480331263173,0.031709317118428434,0.961130392001816,52.77777777777778,0.9499999999829001,1.0559006211180475,2.7774460065188578e-08,0.9984704466658116,0
330,222.8138888888889,0.7083333333333428,0.6916666666666629,0.6708333333333201,1.0559006211180475,0.03362164483759687,1.0190943110447814,58.333333333333336,1.0499999999811,1.0310559006211328,3.773103571802494e-07,0.9977674192150482,0
331,223.50555555555556,0.6916666666666629,0.3499999999999943,0.6749999999999972,1.0246913580246901,0.03305048386833526,1.0017820439835803,55.55555555555556,0.9999999999820001,0.5185185185185123,6.9184240558684e-09,0.9994198232254814,0
332,223.85555555555555,0.3499999999999943,0.875,0.6749999999999972,0.5185185185185123,0.04705514576494781,1.4262726165264188,77.77777777777777,1.3999999999747998,1.2962962962963018,0.9930619597434998,0.23725826819995427,1
333,224.73055555555555,0.875,0.7861111111111256,0.6763888888888943,1.2936344969199076,0.03371070317486324,1.0217937281999399,58.333333333333336,1.0499999999811,1.1622176591375892,1.0807317707417496e-08,0.9988109655545823,0
334,225.51666666666668,0.7861111111111256,0.413888888888863,0.68194444444444,1.1527494908350593,0.033422021976424146,1.0130436099812772,58.333333333333336,1.0499999999811,0.6069246435844874,9.042489068633586e-08,0.9928114034771738,0
335,225.93055555555554,0.413888888888863,0.1444444444444457,0.68194444444444,0.6069246435844874,0.03138296514627365,0.9512384476954721,72.22222222222223,1.2999999999766,0.2118126272912456,0.9905078411102295,0.7182139276173322,1
336,226.075,0.1444444444444457,0.24722222222223422,0.68194444444444,0.2118126272912456,0.030337067187034435,0.919536588213507,72.22222222222223,1.2999999999766,0.36252545824849247,0.0131900729611516,0.9607458051406697,0
337,226.32222222222222,0.24722222222223422,0.46944444444443434,0.6680555555555543,0.37006237006238873,0.028316863319897124,0.8583028717164455,50.0,0.8999999999838,0.7027027027026889,0.3780938982963562,0.7191444273272015,0
338,226.79166666666666,0.46944444444443434,0.6416666666666799,0.5666666666666629,0.8284313725490073,0.033403946082700725,1.0124957176770912,52.77777777777778,0.9499999999829001,1.1323529411765016,0.0462038554251194,0.987963122050127,0
339,227.43333333333334,0.6416666666666799,0.6166666666666742,0.5555555555555571,1.1550000000000207,0.03192856294492801,0.9677758781338979,55.55555555555556,0.9999999999820001,1.1100000000000105,9.240047802450135e-06,0.9987624524921187,0
340,228.05,0.6166666666666742,0.8138888888888687,0.5430555555555543,1.1355498721227788,0.032069831154887735,0.9720578110909804,52.77777777777778,0.9499999999829001,1.4987212276214497,0.0003029104555025697,0.9972437955750687,0
341,228.86388888888888,0.8138888888888687,0.7583333333333542,0.5430555555555543,1.4987212276214497,0.03059468793423169,0.9273452435944076,55.55555555555556,0.9999999999820001,1.396419437340195,0.00012747127038892359,0.9838950272127542,0
342,229.62222222222223,0.7583333333333542,0.7111111111111086,0.6291666666666771,1.2052980132450464,0.030446793830867805,0.9228624754222012,52.77777777777778,0.9499999999829001,1.1302428256070414,4.7450503188883886e-06,0.9805598701244096,0
343,230.33333333333334,0.7111111111111086,0.5888888888888744,0.6291666666666771,1.1302428256070414,0.03553865861194197,1.077200267522109,55.55555555555556,0.9999999999820001,0.9359823399558113,0.0008577429107390344,0.9886788466518532,0
344,230.92222222222222,0.5888888888888744,0.7277777777777885,0.6027777777777743,0.9769585253456037,0.03279944534431523,0.9941729001443171,55.55555555555556,0.9999999999820001,1.2073732718894257,0.004298616200685501,0.988682997782274,0
345,231.65,0.7277777777777885,0.75555555555556,0.6291666666666771,1.1567328918322275,0.03194809842957016,0.9683680116050137,61.111111111111114,1.0999999999802001,1.2008830022074926,2.5209578780049924e-06,0.9965722094065577,0
346,232.40555555555557,0.75555555555556,0.6916666666666629,0.6763888888888943,1.117043121149895,0.02974097892708723,0.9014687584708799,52.77777777777778,0.9499999999829001,1.022587268993826,2.0155718516434717e-07,0.9791354152672873,0
347,233.09722222222223,0.6916666666666629,0.35833333333332007,0.7013888888888857,0.9861386138613851,0.029541314253954492,0.8954167900591901,75.0,1.3499999999757,0.5108910891088942,0.012215160764753819,0.962816953095926,0
348,233.45555555555555,0.35833333333332007,0.7694444444444457,0.7013888888888857,0.5108910891088942,0.03630545135290038,1.1004422630828772,72.22222222222223,1.2999999999766,1.0970297029703038,0.9882326722145081,0.4651961180467146,1
349,234.225,0.7694444444444457,0.5638888888888971,0.7194444444444485,1.0694980694980651,0.03344860837175238,1.013849461222674,72.22222222222223,1.2999999999766,0.7837837837837908,0.00013216567458584905,0.9850974786900867,0
350,234.7888888888889,0.5638888888888971,0.7305555555555543,0.7194444444444485,0.7837837837837908,0.03154358919854273,0.9561070690456486,55.55555555555556,0.9999999999820001,1.0154440154440079,4.656442797568161e-06,0.9973758796215624,0
351,235.51944444444445,0.7305555555555543,0.7583333333333258,0.7194444444444485,1.0154440154440079,0.03345374004428048,1.0140050056139374,58.333333333333336,1.0499999999811,1.0540540540540375,1.2118873371491645e-07,0.9960279176509232,0
352,236.27777777777777,0.7583333333333258,0.7305555555555543,0.7194444444444485,1.0540540540540375,0.03327852794168221,1.0086942108016497,58.333333333333336,1.0499999999811,1.0154440154440079,9.5621636830856e-08,0.9939187939208018,0
353,237.00833333333333,0.7305555555555543,0.7027777777777828,0.7291666666666714,1.0019047619047536,0.03056722788345069,0.9265129112779165,58.333333333333336,1.0499999999811,0.9638095238095244,1.725664873220012e-07,0.9855163095684719,0
354,237.7111111111111,0.7027777777777828,0.6666666666666572,0.7291666666666714,0.9638095238095244,0.03182867366315976,0.9647481678812887,52.77777777777778,0.9499999999829001,0.9142857142856954,7.485182251798506e-09,0.9941628704136889,0
355,238.37777777777777,0.6666666666666572,0.7250000000000227,0.7166666666666686,0.9302325581395192,0.03274494971287472,0.9925211014816974,58.333333333333336,1.0499999999811,1.0116279069767733,5.2430164942052215e-05,0.986081778345629,0
356,239.1027777777778,0.7250000000000227,0.6555555555555372,0.7138888888889028,1.0155642023346425,0.030751039558437276,0.9320843648218244,50.0,0.8999999999838,0.9182879377431471,5.487215304356141e-08,0.9820348335192786,0
357,239.75833333333333,0.6555555555555372,0.6222222222222342,0.7138888888889028,0.9182879377431471,0.02816814130876874,0.8537950091118595,47.22222222222222,0.8499999999847,0.8715953307392994,2.2447248226864502e-10,0.9868102399762647,0
358,240.38055555555556,0.6222222222222342,0.5666666666666629,0.7138888888889028,0.8715953307392994,0.031386245315136695,0.9513378717850353,50.0,0.8999999999838,0.793774319066127,5.7065197012207136e-08,0.9910842798193311,0
359,240.94722222222222,0.5666666666666629,1.0749999999999886,0.68472222222222,0.8275862068965488,0.04139089799715468,1.2545855172072569,97.22222222222223,1.7499999999685,1.5699797160243292,0.9975737929344177,0.552535471849836,1
360,242.0222222222222,1.0749999999999886,0.7583333333333542,0.7138888888889028,1.505836575875441,0.03462356349210703,1.0494631286880862,61.111111111111114,1.0999999999802001,1.0622568093385298,3.085444399975046e-11,0.9939884945999782,0
361,242.78055555555557,0.7583333333333542,0.7694444444444457,0.7138888888889028,1.0622568093385298,0.036200926776732666,1.0972740539886638,63.888888888888886,1.1499999999793,1.0778210116731326,6.86450075590983e-05,0.991422341753906,0
362,243.55,0.7694444444444457,0.5833333333333144,0.7138888888889028,1.0778210116731326,0.03415010883763261,1.0351124047052722,61.111111111111114,1.0999999999802001,0.817120622568051,4.784921202372061e-06,0.9895634400616267,0
363,244.13333333333333,0.5833333333333144,0.7249999999999943,0.68472222222222,0.8519269776876018,0.031035811870996872,0.940716002121973,55.55555555555556,0.9999999999820001,1.0588235294117598,1.0553713991612312e-06,0.9959656038054494,0
364,244.85833333333332,0.7249999999999943,0.6805555555555713,0.6958333333333258,1.0419161676646738,0.034308655723431815,1.0399180657647562,55.55555555555556,0.9999999999820001,0.9780439121756821,3.1128180921768944e-07,0.9953135315481385,0
365,245.5388888888889,0.6805555555555713,0.6694444444444514,0.7027777777777828,0.9683794466403317,0.03186615371275045,0.9658842129944902,55.55555555555556,0.9999999999820001,0.9525691699604774,4.233320360924608e-09,0.9996547940008268,0
366,246.20833333333334,0.6694444444444514,0.6166666666666458,0.6750000000000114,0.9917695473250965,0.03257053790912417,0.9872345642572458,55.55555555555556,0.9999999999820001,0.913580246913534,2.305083945941533e-08,0.9994201820512502,0
367,246.825,0.6166666666666458,0.6000000000000227,0.6750000000000114,0.913580246913534,0.03446515534270531,1.0446616728206475,58.333333333333336,1.0499999999811,0.8888888888889076,1.4756300288354396e-06,0.9985594620145131,0
368,247.425,0.6000000000000227,0.669444444444423,0.6750000000000114,0.8888888888889076,0.03333230127730872,1.0103241162000196,58.333333333333336,1.0499999999811,0.9917695473250544,2.5379690669069532e-06,0.9973954016225585,0
369,248.09444444444443,0.669444444444423,0.7916666666666856,0.6750000000000114,0.9917695473250544,0.03272115003545937,0.9917997175049217,55.55555555555556,0.9999999999820001,1.1728395061728478,1.4310156757346704e-06,0.9974948100477126,0
370,248.88611111111112,0.7916666666666856,0.8305555555555486,0.6750000000000114,1.1728395061728478,0.03284877334619959,0.9956680645343514,52.77777777777778,0.9499999999829001,1.2304526748970883,3.9143845498301744e-08,0.9987969373401715,0
371,249.71666666666667,0.8305555555555486,0.7333333333333201,0.6750000000000114,1.2304526748970883,0.033196035470093165,1.0061938093814784,58.333333333333336,1.0499999999811,1.0864197530863817,8.661790396047309e-09,0.998962533679898,0
372,250.45,0.7333333333333201,0.5722222222222229,0.6750000000000114,1.0864197530863817,0.03190573371281936,0.9670839089967593,52.77777777777778,0.9499999999829001,0.84773662551439,4.691078636653856e-10,0.9991003940681414,0
373,251.0222222222222,0.5722222222222229,0.6138888888889085,0.6750000000000114,0.84773662551439,0.03263685500432272,0.9892446793116493,52.77777777777778,0.9499999999829001,0.9094650205761454,1.916886986919053e-07,0.9984227746567522,0
374,251.63611111111112,0.6138888888889085,0.74444444444444,0.6694444444444372,0.9170124481328192,0.03238892368753632,0.981729716980469,55.55555555555556,0.9999999999820001,1.1120331950207523,5.086313308311219e-07,0.9995251069174743,0
375,252.38055555555556,0.74444444444444,0.7305555555555543,0.6694444444444372,1.1120331950207523,0.02653097237691346,0.8041713350551017,44.44444444444444,0.7999999999856,1.0912863070539518,3.9606973300035375e-13,0.9923833241481228,0
376,253.11111111111111,0.7305555555555543,0.6694444444444514,0.6999999999999886,1.0436507936508088,0.03254408447825238,0.9864327432565402,55.55555555555556,0.9999999999820001,0.9563492063492318,5.604602559827754e-09,0.9987663423171873,0
377,253.78055555555557,0.6694444444444514,0.625,0.7000000000000028,0.9563492063492124,0.03454703738130232,1.0471435716127508,61.111111111111114,1.0999999999802001,0.8928571428571392,1.6108714362417231e-06,0.9970438597949726,0
378,254.40555555555557,0.625,0.6972222222222229,0.7000000000000028,0.8928571428571392,0.0335254118186363,1.0161774245381545,58.333333333333336,1.0499999999811,0.9960317460317429,9.126845270657213e-07,0.9980634796776158,0
379,255.1027777777778,0.6972222222222229,0.8361111111111086,0.7138888888888886,0.9766536964980558,0.03357306560070424,1.0176218422172951,55.55555555555556,0.9999999999820001,1.1712062256809308,7.098410037542635e-07,0.9986406157706922,0
380,255.9388888888889,0.8361111111111086,0.7361111111111143,0.7138888888888886,1.1712062256809308,0.033980950708148244,1.029985109825525,58.333333333333336,1.0499999999811,1.0311284046692655,6.108179295694072e-09,0.9976064343156912,0
381,256.675,0.7361111111111143,1.1388888888888573,0.7138888888888886,1.0311284046692655,0.030578578782842113,0.9268569645522555,52.77777777777778,0.9499999999829001,1.5953307392995673,1.385159066558117e-05,0.9984157285493431,0
382,257.81388888888887,1.1388888888888573,0.5527777777778056,0.7138888888888886,1.5953307392995673,0.031328694813993974,0.9495934779995551,55.55555555555556,0.9999999999820001,0.7743190661478991,1.4581849203633867e-17,0.9996451869088933,0
383,258.3666666666667,0.5527777777778056,0.6833333333333371,0.7138888888888886,0.7743190661478991,0.028237359184409554,0.8558930487416541,47.22222222222222,0.8499999999847,0.9571984435797722,2.049210579002647e-08,0.995487149092514,0
384,259.05,0.6833333333333371,0.36111111111108585,0.7138888888888886,0.9571984435797722,0.03317729024084084,1.0056256290743415,55.55555555555556,0.9999999999820001,0.5058365758754512,1.4146518623192605e-08,0.9977497269415982,0
385,259.4111111111111,0.36111111111108585,0.7750000000000341,0.69027777777778,0.5231388329979496,0.04659807367171476,1.4124184588193496,80.55555555555556,1.4499999999739002,1.1227364185111122,0.9926919341087341,0.22298162888913675,1
386,260.18611111111113,0.7750000000000341,0.7083333333333144,0.69027777777778,1.1227364185111122,0.03331562643272638,1.0098186906227316,55.55555555555556,0.9999999999820001,1.0261569416498686,6.083344494811627e-09,0.9993081836571275,0
387,260.89444444444445,0.7083333333333144,0.7305555555555543,0.7027777777777686,1.0079051383399071,0.03335384095761682,1.0109769981684582,55.55555555555556,0.9999999999820001,1.0395256916996165,3.2698544316644984e-08,0.9988240737584324,0
388,261.625,0.7305555555555543,0.8138888888888687,0.7194444444444343,1.0154440154440278,0.030537727625408153,0.9256187389288028,52.77777777777778,0.9499999999829001,1.131274131274119,3.4492160239096847e-09,0.9970166588601223,0
389,262.43888888888887,0.8138888888888687,0.6388888888889142,0.7333333333333343,1.1098484848484558,0.033455199209729045,1.0140492338845855,58.333333333333336,1.0499999999811,0.8712121212121545,3.2678015848830455e-09,0.9985128684822375,0
390,263.0777777777778,0.6388888888889142,0.9472222222221944,0.7194444444444343,0.8880308880309357,0.03132992711134193,0.9496308297478971,50.0,0.8999999999838,1.3166023166022964,5.621655873255804e-06,0.9990230604605612,0
391,264.025,0.9472222222221944,0.6444444444444457,0.7194444444444343,1.3166023166022964,0.03256160573376922,0.9869638241095389,52.77777777777778,0.9499999999829001,0.8957528957529101,3.5678195966191983e-13,0.9971759648759422,0
392,264.6694444444444,0.6444444444444457,0.8166666666666629,0.6958333333333258,0.9261477045908303,0.03182243872086798,0.9645591826531733,52.77777777777778,0.9499999999829001,1.1736526946107857,2.1854073395388696e-07,0.9997315191657725,0
393,265.4861111111111,0.8166666666666629,0.7361111111111427,0.7194444444444343,1.1351351351351457,0.03404292389203363,1.0318635580525524,58.333333333333336,1.0499999999811,1.0231660231660815,1.020108086891014e-08,0.9977736838823168,0
394,266.22222222222223,0.7361111111111427,0.7138888888889028,0.7333333333333485,1.003787878787901,0.03450232188851571,1.0457882154267428,58.333333333333336,1.0499999999811,0.9734848484848473,6.19461602013871e-08,0.9982645254712617,0
395,266.93611111111113,0.7138888888889028,0.8333333333333144,0.7333333333333485,0.9734848484848473,0.033701794530380885,1.0215237012885579,58.333333333333336,1.0499999999811,1.136363636363587,3.6862235219814465e-07,0.9985648098707849,0
396,267.76944444444445,0.8333333333333144,0.625,0.7333333333333485,1.136363636363587,0.033564668986714244,1.0173673352890773,58.333333333333336,1.0499999999811,0.8522727272727096,2.2293569212905595e-09,0.9983484890593017,0
397,268.39444444444445,0.625,0.4416666666666629,0.7333333333333485,0.8522727272727096,0.031893301986574175,0.966707095145024,52.77777777777778,0.9499999999829001,0.6022727272727096,3.247638602488223e-09,0.9991499691845184,0
398,268.8361111111111,0.4416666666666629,0.8666666666666742,0.7250000000000227,0.6091954022988263,0.030427447707256347,0.922276081609274,47.22222222222222,0.8499999999847,1.1954022988505477,0.011925985105335712,0.9914826641990162,0
399,269.7027777777778,0.8666666666666742,0.6833333333333371,0.7250000000000227,1.1954022988505477,0.033065158875148805,1.0022268531542935,58.333333333333336,1.0499999999811,0.9425287356321596,6.439078714670643e-10,0.9970414383556974,0
400,270.3861111111111,0.6833333333333371,0.6638888888888914,0.7250000000000227,0.9425287356321596,0.028871891582384894,0.8751261457562048,47.22222222222222,0.8499999999847,0.9157088122605112,1.1156934751066494e-11,0.9945737289097503,0
401,271.05,0.6638888888888914,0.7083333333333144,0.69861111111112,0.9502982107355781,0.03293802109077071,0.9983732227502963,55.55555555555556,0.9999999999820001,1.0139165009939959,3.4736455489792206e-08,0.9998073505945733,0
402,271.7583333333333,0.7083333333333144,0.6805555555555429,0.7111111111111086,0.9960937499999769,0.03423314874612303,1.0376293993003027,61.111111111111114,1.0999999999802001,0.9570312499999857,1.3195874259963603e-07,0.999349398188621,0
403,272.43888888888887,0.6805555555555429,0.8555555555555543,0.6958333333333258,0.9780439121756412,0.03330215128896752,1.0094102500954611,55.55555555555556,0.9999999999820001,1.2295409181636843,5.75802687308169e-06,0.9974457358250952,0
404,273.2944444444444,0.8555555555555543,0.49444444444446844,0.6958333333333258,1.2295409181636843,0.03410009767492681,1.0335965332585184,55.55555555555556,0.9999999999820001,0.7105788423154115,6.627517423751783e-10,0.9993025971629669,0
405,273.7888888888889,0.49444444444446844,0.6277777777777942,0.68194444444444,0.7250509164969849,0.03094115014550338,0.9378467425604591,52.77777777777778,0.9499999999829001,0.9205702647658142,1.7893677295433008e-06,0.9989907614716483,0
406,274.4166666666667,0.6277777777777942,0.7777777777777715,0.6722222222222172,0.9338842975206926,0.03266551137724202,0.9901132729440636,55.55555555555556,0.9999999999820001,1.157024793388429,9.6712233244034e-07,0.9997741334073402,0
407,275.19444444444446,0.7777777777777715,0.6888888888888687,0.68194444444444,1.1405295315682262,0.03233437280654264,0.9800762436673199,55.55555555555556,0.9999999999820001,1.010183299388979,1.9000880868702552e-09,0.9988099251402215,0
408,275.8833333333333,0.6888888888888687,0.7027777777777828,0.6861111111111029,1.004048582995934,0.03201471184628581,0.9703871083607519,52.77777777777778,0.9499999999829001,1.024291497975728,5.259456425932285e-09,0.9997235075353461,0
409,276.5861111111111,0.7027777777777828,0.7222222222222285,0.6861111111111029,1.024291497975728,0.030585215812436166,0.9270581373126665,52.77777777777778,0.9499999999829001,1.0526315789473901,1.4379869517355814e-09,0.9986411969993323,0
410,277.30833333333334,0.7222222222222285,0.5666666666666629,0.6958333333333258,1.037924151696627,0.03221539142592018,0.9764698392603287,58.333333333333336,1.0499999999811,0.8143712574850334,9.40680422445439e-09,0.9989097875660813,0
411,277.875,0.5666666666666629,0.6499999999999773,0.6958333333333258,0.8143712574850334,0.032989046080436756,0.9999198239633232,52.77777777777778,0.9499999999829001,0.9341317365269236,8.285595640700194e-07,0.9983080960840924,0
412,278.525,0.6499999999999773,0.7972222222222172,0.6847222222222058,0.9492900608519166,0.03427273372498114,1.0388292462129682,58.333333333333336,1.0499999999811,1.164300202839777,5.057402177044423e-06,0.9993139803644565,0
413,279.3222222222222,0.7972222222222172,0.5166666666667084,0.6958333333333258,1.1457085828343365,0.034124773493823195,1.0343444736635503,55.55555555555556,0.9999999999820001,0.7425149700599483,5.436188832419475e-09,0.998482523346973,0
414,279.8388888888889,0.5166666666667084,0.6472222222221831,0.669444444444423,0.7717842323652323,0.033241471797935795,1.0075710145551948,130.55555555555554,2.3499999999576997,0.9668049792530845,0.9926996827125549,0.5995123438222452,1
415,280.4861111111111,0.6472222222221831,0.7305555555555543,0.669444444444423,0.9668049792530845,0.032269495609404696,0.9781097728762813,52.77777777777778,0.9499999999829001,1.0912863070539751,2.0936057865128532e-07,0.9974640052732769,0
416,281.21666666666664,0.7305555555555543,0.6111111111111427,0.6958333333333258,1.049900199600808,0.03173507747530577,0.961911205470966,52.77777777777778,0.9499999999829001,0.8782435129741069,5.551277215687378e-10,0.998151014303833,0
417,281.8277777777778,0.6111111111111427,0.5555555555555429,0.669444444444423,0.9128630705394956,0.029820976614491023,0.9038935413309611,52.77777777777778,0.9499999999829001,0.8298755186722069,6.656642459468287e-10,0.9985407491376834,0
418,282.3833333333333,0.5555555555555429,0.6944444444444571,0.6486111111110802,0.8565310492505567,0.028133997193259846,0.8527600783689155,47.22222222222222,0.8499999999847,1.0706638115632396,3.0613971802040396e-08,0.9936634926352454,0
419,283.0777777777778,0.6944444444444571,0.6472222222222399,0.6486111111110802,1.0706638115632396,0.03592564103485088,1.088929960925443,61.111111111111114,1.0999999999802001,0.9978586723769486,4.5208125811768696e-05,0.9972832685658122,0
420,283.725,0.6472222222222399,0.6722222222222172,0.6472222222222115,1.000000000000044,0.03521682274182999,1.0674452092581388,58.333333333333336,1.0499999999811,1.0386266094420695,1.3321219739736989e-05,0.9988480025005766,0
421,284.39722222222224,0.6722222222222172,0.7305555555555543,0.6486111111111086,1.036402569593144,0.03120732351818309,0.9459146336811863,52.77777777777778,0.9499999999829001,1.1263383297644565,4.9086239073403704e-08,0.9993541154427854,0
422,285.1277777777778,0.7305555555555543,0.7583333333333258,0.6597222222222285,1.1073684210526191,0.03436018619585036,1.041479988494618,55.55555555555556,0.9999999999820001,1.1494736842105038,8.357129672731389e-07,0.9995004081704425,0
423,285.8861111111111,0.7583333333333258,0.6888888888888687,0.6597222222222285,1.1494736842105038,0.03330676247627546,1.0095500182351635,58.333333333333336,1.0499999999811,1.0442105263157488,6.991760415075987e-08,0.9995919419159681,0
424,286.575,0.6888888888888687,0.7638888888889142,0.6805555555555429,1.0122448979591727,0.033616874493449696,1.018949718755927,55.55555555555556,0.9999999999820001,1.1224489795918946,3.172064566570043e-07,0.9991274482184791,0
425,287.3388888888889,0.7638888888889142,0.5833333333333144,0.6916666666666629,1.1044176706827735,0.03247408374692675,0.9843109747527233,55.55555555555556,0.9999999999820001,0.8433734939758808,1.1176968239823282e-09,0.9997251517976505,0
426,287.9222222222222,0.5833333333333144,0.6527777777777715,0.6805555555555429,0.8571428571428452,0.030559755062084984,0.9262864051156502,52.77777777777778,0.9499999999829001,0.9591836734693963,2.4627277994682117e-08,0.9977661358846703,0
427,288.575,0.6527777777777715,0.6999999999999886,0.6805555555555429,0.9591836734693963,0.032191689596108714,0.9757514211091975,55.55555555555556,0.9999999999820001,1.028571428571431,4.013583421169642e-08,0.9991701661969519,0
428,289.275,0.6999999999999886,0.7972222222222172,0.6916666666666629,1.0120481927710734,0.03250986461757179,0.9853955166273022,55.55555555555556,0.9999999999820001,1.1526104417670673,1.0680211204316947e-07,0.999443285600403,0
429,290.0722222222222,0.7972222222222172,0.830555555555577,0.6944444444444287,1.1480000000000188,0.03303097331043798,1.0011906660586014,55.55555555555556,0.9999999999820001,1.1960000000000581,3.224192823836347e-08,0.9994587085533844,0
430,290.90277777777777,0.830555555555577,0.6416666666666515,0.7152777777777715,1.1611650485437297,0.03374558443253755,1.0228510022098727,55.55555555555556,0.9999999999820001,0.8970873786407634,1.0121516957894983e-09,0.9990750643345017,0
431,291.5444444444444,0.6416666666666515,0.6444444444444457,0.7152777777777715,0.8970873786407634,0.030687588240852628,0.9301611133839143,55.55555555555556,0.9999999999820001,0.9009708737864175,4.640781092746238e-09,0.9972625838965588,0
432,292.18888888888887,0.6444444444444457,0.6583333333333599,0.6944444444444287,0.9280000000000229,0.0338632102133558,1.0264163174894523,55.55555555555556,0.9999999999820001,0.9480000000000598,1.5526252639119775e-07,0.9990778374476323,0
433,292.84722222222223,0.6583333333333599,0.7777777777777715,0.6736111111111143,0.9773195876289008,0.031598998206611356,0.9577865527584808,50.0,0.8999999999838,1.1546391752577172,7.61040084285014e-08,0.9989182064560163,0
434,293.625,0.7777777777777715,0.6777777777778056,0.6791666666666742,1.1451942740286079,0.03032655755564873,0.9192180343293028,52.77777777777778,0.9499999999829001,0.9979550102249787,4.105700848744398e-11,0.9983613400295843,0
435,294.3027777777778,0.6777777777778056,0.577777777777726,0.6680555555555827,1.0145530145530148,0.02960774929038404,0.8974304799903767,50.0,0.8999999999838,0.8648648648647522,4.455081442644726e-11,0.9973978368892036,0
436,294.88055555555553,0.577777777777726,0.6277777777777942,0.6680555555555827,0.8648648648647522,0.03302296314572638,1.000947872663824,58.333333333333336,1.0499999999811,0.9397089397089261,7.693751626902667e-07,0.999341140435652,0
437,295.5083333333333,0.6277777777777942,0.3972222222222399,0.6680555555555827,0.9397089397089261,0.0332460737974433,1.007710504206584,55.55555555555556,0.9999999999820001,0.5945945945945968,6.335605462481908e-08,0.9996021380209617,0
438,295.90555555555557,0.3972222222222399,0.8222222222221944,0.6513888888889028,0.6098081023454299,0.04771912258799705,1.446398193555845,83.33333333333333,1.499999999973,1.2622601279317,0.9958255290985107,0.4915736355380344,1
439,296.72777777777776,0.8222222222221944,0.7416666666666742,0.6513888888889028,1.2622601279317,0.03524984339918184,1.068446087240664,58.333333333333336,1.0499999999811,1.1385927505330364,9.721898095449433e-07,0.9982525765093193,0
440,297.46944444444443,0.7416666666666742,0.625,0.6513888888889028,1.1385927505330364,0.03356048506488714,1.0172405178489294,55.55555555555556,0.9999999999820001,0.9594882729210883,6.375438488248619e-08,0.9991819813994249,0
441,298.09444444444443,0.625,0.580555555555577,0.6513888888889028,0.9594882729210883,0.031009064434785936,0.9399052696248194,55.55555555555556,0.9999999999820001,0.8912579957356216,1.1588943138463037e-08,0.9993985403928676,0
442,298.675,0.580555555555577,0.5861111111111086,0.643055555555577,0.902807775377973,0.03143288078847758,0.9527514238525839,52.77777777777778,0.9499999999829001,0.911447084233227,3.448711183295927e-08,0.9992966857896072,0
443,299.2611111111111,0.5861111111111086,0.6833333333333371,0.6263888888888971,0.9356984478935535,0.032922642886250235,0.9979070991916007,55.55555555555556,0.9999999999820001,1.0909090909090826,3.578423729777569e-06,0.9994294567486752,0
444,299.94444444444446,0.6833333333333371,0.5888888888889028,0.6263888888888971,1.0909090909090826,0.03332430434301552,1.0100817238279818,55.55555555555556,0.9999999999820001,0.9401330376940231,4.29804487112051e-07,0.9991696979017305,0
445,300.53333333333336,0.5888888888889028,0.3138888888888687,0.6069444444444514,0.9702517162471513,0.03081870457495728,0.9341353362637443,50.0,0.8999999999838,0.5171624713958418,1.3446224134128215e-09,0.9964998470846387,0
446,300.84722222222223,0.3138888888888687,0.9694444444444343,0.6069444444444514,0.5171624713958418,0.04723109454313226,1.4316057404633697,75.0,1.3499999999757,1.5972540045766241,0.9922943115234375,0.4906996566418134,1
447,301.81666666666666,0.9694444444444343,0.5055555555555316,0.6069444444444514,1.5972540045766241,0.03380824332558171,1.0247502347354112,58.333333333333336,1.0499999999811,0.8329519450800424,3.6315311868762024e-10,0.9990510936320706,0
448,302.3222222222222,0.5055555555555316,0.6194444444444684,0.6069444444444514,0.8329519450800424,0.03404489921966113,1.0319234315405201,58.333333333333336,1.0499999999811,1.020594965675085,0.0002565676986705512,0.9980566970457159,0
449,302.94166666666666,0.6194444444444684,0.6750000000000114,0.6041666666666856,1.0252873563218468,0.03416859284859785,1.0356726673132128,55.55555555555556,0.9999999999820001,1.1172413793103286,3.433132587815635e-05,0.9986979387041178,0
450,303.6166666666667,0.6750000000000114,0.6750000000000114,0.6041666666666856,1.1172413793103286,0.032342051320166536,0.980308984498091,55.55555555555556,0.9999999999820001,1.1172413793103286,1.099653559322178e-06,0.999457785004065,0
451,304.2916666666667,0.6750000000000114,0.6111111111110858,0.6041666666666856,1.1172413793103286,0.03236702906060728,0.9810660763449912,55.55555555555556,0.9999999999820001,1.0114942528734896,3.838959514723683e-07,0.9997715154036115,0
452,304.90277777777777,0.6111111111110858,0.6638888888888914,0.6152777777777771,0.9932279909706145,0.03199883319836237,0.9699058160312417,52.77777777777778,0.9499999999829001,1.0790067720090346,1.853174808275071e-06,0.9969442325537259,0
453,305.56666666666666,0.6638888888888914,0.6972222222222513,0.6416666666666799,1.0346320346320173,0.03305492695188654,1.001916716787141,55.55555555555556,0.9999999999820001,1.0865800865801094,4.32463053812171e-07,0.9995154884571256,0
454,306.2638888888889,0.6972222222222513,0.7055555555555202,0.6416666666666799,1.0865800865801094,0.03087558021214278,0.9358592744759514,50.0,0.8999999999838,1.0995670995670217,5.486123999531856e-09,0.9980286402814633,0
455,306.96944444444443,0.7055555555555202,0.716666666666697,0.6694444444444514,1.0539419087136292,0.031241132928461653,0.9469394192870391,52.77777777777778,0.9499999999829001,1.070539419087171,4.188576152586165e-09,0.9992685390110301,0
456,307.68611111111113,0.716666666666697,0.6333333333333258,0.6750000000000114,1.0617283950617555,0.03365694191338505,1.020164188776998,55.55555555555556,0.9999999999820001,0.9382716049382446,4.733307434889866e-08,0.999567918319826,0
457,308.31944444444446,0.6333333333333258,0.73888888888888,0.6694444444444514,0.9460580912862859,0.03409656509578796,1.0334894584464114,58.333333333333336,1.0499999999811,1.1037344398340003,3.4894449072453426e-06,0.9988416228249084,0
458,309.05833333333334,0.73888888888888,0.7555555555555316,0.6750000000000114,1.0946502057612852,0.034492780333631554,1.0454990045821237,61.111111111111114,1.0999999999802001,1.1193415637859538,1.129290126300475e-06,0.9988275689618797,0
459,309.81388888888887,0.7555555555555316,0.6444444444444457,0.6861111111111313,1.101214574898718,0.03459830797892943,1.048697617365659,58.333333333333336,1.0499999999811,0.939271255060703,1.196816015180957e-07,0.999195792256105,0
460,310.4583333333333,0.6444444444444457,0.6472222222222399,0.6861111111111313,0.939271255060703,0.030698425813978726,0.9304896073993525,52.77777777777778,0.9499999999829001,0.9433198380566782,2.0052552951455027e-09,0.9982894675780292,0
461,311.10555555555555,0.6472222222222399,0.75,0.6805555555555713,0.9510204081632693,0.031409576288552815,0.9520450490333332,52.77777777777778,0.9499999999829001,1.102040816326505,1.3842456780821522e-07,0.9964438841991972,0
462,311.85555555555555,0.75,0.6333333333333258,0.7013888888888857,1.069306930693074,0.032069455737307656,0.9720464319356187,55.55555555555556,0.9999999999820001,0.9029702970296962,1.616907940871215e-09,0.9986244743244576,0
463,312.4888888888889,0.6333333333333258,0.5777777777777828,0.7013888888888857,0.9029702970296962,0.0342004132563153,1.036637164934808,61.111111111111114,1.0999999999802001,0.8237623762376347,7.082674642333586e-07,0.998621259721501,0
464,313.06666666666666,0.5777777777777828,0.6916666666666629,0.67638888888888,0.8542094455852343,0.034025876149797483,1.031346829700536,55.55555555555556,0.9999999999820001,1.0225872689938476,3.5278474115330027e-06,0.9995037522288095,0
465,313.7583333333333,0.6916666666666629,0.5861111111111086,0.6694444444444514,1.0331950207468716,0.03350420669659603,1.0155346832522767,58.333333333333336,1.0499999999811,0.8755186721991572,1.7155552711756172e-07,0.9985328844979445,0
466,314.34444444444443,0.5861111111111086,0.580555555555577,0.6458333333333428,0.9075268817204128,0.033703983298196585,1.0215900442899175,55.55555555555556,0.9999999999820001,0.8989247311828158,1.2609415307451854e-06,0.9984625783416983,0
467,314.925,0.580555555555577,0.6638888888888914,0.6458333333333428,0.8989247311828158,0.03389478733009121,1.0273734408003339,58.333333333333336,1.0499999999811,1.0279569892473006,1.3839284292771481e-05,0.9985113076636583,0
468,315.5888888888889,0.6638888888888914,0.86388888888888,0.6458333333333428,1.0279569892473006,0.03109781435982753,0.9425953386012902,52.77777777777778,0.9499999999829001,1.3376344086021172,2.416378947600606e-06,0.9992985503440678,0
469,316.4527777777778,0.86388888888888,0.7194444444444343,0.6458333333333428,1.3376344086021172,0.03280574551340287,0.9943638624397922,55.55555555555556,0.9999999999820001,1.113978494623624,2.1615749190573297e-09,0.9988950749316668,0
470,317.1722222222222,0.7194444444444343,0.5861111111111086,0.6555555555555657,1.0974576271186118,0.03080955773314435,0.9338580894335964,52.77777777777778,0.9499999999829001,0.8940677966101519,2.900222839663513e-10,0.9988440957862019,0
471,317.7583333333333,0.5861111111111086,0.5472222222222172,0.6486111111111086,0.9036402569593144,0.0317024117703457,0.9609210863303983,52.77777777777778,0.9499999999829001,0.8436830835117728,4.699179356748573e-08,0.9978933296867583,0
472,318.30555555555554,0.5472222222222172,0.49444444444446844,0.6097222222222172,0.8974943052391791,0.03132770685516848,0.9495635323135702,52.77777777777778,0.9499999999829001,0.8109339407745335,7.840786508950259e-08,0.9988025461097516,0
473,318.8,0.49444444444446844,0.8166666666666629,0.5861111111111086,0.8436018957346417,0.032649535593397505,0.9896290363604858,58.333333333333336,1.0499999999811,1.3933649289099521,0.0014705053763464093,0.9992205926243841,0
474,319.6166666666667,0.8166666666666629,0.7416666666666742,0.625,1.3066666666666606,0.03308549193824738,1.0028431617563847,58.333333333333336,1.0499999999811,1.1866666666666787,1.9582449795052526e-07,0.9990618676526017,0
475,320.35833333333335,0.7416666666666742,0.6416666666666515,0.625,1.1866666666666787,0.03565124553003073,1.0806128515368572,58.333333333333336,1.0499999999811,1.0266666666666424,1.880801937659271e-05,0.9980849358434739,0
476,321.0,0.6416666666666515,0.6527777777777715,0.6527777777777715,0.9829787234042416,0.0347857434317435,1.054378910014296,58.333333333333336,1.0499999999811,1.0,6.6767915996024385e-06,0.9983545750871017,0
477,321.65277777777777,0.6527777777777715,0.3555555555555543,0.6583333333333314,0.9915611814345924,0.03390846987318542,1.027788167738748,55.55555555555556,0.9999999999820001,0.5400843881856536,2.580238174232363e-07,0.99702427134412,0
478,322.0083333333333,0.3555555555555543,0.8388888888889028,0.6472222222222115,0.5493562231759729,0.04331045827869951,1.3127686600034816,75.0,1.3499999999757,1.296137339055837,0.9941470623016357,0.4821782973625747,1
479,322.84722222222223,0.8388888888889028,0.669444444444423,0.6472222222222115,1.296137339055837,0.03209248252889491,0.9727443892313292,55.55555555555556,0.9999999999820001,1.034334763948482,9.795078081964448e-10,0.9981276334677647,0
480,323.51666666666665,0.669444444444423,0.6472222222222399,0.6472222222222115,1.034334763948482,0.03326102532957738,1.00816369504281,55.55555555555556,0.9999999999820001,1.000000000000044,3.377662949333171e-07,0.9988069699736817,0
481,324.1638888888889,0.6472222222222399,0.5833333333333144,0.6500000000000057,0.9957264957265142,0.03318463698633822,1.0058483137935823,58.333333333333336,1.0499999999811,0.8974358974358604,1.5419597048094147e-06,0.9959924602031169,0
482,324.7472222222222,0.5833333333333144,0.7027777777777828,0.6500000000000057,0.8974358974358604,0.030716332565244298,0.9310323728836762,52.77777777777778,0.9499999999829001,1.0811965811965796,1.7528701334867947e-07,0.9985724590185261,0
483,325.45,0.7027777777777828,0.966666666666697,0.6611111111110972,1.0630252100840636,0.03487639999438721,1.0571267704385952,58.333333333333336,1.0499999999811,1.4621848739496563,0.0008167536580003798,0.9975183285420475,0
484,326.4166666666667,0.966666666666697,0.6972222222221944,0.6611111111110972,1.4621848739496563,0.03407409078898952,1.03280824733037,58.333333333333336,1.0499999999811,1.0546218487394758,4.2629497154500484e-10,0.9983222360419239,0
485,327.1138888888889,0.6972222222221944,0.6388888888889142,0.6611111111110972,1.0546218487394758,0.03300218406736084,1.000318045043749,55.55555555555556,0.9999999999820001,0.9663865546219073,5.864217911266678e-08,0.9995363770843894,0
486,327.7527777777778,0.6388888888889142,0.8805555555555316,0.6611111111110972,0.9663865546219073,0.034465926927122734,1.0446850600550937,58.333333333333336,1.0499999999811,1.3319327731092354,0.000363389786798507,0.9980879859227791,0
487,328.6333333333333,0.8805555555555316,0.6527777777777715,0.6833333333333087,1.288617886178873,0.032544904977728134,0.9864576131387839,55.55555555555556,0.9999999999820001,0.9552845528455537,7.939754409491684e-11,0.998193233214564,0
488,329.2861111111111,0.6527777777777715,0.6805555555555429,0.6833333333333087,0.9552845528455537,0.0324205615435515,0.9826886813391273,52.77777777777778,0.9499999999829001,0.995934959349611,1.591507015064053e-08,0.9995947994698475,0
489,329.96666666666664,0.6805555555555429,0.63611111111112,0.674999999999983,1.008230452674904,0.03246162150353675,0.9839332359061277,55.55555555555556,0.9999999999820001,0.9423868312757571,2.4258836717194754e-08,0.9990032375815872,0
490,330.60277777777776,0.63611111111112,0.6888888888889255,0.6666666666666572,0.9541666666666935,0.03139921666805118,0.9517310420783256,52.77777777777778,0.9499999999829001,1.033333333333403,3.937109482876622e-08,0.9979756994604845,0
491,331.2916666666667,0.6888888888889255,0.6499999999999773,0.6847222222222342,1.0060851926978047,0.032450267269887006,0.9835890815682118,52.77777777777778,0.9499999999829001,0.9492900608518772,1.0975477415797741e-08,0.9978457245998908,0
492,331.94166666666666,0.6499999999999773,0.4805555555555543,0.6847222222222342,0.9492900608518772,0.03410476066662371,1.0337378716235424,58.333333333333336,1.0499999999811,0.7018255578093164,2.9706347959290724e-07,0.9992239707069915,0
493,332.4222222222222,0.4805555555555543,0.8500000000000227,0.6666666666666572,0.7208333333333417,0.04537886508755877,1.3754634395723158,116.66666666666667,2.0999999999622,1.2750000000000523,0.9940181970596313,0.9250249449478709,1
494,333.27222222222224,0.8500000000000227,0.5722222222221944,0.6666666666666572,1.2750000000000523,0.03145715493859191,0.9534871894109452,52.77777777777778,0.9499999999829001,0.8583333333333039,1.1176295999781871e-11,0.9976882101883819,0
495,333.84444444444443,0.5722222222221944,0.6333333333333258,0.6513888888888744,0.8784648187633032,0.033575870313422684,1.0177068549163848,55.55555555555556,0.9999999999820001,0.9722814498934003,2.0484308151935693e-06,0.9989169160559234,0
496,334.47777777777776,0.6333333333333258,0.9416666666666629,0.6513888888888744,0.9722814498934003,0.032618578762918314,0.9886907143366316,55.55555555555556,0.9999999999820001,1.4456289978678303,0.00011793426529038697,0.9995535473835767,0
497,335.4194444444444,0.9416666666666629,0.8472222222222285,0.6513888888888744,1.4456289978678303,0.03363017741629567,1.0193529391533254,58.333333333333336,1.0499999999811,1.3006396588486528,2.6240565276225425e-08,0.9984995955217799,0
498,336.26666666666665,0.8472222222222285,0.6999999999999886,0.6652777777777601,1.2734864300626738,0.033397404069743154,1.0122974249338288,58.333333333333336,1.0499999999811,1.0521920668058564,8.94834339959516e-09,0.9984139782784267,0
499,336.96666666666664,0.6999999999999886,0.6944444444444571,0.6694444444444514,1.045643153526943,0.033688690910850846,1.0211265219065953,58.333333333333336,1.0499999999811,1.037344398340257,4.221913059154758e-07,0.9982456128751654,0
500,337.6611111111111,0.6944444444444571,0.7694444444444457,0.6916666666666913,1.0040160642570106,0.03545901048314902,1.0747860800149145,61.111111111111114,1.0999999999802001,1.1124497991967495,1.2229101230332162e-05,0.9971419113451867,0
501,338.43055555555554,0.7694444444444457,0.6833333333333371,0.6972222222222229,1.1035856573705187,0.03280850220328735,0.9944474195349954,55.55555555555556,0.9999999999820001,0.980079681274905,1.8645742727585457e-09,0.9997897753412471,0
502,339.1138888888889,0.6833333333333371,0.7833333333333599,0.6972222222222229,0.980079681274905,0.033913576207746196,1.0279429441194488,58.333333333333336,1.0499999999811,1.1235059760956545,1.050869059326942e-06,0.9982168297297155,0
503,339.89722222222224,0.7833333333333599,0.6416666666666515,0.7347222222222172,1.0661625708885123,0.03420254937779723,1.0367019121909418,58.333333333333336,1.0499999999811,0.8733459357277736,1.78357311142463e-08,0.9986075341980565,0
504,340.5388888888889,0.6416666666666515,0.6750000000000114,0.6972222222222229,0.920318725099579,0.032786980462516165,0.9937950813257961,52.77777777777778,0.9499999999829001,0.9681274900398561,2.5602115982792384e-08,0.9992212063427397,0
505,341.2138888888889,0.6750000000000114,0.6472222222221831,0.6972222222222229,0.9681274900398561,0.03180081453337619,0.9639037392160573,55.55555555555556,0.9999999999820001,0.9282868525895844,4.778935469573753e-09,0.9992967602842554,0
506,341.8611111111111,0.6472222222221831,0.6138888888889369,0.6972222222222229,0.9282868525895844,0.032945163939200245,0.9985897272144401,52.77777777777778,0.9499999999829001,0.8804780876494704,2.965974488233769e-08,0.9981160948349606,0
507,342.475,0.6138888888889369,0.61388888888888,0.6888888888888971,0.8911290322581236,0.03110435440595912,0.9427935717287552,55.55555555555556,0.9999999999820001,0.8911290322580411,7.1310983784655946e-09,0.9991534076074866,0
508,343.0888888888889,0.61388888888888,0.8555555555555543,0.6791666666666742,0.903885480572574,0.032178120435263594,0.9753401308618076,52.77777777777778,0.9499999999829001,1.259713701431477,8.45659633341711e-06,0.9987153847715029,0
509,343.94444444444446,0.8555555555555543,0.6444444444444457,0.6791666666666742,1.259713701431477,0.03432857310028776,1.0405217746416677,58.333333333333336,1.0499999999811,0.9488752556237131,7.91087551021974e-09,0.9989096210577518,0
510,344.5888888888889,0.6444444444444457,0.6722222222222172,0.6611111111110972,0.974789915966409,0.033893599247238775,1.0273374292226192,58.333333333333336,1.0499999999811,1.0168067226890893,2.5574915980541846e-06,0.9975799703015724,0
511,345.2611111111111,0.6722222222222172,0.6472222222222399,0.6597222222222001,1.018947368421079,0.03139861869055237,0.9517129169845024,52.77777777777778,0.9499999999829001,0.981052631579007,6.473686031682746e-09,0.9987489268065888,0
512,345.90833333333336,0.6472222222222399,0.8249999999999886,0.6472222222222115,1.000000000000044,0.03340153211156918,1.0124225486141538,58.333333333333336,1.0499999999811,1.2746781115879864,4.522295785136521e-05,0.9977768162973654,0
513,346.73333333333335,0.8249999999999886,0.7527777777777374,0.6472222222222115,1.2746781115879864,0.03190530330380975,0.9670708630147667,52.77777777777778,0.9499999999829001,1.1630901287553217,2.7322051288081184e-09,0.9974749373829696,0
514,347.4861111111111,0.7527777777777374,0.5944444444444912,0.6597222222222285,1.1410526315788752,0.031224625550463278,0.9464390697327664,52.77777777777778,0.9499999999829001,0.9010526315790096,4.3639761249103515e-10,0.997134636298753,0
515,348.0805555555556,0.5944444444444912,0.7333333333332916,0.6472222222222115,0.9184549356224051,0.031246805350414655,0.9471113541513229,52.77777777777778,0.9499999999829001,1.1330472103003835,9.081167604563234e-07,0.9975773956595169,0
