beat_index,peak_time_s,rr_prev_s,rr_next_s,rr_baseline_s,prematurity_index,aa_ratio,morph_index,qrs_width_ms,width_index,pause_index,pvc_score,morphology_score,is_pvc_candidate
0,0.5972222222222222,,0.6583333333333333,0.6555555555555657,,0.028210783362648564,1.0942258893668162,33.333333333333336,0.9999999999700001,1.0042372881355777,0.0,0.9913032093256371,0
1,1.2555555555555555,0.6583333333333333,0.6777777777777778,0.6555555555555657,1.0042372881355777,0.026783730182637046,1.0388740575867985,33.333333333333336,0.9999999999700001,1.03389830508473,0.0,0.9966084189881056,0
2,1.9333333333333333,0.6777777777777778,0.6361111111111113,0.6555555555555657,1.03389830508473,0.02718264919849915,1.0543471307484247,33.333333333333336,0.9999999999700001,0.9703389830508328,0.0,0.9915080317237323,0
3,2.5694444444444446,0.6361111111111113,0.6777777777777776,0.6555555555555657,0.9703389830508328,0.027045959141102773,1.0490452645187833,33.333333333333336,0.9999999999700001,1.0338983050847295,0.0,0.9974772005511636,0
4,3.2472222222222222,0.6777777777777776,0.755555555555556,0.6555555555555657,1.0338983050847295,0.029095303615442075,1.1285342227382817,36.111111111111114,1.0833333333008335,1.1525423728813389,0.0,0.9911008282751708,0
5,4.002777777777778,0.755555555555556,0.738888888888888,0.6555555555555657,1.1525423728813389,0.029615124759900094,1.1486967877686225,38.888888888888886,1.1666666666316665,1.1271186440677778,0.0,0.9947610493134913,0
6,4.741666666666666,0.738888888888888,0.6833333333333336,0.6555555555555657,1.1271186440677778,0.02879662387885478,1.1169491810823384,30.555555555555557,0.9166666666391667,1.0423728813559165,0.0,0.9858122234443558,0
7,5.425,0.6833333333333336,0.6611111111111114,0.6555555555555657,1.0423728813559165,0.02699269447352475,1.046979260980237,30.555555555555557,0.9166666666391667,1.0084745762711713,0.0,0.9879790159126389,0
8,6.086111111111111,0.6611111111111114,0.572222222222222,0.6555555555555657,1.0084745762711713,0.0282525655026456,1.0958465143140284,36.111111111111114,1.0833333333008335,0.8728813559321895,0.0,0.9943359896697425,0
9,6.658333333333333,0.572222222222222,0.5777777777777775,0.6555555555555657,0.8728813559321895,0.027792298533550336,1.0779939071343478,30.555555555555557,0.9166666666391667,0.8813559322033758,0.0,0.9871858228994752,0
10,7.236111111111111,0.5777777777777775,0.6166666666666671,0.6555555555555657,0.8813559322033758,0.02590145146266766,1.0046526676800533,33.333333333333336,0.9999999999700001,0.9406779661016811,0.0,0.9902968243980554,0
11,7.852777777777778,0.6166666666666671,0.6194444444444436,0.6555555555555657,0.9406779661016811,0.027486403420780927,1.0661289990415708,30.555555555555557,0.9166666666391667,0.9449152542372723,0.0,0.9885672055908357,0
12,8.472222222222221,0.6194444444444436,0.6416666666666675,0.6555555555555657,0.9449152542372723,0.027211104336083817,1.0554508345283014,33.333333333333336,0.9999999999700001,0.9788135593220201,0.0,0.9980977923751821,0
13,9.113888888888889,0.6416666666666675,0.7444444444444436,0.6555555555555657,0.9788135593220201,0.02710692619420377,1.0514100243712106,33.333333333333336,0.9999999999700001,1.1355932203389643,0.0,0.9924512612423269,0
14,9.858333333333333,0.7444444444444436,0.6694444444444461,0.6555555555555657,1.1355932203389643,0.02821938019063406,1.0945593388718242,36.111111111111114,1.0833333333008335,1.0211864406779527,0.0,0.9945162454455717,0
15,10.527777777777779,0.6694444444444461,0.6694444444444443,0.6555555555555657,1.0211864406779527,0.026611613141401688,1.032198067058641,33.333333333333336,0.9999999999700001,1.02118644067795,0.0,0.9983438177605968,0
16,11.197222222222223,0.6694444444444443,0.6888888888888882,0.6555555555555657,1.02118644067795,0.028062479536589746,1.088473554031791,33.333333333333336,0.9999999999700001,1.0508474576271014,0.0,0.9974803939802925,0
17,11.886111111111111,0.6888888888888882,0.6583333333333332,0.6555555555555657,1.0508474576271014,0.02816149150638321,1.0923139812653238,36.111111111111114,1.0833333333008335,1.0042372881355777,0.0,0.9952726008273467,0
18,12.544444444444444,0.6583333333333332,0.6611111111111114,0.6555555555555657,1.0042372881355777,0.026211100291355278,1.016663173046264,30.555555555555557,0.9166666666391667,1.0084745762711713,0.0,0.9908005809725391,0
19,13.205555555555556,0.6611111111111114,0.6194444444444436,0.6555555555555657,1.0084745762711713,0.025821274097812524,1.0015427877721506,30.555555555555557,0.9166666666391667,0.9449152542372723,0.0,0.9950610998994596,0
20,13.825,0.6194444444444436,0.6194444444444454,0.6555555555555657,0.9449152542372723,0.026424130403881755,1.0249260795152078,33.333333333333336,0.9999999999700001,0.944915254237275,0.0,0.9991369307290285,0
21,14.444444444444445,0.6194444444444454,0.6638888888888879,0.6555555555555657,0.944915254237275,0.02732602009609274,1.0599081300979278,33.333333333333336,0.9999999999700001,1.0127118644067625,0.0,0.9933859585623301,0
22,15.108333333333333,0.6638888888888879,0.6722222222222225,0.6555555555555657,1.0127118644067625,0.026321993387750837,1.0209644395324946,30.555555555555557,0.9166666666391667,1.025423728813544,0.0,0.9980121733916647,0
23,15.780555555555555,0.6722222222222225,0.658333333333335,0.6555555555555657,1.025423728813544,0.027085079118415355,1.050562630818634,33.333333333333336,0.9999999999700001,1.0042372881355803,0.0,0.9965306005634906,0
24,16.43888888888889,0.658333333333335,0.6749999999999972,0.6555555555555657,1.0042372881355803,0.027422192155658293,1.0636384043004403,36.111111111111114,1.0833333333008335,1.0296610169491323,0.0,0.9967457277141838,0
25,17.113888888888887,0.6749999999999972,0.6611111111111114,0.6555555555555657,1.0296610169491323,0.026774181185658805,1.0385036758226072,30.555555555555557,0.9166666666391667,1.0084745762711713,0.0,0.9967255389160168,0
26,17.775,0.6611111111111114,0.6416666666666693,0.6555555555555657,1.0084745762711713,0.026536873918224797,1.029299119096083,33.333333333333336,0.9999999999700001,0.9788135593220227,0.0,0.9996995851389228,0
27,18.416666666666668,0.6416666666666693,0.625,0.6555555555555657,0.9788135593220227,0.025295647264647624,0.9811550345644023,30.555555555555557,0.9166666666391667,0.9533898305084599,0.0,0.9935952670843438,0
28,19.041666666666668,0.625,0.655555555555555,0.6555555555555657,0.9533898305084599,0.0257841792826285,1.0001039724576712,30.555555555555557,0.9166666666391667,0.9999999999999838,0.0,0.9958852676944099,0
29,19.697222222222223,0.655555555555555,0.6722222222222207,0.6555555555555657,0.9999999999999838,0.026899170650705958,1.043351705272714,30.555555555555557,0.9166666666391667,1.0254237288135413,0.0,0.9946729582832483,0
30,20.369444444444444,0.6722222222222207,0.6611111111111114,0.6555555555555657,1.0254237288135413,0.026001024006702525,1.0085148381895517,30.555555555555557,0.9166666666391667,1.0084745762711713,0.0,0.9945836946412046,0
31,21.030555555555555,0.6611111111111114,0.6722222222222243,0.6555555555555657,1.0084745762711713,0.026955263290632452,1.045527398801727,33.333333333333336,0.9999999999700001,1.0254237288135466,0.0,0.998539258857718,0
32,21.70277777777778,0.6722222222222243,0.7111111111111086,0.6555555555555657,1.0254237288135466,0.027204572567093008,1.0551974835085431,36.111111111111114,1.0833333333008335,1.0847457627118438,0.0,0.9949505445329627,0
33,22.413888888888888,0.7111111111111086,0.7305555555555578,0.6555555555555657,1.0847457627118438,0.026420400717772193,1.0247814142980873,33.333333333333336,0.9999999999700001,1.1144067796610033,0.0,0.9991480123500895,0
34,23.144444444444446,0.7305555555555578,0.6666666666666643,0.6555555555555657,1.1144067796610033,0.02701051719028876,1.0476705596886544,33.333333333333336,0.9999999999700001,1.0169491525423535,0.0,0.998066395937374,0
35,23.81111111111111,0.6666666666666643,0.6527777777777786,0.6555555555555657,1.0169491525423535,0.025491593348828723,0.9887552942053626,33.333333333333336,0.9999999999700001,0.9957627118643926,0.0,0.9984007205440089,0
36,24.46388888888889,0.6527777777777786,0.6750000000000007,0.6555555555555657,0.9957627118643926,0.026840942122782662,1.0410931659782061,33.333333333333336,0.9999999999700001,1.0296610169491378,0.0,0.9979231428698572,0
37,25.13888888888889,0.6750000000000007,0.6416666666666657,0.6555555555555657,1.0296610169491378,0.026164954050027642,1.0148732754986292,33.333333333333336,0.9999999999700001,0.9788135593220174,0.0,0.9939906389347608,0
38,25.780555555555555,0.6416666666666657,0.62777777777778,0.6555555555555657,0.9788135593220174,0.026605736982906525,1.0319701455339965,33.333333333333336,0.9999999999700001,0.9576271186440564,0.0,0.993940218749283,0
39,26.408333333333335,0.62777777777778,0.652777777777775,0.6555555555555657,0.9576271186440564,0.027050447760374408,1.0492193668594165,33.333333333333336,0.9999999999700001,0.9957627118643873,0.0,0.9989888023727751,0
40,27.06111111111111,0.652777777777775,0.6972222222222229,0.6555555555555657,0.9957627118643873,0.02676864644401251,1.0382889970055578,33.333333333333336,0.9999999999700001,1.0635593220338828,0.0,0.999299540352559,0
41,27.758333333333333,0.6972222222222229,0.6666666666666679,0.6555555555555657,1.0635593220338828,0.028851211523400023,1.1190664995960824,36.111111111111114,1.0833333333008335,1.016949152542359,0.0,0.9938922070282743,0
42,28.425,0.6666666666666679,0.6833333333333336,0.6555555555555657,1.016949152542359,0.026318532378243095,1.0208301956103025,30.555555555555557,0.9166666666391667,1.0423728813559165,0.0,0.9984035615057514,0
43,29.108333333333334,0.6833333333333336,0.6611111111111114,0.6555555555555657,1.0423728813559165,0.02728805813421443,1.0584356803270576,33.333333333333336,0.9999999999700001,1.0084745762711713,0.0,0.9986478815623951,0
44,29.769444444444446,0.6611111111111114,0.6305555555555529,0.6555555555555657,1.0084745762711713,0.027502999189776993,1.0667727075077982,33.333333333333336,0.9999999999700001,0.9618644067796421,0.0,0.995597586912342,0
45,30.4,0.6305555555555529,0.6305555555555564,0.6555555555555657,0.9618644067796421,0.02584742663040271,1.0025571792502184,30.555555555555557,0.9166666666391667,0.9618644067796475,0.0,0.9967994857445266,0
46,31.030555555555555,0.6305555555555564,0.6444444444444457,0.6555555555555657,0.9618644067796475,0.025355999003706803,0.9834959279206039,30.555555555555557,0.9166666666391667,0.9830508474576138,0.0,0.9896855429485578,0
47,31.675,0.6444444444444457,0.652777777777775,0.6555555555555657,0.9830508474576138,0.026603887080705418,1.031898392443867,33.333333333333336,0.9999999999700001,0.9957627118643873,0.0,0.9975315502638069,0
48,32.327777777777776,0.652777777777775,0.6416666666666657,0.6555555555555657,0.9957627118643873,0.027090718893828282,1.0507813836333897,33.333333333333336,0.9999999999700001,0.9788135593220174,0.0,0.9976700962487866,0
49,32.96944444444444,0.6416666666666657,0.6333333333333329,0.6555555555555657,0.9788135593220174,0.026993953252186165,1.0470280858633536,33.333333333333336,0.9999999999700001,0.9661016949152387,0.0,0.9989745323772213,0
50,33.602777777777774,0.6333333333333329,0.6638888888888914,0.6555555555555657,0.9661016949152387,0.027460436692240416,1.0651218144389338,33.333333333333336,0.9999999999700001,1.0127118644067679,0.0,0.9962374653870423,0
51,34.266666666666666,0.6638888888888914,0.6638888888888914,0.6555555555555657,1.0127118644067679,0.026952487309673548,1.045419725427522,33.333333333333336,0.9999999999700001,1.0127118644067679,0.0,0.9994241301800161,0
52,34.93055555555556,0.6638888888888914,0.6499999999999986,0.6555555555555657,1.0127118644067679,0.027563399395325334,1.0691154807581709,33.333333333333336,0.9999999999700001,0.9915254237287962,0.0,0.996873155608154,0
53,35.580555555555556,0.6499999999999986,0.6555555555555586,0.6555555555555657,0.9915254237287962,0.026451003839416797,1.0259684330195633,36.111111111111114,1.0833333333008335,0.9999999999999891,0.0,0.9988073822438934,0
54,36.236111111111114,0.6555555555555586,0.6416666666666657,0.6555555555555657,0.9999999999999891,0.025747946625624577,0.998698598107566,33.333333333333336,0.9999999999700001,0.9788135593220174,0.0,0.9967015731903903,0
55,36.87777777777778,0.6416666666666657,0.62222222222222,0.6555555555555657,0.9788135593220174,0.025993731235950925,1.0082319698104982,33.333333333333336,0.9999999999700001,0.9491525423728634,0.0,0.9965671098545282,0
56,37.5,0.62222222222222,0.6416666666666657,0.6555555555555657,0.9491525423728634,0.02557711215008783,0.9920723551023395,30.555555555555557,0.9166666666391667,0.9788135593220174,0.0,0.9939500355527423,0
57,38.141666666666666,0.6416666666666657,0.6722222222222243,0.6555555555555657,0.9788135593220174,0.02632003942045854,1.0208886500171621,30.555555555555557,0.9166666666391667,1.0254237288135466,0.0,0.9953408629168191,0
58,38.81388888888889,0.6722222222222243,0.68888888888889,0.6555555555555657,1.0254237288135466,0.0268330616930889,1.0407875037752323,33.333333333333336,0.9999999999700001,1.050847457627104,0.0,0.9994750575162519,0
59,39.50277777777778,0.68888888888889,0.68333333333333,0.6555555555555657,1.050847457627104,0.027756458025513662,1.0766037432641125,33.333333333333336,0.9999999999700001,1.042372881355911,0.0,0.9952374621003555,0
60,40.18611111111111,0.68333333333333,0.7250000000000014,0.6555555555555657,1.042372881355911,0.02653994715877187,1.0294183224279305,36.111111111111114,1.0833333333008335,1.1059322033898156,0.0,0.9975446925709743,0
61,40.91111111111111,0.7250000000000014,0.7055555555555557,0.6555555555555657,1.1059322033898156,0.027658371277962855,1.07279920309257,33.333333333333336,0.9999999999700001,1.0762711864406616,0.0,0.9982666032252734,0
62,41.61666666666667,0.7055555555555557,0.6749999999999972,0.6555555555555657,1.0762711864406616,0.02683354742532406,1.0408063441165365,33.333333333333336,0.9999999999700001,1.0296610169491323,0.0,0.9995233814331295,0
63,42.291666666666664,0.6749999999999972,0.6472222222222257,0.6555555555555657,1.0296610169491323,0.0267851058124793,1.038927414835629,33.333333333333336,0.9999999999700001,0.9872881355932104,0.0,0.9933987873192873,0
64,42.93888888888889,0.6472222222222257,0.6722222222222243,0.6555555555555657,0.9872881355932104,0.02600039458531492,1.0084904245045865,33.333333333333336,0.9999999999700001,1.0254237288135466,0.0,0.9957505378445378,0
65,43.611111111111114,0.6722222222222243,0.6666666666666643,0.6555555555555657,1.0254237288135466,0.026588182188893077,1.0312892388804986,33.333333333333336,0.9999999999700001,1.0169491525423535,0.0,0.9981402900060841,0
66,44.27777777777778,0.6666666666666643,0.6583333333333314,0.6555555555555657,1.0169491525423535,0.025179289119096438,0.9766417924589246,33.333333333333336,0.9999999999700001,1.0042372881355748,0.0,0.9946036138105138,0
67,44.93611111111111,0.6583333333333314,0.6666666666666643,0.6555555555555657,1.0042372881355748,0.026013547449719468,1.009000591293143,33.333333333333336,0.9999999999700001,1.0169491525423535,0.0,0.993030055083612,0
68,45.602777777777774,0.6666666666666643,0.7000000000000028,0.6555555555555657,1.0169491525423535,0.02744454279990649,1.0645053300169656,33.333333333333336,0.9999999999700001,1.0677966101694794,0.0,0.9986427589441134,0
69,46.30277777777778,0.7000000000000028,0.7138888888888886,0.6555555555555657,1.0677966101694794,0.027666729774570506,1.0731234083181642,36.111111111111114,1.0833333333008335,1.0889830508474403,0.0,0.9943629156511113,0
70,47.016666666666666,0.7138888888888886,0.6694444444444443,0.6555555555555657,1.0889830508474403,0.027055925571912765,1.0494318374996428,33.333333333333336,0.9999999999700001,1.02118644067795,0.0,0.9973144603968858,0
71,47.68611111111111,0.6694444444444443,0.68888888888889,0.6555555555555657,1.02118644067795,0.02780412856073275,1.0784527643680697,33.333333333333336,0.9999999999700001,1.050847457627104,0.0,0.9989736557381357,0
72,48.375,0.68888888888889,0.68611111111111,0.6555555555555657,1.050847457627104,0.027008381608236962,1.0475877257900026,30.555555555555557,0.9166666666391667,1.0466101694915075,0.0,0.9962065220626535,0
73,49.06111111111111,0.68611111111111,0.6583333333333314,0.6555555555555657,1.0466101694915075,0.025740673926636752,0.9984165082621423,33.333333333333336,0.9999999999700001,1.0042372881355748,0.0,0.9957933879228282,0
74,49.71944444444444,0.6583333333333314,0.6111111111111143,0.6555555555555657,1.0042372881355748,0.0263666210565745,1.0226954354421507,33.333333333333336,0.9999999999700001,0.9322033898304989,0.0,0.9913679593244766,0
75,50.330555555555556,0.6111111111111143,0.6305555555555529,0.6555555555555657,0.9322033898304989,0.026094892559408507,1.012155765109159,33.333333333333336,0.9999999999700001,0.9618644067796421,0.0,0.9951211292709368,0
76,50.96111111111111,0.6305555555555529,0.6833333333333371,0.6555555555555657,0.9618644067796421,0.027314004262312095,1.059442065889923,33.333333333333336,0.9999999999700001,1.0423728813559219,0.0,0.9940465105892367,0
77,51.644444444444446,0.6833333333333371,0.6805555555555571,0.6555555555555657,1.0423728813559219,0.02786469786647332,1.0808020965929257,36.111111111111114,1.0833333333008335,1.0381355932203253,0.0,0.9968247250601181,0
78,52.325,0.6805555555555571,0.6749999999999972,0.6555555555555657,1.0381355932203253,0.027383218283469186,1.0621267050537382,33.333333333333336,0.9999999999700001,1.0296610169491323,0.0,0.9949739814144763,0
79,53.0,0.6749999999999972,0.6194444444444471,0.6555555555555657,1.0296610169491323,0.027203985953849492,1.0551747302446635,33.333333333333336,0.9999999999700001,0.9449152542372776,0.0,0.9951989182733596,0
80,53.61944444444445,0.6194444444444471,0.5944444444444414,0.6555555555555657,0.9449152542372776,0.027057621573346187,1.0494976211630382,33.333333333333336,0.9999999999700001,0.9067796610169306,0.0,0.9971300494060051,0
81,54.21388888888889,0.5944444444444414,0.5916666666666686,0.6555555555555657,0.9067796610169306,0.026682882386886552,1.0349624232455177,30.555555555555557,0.9166666666391667,0.9025423728813449,0.0,0.9921022665446593,0
82,54.80555555555556,0.5916666666666686,0.5722222222222229,0.6555555555555657,0.9025423728813449,0.025386190939322196,0.9846669977620816,30.555555555555557,0.9166666666391667,0.8728813559321908,0.0,0.9935948418735412,0
83,55.37777777777778,0.5722222222222229,0.5972222222222214,0.6555555555555657,0.8728813559321908,0.026513060808899536,1.0283754680086579,33.333333333333336,0.9999999999700001,0.9110169491525272,0.0,0.9969102100729599,0
84,55.975,0.5972222222222214,0.6555555555555515,0.6555555555555657,0.9110169491525272,0.026931621642392312,1.0446103982619293,33.333333333333336,0.9999999999700001,0.9999999999999784,0.0,0.9970890885801069,0
85,56.63055555555555,0.6555555555555515,0.6750000000000043,0.6555555555555657,0.9999999999999784,0.026904920913707785,1.043574743625332,33.333333333333336,0.9999999999700001,1.0296610169491431,0.0,0.9982788460651426,0
86,57.30555555555556,0.6750000000000043,0.6944444444444429,0.6555555555555657,1.0296610169491431,0.0270747015469918,1.050160110719336,33.333333333333336,0.9999999999700001,1.0593220338982863,0.0,0.9996535149104574,0
87,58.0,0.6944444444444429,0.6722222222222243,0.6555555555555657,1.0593220338982863,0.026239937867967227,1.0177817106816696,33.333333333333336,0.9999999999700001,1.0254237288135466,0.0,0.9960821800533322,0
88,58.672222222222224,0.6722222222222243,0.6722222222222172,0.6555555555555657,1.0254237288135466,0.027252327439022908,1.0570497758230584,33.333333333333336,0.9999999999700001,1.0254237288135357,0.0,0.9973078209423565,0
89,59.34444444444444,0.6722222222222172,0.6638888888888914,0.6555555555555657,1.0254237288135357,0.02682700961437096,1.040552758744138,33.333333333333336,0.9999999999700001,1.0127118644067679,0.0,0.9982221322155107,0
90,60.00833333333333,0.6638888888888914,0.6305555555555529,0.6555555555555657,1.0127118644067679,0.026102175377922573,1.0124382474657532,30.555555555555557,0.9166666666391667,0.9618644067796421,0.0,0.9976423708444737,0
91,60.638888888888886,0.6305555555555529,0.6083333333333343,0.6555555555555657,0.9618644067796421,0.026342833671458118,1.021772782132596,33.333333333333336,0.9999999999700001,0.9279661016949023,0.0,0.9942923487902463,0
92,61.24722222222222,0.6083333333333343,0.5972222222222214,0.6555555555555657,0.9279661016949023,0.025832926994856637,1.0019947745698188,30.555555555555557,0.9166666666391667,0.9110169491525272,0.0,0.9900429277699812,0
93,61.84444444444444,0.5972222222222214,0.6555555555555586,0.6555555555555657,0.9110169491525272,0.029220535756257757,1.133391664975876,30.555555555555557,0.9166666666391667,0.9999999999999891,0.0,0.9804347131099884,0
94,62.5,0.6555555555555586,0.7250000000000014,0.6555555555555657,0.9999999999999891,0.028475674697899637,1.1045003632506019,33.333333333333336,0.9999999999700001,1.1059322033898156,0.0,0.9934131142475866,0
95,63.225,0.7250000000000014,0.7333333333333343,0.6555555555555657,1.1059322033898156,0.021420181816500173,0.8308354006784406,38.888888888888886,1.1666666666316665,1.1186440677965943,0.0,0.9533380815900523,0
96,63.958333333333336,0.7333333333333343,0.6999999999999957,0.6555555555555657,1.1186440677965943,0.021720311713501847,0.8424766904381233,38.888888888888886,1.1666666666316665,1.0677966101694685,0.0,0.950533588851252,0
97,64.65833333333333,0.6999999999999957,0.6805555555555571,0.6555555555555657,1.0677966101694685,0.022929009917280984,0.8893590775737257,36.111111111111114,1.0833333333008335,1.0381355932203253,0.0,0.9518920126284209,0
98,65.33888888888889,0.6805555555555571,0.6916666666666629,0.6555555555555657,1.0381355932203253,0.02316508326699324,0.898515773710945,38.888888888888886,1.1666666666316665,1.0550847457626897,0.0,0.9541226599080302,0
99,66.03055555555555,0.6916666666666629,0.6722222222222314,0.6555555555555657,1.0550847457626897,0.02142065864035382,0.8308538954858561,36.111111111111114,1.0833333333008335,1.0254237288135575,0.0,0.9545194591408281,0
100,66.70277777777778,0.6722222222222314,0.6749999999999972,0.6555555555555657,1.0254237288135575,0.02123985629298721,0.8238410236062053,36.111111111111114,1.0833333333008335,1.0296610169491323,0.0,0.953045741239414,0
101,67.37777777777778,0.6749999999999972,0.6472222222222257,0.6555555555555657,1.0296610169491323,0.021593965099515663,0.837576020567305,38.888888888888886,1.1666666666316665,0.9872881355932104,0.0,0.962070382407616,0
102,68.025,0.6472222222222257,0.6388888888888857,0.6555555555555657,0.9872881355932104,0.020139668858370367,0.7811674984283214,36.111111111111114,1.0833333333008335,0.9745762711864209,0.0,0.9567436894967081,0
103,68.66388888888889,0.6388888888888857,0.6916666666666629,0.6555555555555657,0.9745762711864209,0.02134364370696253,0.8278666784028952,36.111111111111114,1.0833333333008335,1.0550847457626897,0.0,0.9519258669102664,0
104,69.35555555555555,0.6916666666666629,0.7333333333333343,0.6555555555555657,1.0550847457626897,0.022543467732927633,0.8744048583257401,38.888888888888886,1.1666666666316665,1.1186440677965943,0.0,0.9546746988766026,0
105,70.08888888888889,0.7333333333333343,0.6972222222222229,0.6555555555555657,1.1186440677965943,0.02167288357642313,0.8406370713531502,38.888888888888886,1.1666666666316665,1.0635593220338828,0.0,0.9548813429491922,0
106,70.78611111111111,0.6972222222222229,0.6777777777777771,0.6555555555555657,1.0635593220338828,0.021881836942072956,0.8487418509838746,38.888888888888886,1.1666666666316665,1.0338983050847288,0.0,0.9537909057172124,0
107,71.46388888888889,0.6777777777777771,0.6972222222222229,0.6555555555555657,1.0338983050847288,0.02116953924153483,0.8211136006497409,36.111111111111114,1.0833333333008335,1.0635593220338828,0.0,0.9567440914015323,0
108,72.16111111111111,0.6972222222222229,0.6833333333333371,0.6555555555555657,1.0635593220338828,0.021976155887335664,0.8524002475068465,36.111111111111114,1.0833333333008335,1.0423728813559219,0.0,0.9501376854781564,0
109,72.84444444444445,0.6833333333333371,0.6388888888888857,0.6555555555555657,1.0423728813559219,0.02130658527707974,0.8264292743834548,36.111111111111114,1.0833333333008335,0.9745762711864209,0.0,0.9526466772744444,0
110,73.48333333333333,0.6388888888888857,0.6583333333333314,0.6555555555555657,0.9745762711864209,0.020929610953668635,0.811807381081154,36.111111111111114,1.0833333333008335,1.0042372881355748,0.0,0.9496975420004639,0
111,74.14166666666667,0.6583333333333314,0.6944444444444429,0.6555555555555657,1.0042372881355748,0.020451588161727784,0.7932660698412247,38.888888888888886,1.1666666666316665,1.0593220338982863,0.0,0.9499895541019061,0
112,74.83611111111111,0.6944444444444429,0.6888888888888971,0.6555555555555657,1.0593220338982863,0.022269556912121704,0.8637805411045318,38.888888888888886,1.1666666666316665,1.050847457627115,0.0,0.9470357612502899,0
113,75.525,0.6888888888888971,0.6861111111111029,0.6555555555555657,1.050847457627115,0.021328887640044515,0.8272943273894774,36.111111111111114,1.0833333333008335,1.0466101694914967,0.0,0.9518325043355774,0
114,76.21111111111111,0.6861111111111029,0.7111111111111086,0.6555555555555657,1.0466101694914967,0.022094366527294598,0.8569853432476809,36.111111111111114,1.0833333333008335,1.0847457627118438,0.0,0.9457019350443241,0
115,76.92222222222222,0.7111111111111086,0.6888888888888971,0.6555555555555657,1.0847457627118438,0.022986393397711528,0.8915848395847237,38.888888888888886,1.1666666666316665,1.050847457627115,0.0,0.9469295053685469,0
116,77.61111111111111,0.6888888888888971,0.6638888888888914,0.6555555555555657,1.050847457627115,0.022066018581412654,0.8558857971664664,38.888888888888886,1.1666666666316665,1.0127118644067679,0.0,0.9500355836720358,0
117,78.275,0.6638888888888914,0.6583333333333314,0.6555555555555657,1.0127118644067679,0.02075742322135502,0.8051286486224737,36.111111111111114,1.0833333333008335,1.0042372881355748,0.0,0.9557454978743164,0
118,78.93333333333334,0.6583333333333314,0.6527777777777715,0.6555555555555657,1.0042372881355748,0.020581313643708507,0.7982977975699144,36.111111111111114,1.0833333333008335,0.9957627118643818,0.0,0.9566799110269437,0
119,79.58611111111111,0.6527777777777715,0.6527777777777857,0.6555555555555657,0.9957627118643818,0.020695952154268286,0.8027443393252577,36.111111111111114,1.0833333333008335,0.9957627118644035,0.0,0.9532719494681943,0
120,80.2388888888889,0.6527777777777857,0.6499999999999915,0.6555555555555657,0.9957627118644035,0.02088448849391809,0.8100571934661468,36.111111111111114,1.0833333333008335,0.9915254237287853,0.0,0.9541858296212912,0
121,80.88888888888889,0.6499999999999915,0.6444444444444457,0.6555555555555657,0.9915254237287853,0.020780773293620533,0.8060343396578151,36.111111111111114,1.0833333333008335,0.9830508474576138,0.0,0.9528880101736846,0
122,81.53333333333333,0.6444444444444457,0.6638888888888914,0.6555555555555657,0.9830508474576138,0.022441361457276068,0.8704444106895112,36.111111111111114,1.0833333333008335,1.0127118644067679,0.0,0.9450610683266987,0
123,82.19722222222222,0.6638888888888914,0.6694444444444372,0.6555555555555657,1.0127118644067679,0.022005807003714694,0.8535503403197076,38.888888888888886,1.1666666666316665,1.0211864406779392,0.0,0.9506805550260544,0
124,82.86666666666666,0.6694444444444372,0.6888888888888971,0.6555555555555657,1.0211864406779392,0.022927115089542982,0.8892855819341272,38.888888888888886,1.1666666666316665,1.050847457627115,0.0,0.9486970735614784,0
125,83.55555555555556,0.6888888888888971,0.6555555555555515,0.6555555555555657,1.050847457627115,0.021317841972606305,0.8268658935129397,38.888888888888886,1.1666666666316665,0.9999999999999784,0.0,0.9509463086548937,0
126,84.21111111111111,0.6555555555555515,0.63055555555556,0.6555555555555657,0.9999999999999784,0.021593843095225246,0.8375712883253295,36.111111111111114,1.0833333333008335,0.9618644067796529,0.0,0.9536527320217816,0
127,84.84166666666667,0.63055555555556,0.6388888888888857,0.6555555555555657,0.9618644067796529,0.021082747124865717,0.8177471510254447,38.888888888888886,1.1666666666316665,0.9745762711864209,0.0,0.9489115517709659,0
128,85.48055555555555,0.6388888888888857,0.62222222222222,0.6555555555555657,0.9745762711864209,0.01969591393581409,0.7639553523296794,33.333333333333336,0.9999999999700001,0.9491525423728634,0.0,0.9478659093369448,0
129,86.10277777777777,0.62222222222222,0.63333333333334,0.6555555555555657,0.9491525423728634,0.0217089754194659,0.8420369838810899,38.888888888888886,1.1666666666316665,0.9661016949152494,0.0,0.9561273528944485,0
130,86.73611111111111,0.63333333333334,0.6694444444444372,0.6555555555555657,0.9661016949152494,0.022065870114289295,0.8558800384972366,41.666666666666664,1.2499999999625,1.0211864406779392,0.0,0.9510380666581284,0
131,87.40555555555555,0.6694444444444372,0.7111111111111086,0.6555555555555657,1.0211864406779392,0.02259307080693768,0.8763288377869356,38.888888888888886,1.1666666666316665,1.0847457627118438,0.0,0.9490789020196099,0
132,88.11666666666666,0.7111111111111086,0.6944444444444571,0.6555555555555657,1.0847457627118438,0.021959414203761754,0.8517508793782601,36.111111111111114,1.0833333333008335,1.059322033898308,0.0,0.9534862438416918,0
133,88.81111111111112,0.6944444444444571,0.6444444444444315,0.6555555555555657,1.059322033898308,0.021791712493442066,0.8452461485182919,38.888888888888886,1.1666666666316665,0.9830508474575922,0.0,0.9518407942109917,0
134,89.45555555555555,0.6444444444444315,0.6222222222222342,0.6555555555555657,0.9830508474575922,0.021462502726344385,0.8324769231635769,36.111111111111114,1.0833333333008335,0.949152542372885,0.0,0.953104010384684,0
135,90.07777777777778,0.6222222222222342,0.6083333333333343,0.6555555555555657,0.949152542372885,0.02071807095625933,0.8036022724591678,36.111111111111114,1.0833333333008335,0.9279661016949023,0.0,0.9511062061275134,0
136,90.68611111111112,0.6083333333333343,0.61944444444444,0.6555555555555657,0.9279661016949023,0.02106771732120621,0.8171641824469079,36.111111111111114,1.0833333333008335,0.9449152542372669,0.0,0.9502564829487521,0
137,91.30555555555556,0.61944444444444,0.6111111111111143,0.6555555555555657,0.9449152542372669,0.020774568034034376,0.8057936531230908,36.111111111111114,1.0833333333008335,0.9322033898304989,0.0,0.9574442939692525,0
138,91.91666666666667,0.6111111111111143,0.61944444444444,0.6555555555555657,0.9322033898304989,0.021169700067775563,0.8211198386982926,36.111111111111114,1.0833333333008335,0.9449152542372669,0.0,0.9482467446748006,0
139,92.53611111111111,0.61944444444444,0.6444444444444457,0.6555555555555657,0.9449152542372669,0.020333394252113335,0.7886816230287038,36.111111111111114,1.0833333333008335,0.9830508474576138,0.0,0.9496043518848993,0
140,93.18055555555556,0.6444444444444457,0.6694444444444372,0.6555555555555657,0.9830508474576138,0.02067653239628606,0.8019910953732473,38.888888888888886,1.1666666666316665,1.0211864406779392,0.0,0.945963774971956,0
141,93.85,0.6694444444444372,0.6500000000000057,0.6555555555555657,1.0211864406779392,0.022160788026378,0.8595616674487254,38.888888888888886,1.1666666666316665,0.9915254237288069,0.0,0.9549091169413221,0
142,94.5,0.6500000000000057,0.6722222222222172,0.6555555555555657,0.9915254237288069,0.021609131991806196,0.8381643064717479,36.111111111111114,1.0833333333008335,1.0254237288135357,0.0,0.9504445663482652,0
143,95.17222222222222,0.6722222222222172,0.6638888888888914,0.6555555555555657,1.0254237288135357,0.02129964405897617,0.8261600418543531,36.111111111111114,1.0833333333008335,1.0127118644067679,0.0,0.9497146079478064,0
144,95.83611111111111,0.6638888888888914,0.6388888888888857,0.6555555555555657,1.0127118644067679,0.02216634518857812,0.8597772159031094,38.888888888888886,1.1666666666316665,0.9745762711864209,0.0,0.9509503212873808,0
145,96.475,0.6388888888888857,0.63055555555556,0.6555555555555657,0.9745762711864209,0.02062312430168906,0.7999195286585432,36.111111111111114,1.0833333333008335,0.9618644067796529,0.0,0.9555346418970594,0
146,97.10555555555555,0.63055555555556,0.6444444444444457,0.6555555555555657,0.9618644067796529,0.021016850087921885,0.8151911694020498,38.888888888888886,1.1666666666316665,0.9830508474576138,0.0,0.9485876115448213,0
147,97.75,0.6444444444444457,0.6555555555555515,0.6555555555555657,0.9830508474576138,0.02135545751285674,0.8283249064533263,36.111111111111114,1.0833333333008335,0.9999999999999784,0.0,0.9510215071383068,0
148,98.40555555555555,0.6555555555555515,0.6472222222222257,0.6555555555555657,0.9999999999999784,0.02032958295541553,0.7885337923405168,38.888888888888886,1.1666666666316665,0.9872881355932104,0.0,0.9539015615501412,0
149,99.05277777777778,0.6472222222222257,0.6722222222222172,0.6555555555555657,0.9872881355932104,0.02101513666143103,0.8151247098641591,36.111111111111114,1.0833333333008335,1.0254237288135357,0.0,0.9543815838774918,0
150,99.725,0.6722222222222172,0.7027777777777828,0.6555555555555657,1.0254237288135357,0.02244504635099542,0.8705873385215904,38.888888888888886,1.1666666666316665,1.072033898305076,0.0,0.9506925554439829,0
151,100.42777777777778,0.7027777777777828,0.6944444444444429,0.6555555555555657,1.072033898305076,0.0215292747493361,0.8350668433123265,36.111111111111114,1.0833333333008335,1.0593220338982863,0.0,0.9485470334825415,0
152,101.12222222222222,0.6944444444444429,0.61944444444444,0.6555555555555657,1.0593220338982863,0.021149440109029936,0.8203340054553093,36.111111111111114,1.0833333333008335,0.9449152542372669,0.0,0.9525776915873936,0
153,101.74166666666666,0.61944444444444,0.6222222222222342,0.6555555555555657,0.9449152542372669,0.02164115694185682,0.8394064743690587,36.111111111111114,1.0833333333008335,0.949152542372885,0.0,0.9358863229853365,0
154,102.3638888888889,0.6222222222222342,0.6083333333333343,0.6555555555555657,0.949152542372885,0.02115392390357606,0.8205079206568796,38.888888888888886,1.1666666666316665,0.9279661016949023,0.0,0.9473660861997655,0
155,102.97222222222223,0.6083333333333343,0.6305555555555458,0.6555555555555657,0.9279661016949023,0.02162666868155617,0.8388445109060431,36.111111111111114,1.0833333333008335,0.9618644067796313,0.0,0.9498930610304746,0
156,103.60277777777777,0.6305555555555458,0.6583333333333314,0.6555555555555657,0.9618644067796313,0.027507363691522003,1.066941995639297,38.888888888888886,1.1666666666316665,1.0042372881355748,0.0,0.9455683039855429,0
157,104.2611111111111,0.6583333333333314,0.6416666666666657,0.6555555555555657,1.0042372881355748,0.021702388358727752,0.8417814882324275,33.333333333333336,0.9999999999700001,0.9788135593220174,0.0,0.9599667267824126,0
158,104.90277777777777,0.6416666666666657,0.6833333333333371,0.6555555555555657,0.9788135593220174,0.02094095487871918,0.8122473836262012,33.333333333333336,0.9999999999700001,1.0423728813559219,0.0,0.9399481816137227,0
159,105.58611111111111,0.6833333333333371,0.63333333333334,0.6555555555555657,1.0423728813559219,0.020132238824796766,0.7808793059669287,33.333333333333336,0.9999999999700001,0.9661016949152494,0.0,0.9403633094597479,0
160,106.21944444444445,0.63333333333334,0.6111111111111001,0.6555555555555657,0.9661016949152494,0.021518025249427895,0.8346305032829218,36.111111111111114,1.0833333333008335,0.9322033898304772,0.0,0.9551679889307406,0
161,106.83055555555555,0.6111111111111001,0.6222222222222342,0.6555555555555657,0.9322033898304772,0.021854380265203862,0.8476768750035932,36.111111111111114,1.0833333333008335,0.949152542372885,0.0,0.9490437233833586,0
162,107.45277777777778,0.6222222222222342,0.62222222222222,0.6555555555555657,0.949152542372885,0.0272871716351756,1.0584012952415136,33.333333333333336,0.9999999999700001,0.9491525423728634,0.0,0.9986899826397816,0
163,108.075,0.62222222222222,0.61666666666666,0.6555555555555657,0.9491525423728634,0.026925323135524693,1.0443660948978466,36.111111111111114,1.0833333333008335,0.9406779661016703,0.0,0.9946378078033311,0
164,108.69166666666666,0.61666666666666,0.6138888888888943,0.6555555555555657,0.9406779661016703,0.024924776342650508,0.9667698769725047,30.555555555555557,0.9166666666391667,0.9364406779660954,0.0,0.9936192139015626,0
165,109.30555555555556,0.6138888888888943,0.6027777777777743,0.6555555555555657,0.9364406779660954,0.027675177421449558,1.0734510714603203,33.333333333333336,0.9999999999700001,0.9194915254237094,0.0,0.997439089186465,0
166,109.90833333333333,0.6027777777777743,0.6694444444444514,0.6555555555555657,0.9194915254237094,0.02458464879644163,0.953577178210324,30.555555555555557,0.9166666666391667,1.021186440677961,0.0,0.9896856393909059,0
167,110.57777777777778,0.6694444444444514,0.73888888888888,0.6555555555555657,1.021186440677961,0.02639866247686718,1.023938242179051,36.111111111111114,1.0833333333008335,1.1271186440677659,0.0,0.9989412221414192,0
168,111.31666666666666,0.73888888888888,0.75555555555556,0.6555555555555657,1.1271186440677659,0.022114595648293062,0.8577699803714044,38.888888888888886,1.1666666666316665,1.1525423728813449,0.0,0.9461262371781322,0
169,112.07222222222222,0.75555555555556,0.7638888888888857,0.6555555555555657,1.1525423728813449,0.02213878993093161,0.8587084162204708,38.888888888888886,1.1666666666316665,1.1652542372881127,0.0,0.9503123039723869,0
170,112.83611111111111,0.7638888888888857,0.7305555555555543,0.6555555555555657,1.1652542372881127,0.024538827508126814,0.9517998847791675,36.111111111111114,1.0833333333008335,1.1144067796609978,0.0,0.9317915992117752,0
171,113.56666666666666,0.7305555555555543,0.6472222222222257,0.6555555555555657,1.1144067796609978,0.021834551933527912,0.8469077834975592,36.111111111111114,1.0833333333008335,0.9872881355932104,0.0,0.9499571553786443,0
172,114.21388888888889,0.6472222222222257,0.61944444444444,0.6555555555555657,0.9872881355932104,0.020410695237237864,0.7916799353445827,36.111111111111114,1.0833333333008335,0.9449152542372669,0.0,0.9600391732573439,0
173,114.83333333333333,0.61944444444444,0.5972222222222285,0.6555555555555657,0.9449152542372669,0.021617940248326195,0.8385059567620099,38.888888888888886,1.1666666666316665,0.911016949152538,0.0,0.9517323817539527,0
174,115.43055555555556,0.5972222222222285,0.6055555555555543,0.6555555555555657,0.911016949152538,0.020308400223166642,0.7877121670160336,36.111111111111114,1.0833333333008335,0.9237288135593059,0.0,0.9506070156868272,0
175,116.03611111111111,0.6055555555555543,0.6500000000000057,0.6555555555555657,0.9237288135593059,0.021605554305072352,0.8380255369311118,36.111111111111114,1.0833333333008335,0.9915254237288069,0.0,0.9496370236390639,0
176,116.68611111111112,0.6500000000000057,0.7305555555555543,0.6555555555555657,0.9915254237288069,0.020477146688091013,0.7942574213000339,36.111111111111114,1.0833333333008335,1.1144067796609978,0.0,0.9495858493092248,0
177,117.41666666666667,0.7305555555555543,0.7166666666666686,0.6555555555555657,1.1144067796609978,0.02177272773300409,0.8445097770355289,36.111111111111114,1.0833333333008335,1.0932203389830368,0.0,0.9369298689210135,0
178,118.13333333333334,0.7166666666666686,0.73888888888888,0.6555555555555657,1.0932203389830368,0.02156062039815731,0.8362826628100785,38.888888888888886,1.1666666666316665,1.1271186440677659,0.0,0.9502446734141152,0
179,118.87222222222222,0.73888888888888,0.6444444444444457,0.6555555555555657,1.1271186440677659,0.02850766584124447,1.1057412198701566,44.44444444444444,1.3333333332933333,0.9830508474576138,0.0,0.948664569860084,0
180,119.51666666666667,0.6444444444444457,0.625,0.6555555555555657,0.9830508474576138,0.02303094511129918,0.8933128893803138,38.888888888888886,1.1666666666316665,0.9533898305084599,0.0,0.9490800023435437,0
181,120.14166666666667,0.625,0.6388888888888857,0.6555555555555657,0.9533898305084599,0.021225911249531184,0.8233001301690478,38.888888888888886,1.1666666666316665,0.9745762711864209,0.0,0.9483607837575949,0
182,120.78055555555555,0.6388888888888857,0.63333333333334,0.6555555555555657,0.9745762711864209,0.021217405977978682,0.8229702319096055,36.111111111111114,1.0833333333008335,0.9661016949152494,0.0,0.9494112114696385,0
183,121.41388888888889,0.63333333333334,0.6361111111111057,0.6555555555555657,0.9661016949152494,0.02130528762984933,0.82637894188554,36.111111111111114,1.0833333333008335,0.9703389830508243,0.0,0.9517513056172437,0
184,122.05,0.6361111111111057,0.7166666666666686,0.6555555555555657,0.9703389830508243,0.020964092421037122,0.8131448311552243,38.888888888888886,1.1666666666316665,1.0932203389830368,0.0,0.9493425446476853,0
185,122.76666666666667,0.7166666666666686,0.6416666666666657,0.6555555555555657,1.0932203389830368,0.024702947607411364,0.9581656938846452,41.666666666666664,1.2499999999625,0.9788135593220174,0.0,0.9427979167349926,0
186,123.40833333333333,0.6416666666666657,0.7000000000000028,0.6555555555555657,0.9788135593220174,0.023975054263937628,0.9299325274784516,36.111111111111114,1.0833333333008335,1.0677966101694794,0.0,0.930133078030556,0
187,124.10833333333333,0.7000000000000028,0.6944444444444429,0.6555555555555657,1.0677966101694794,0.021665973270633947,0.8403690378355849,36.111111111111114,1.0833333333008335,1.0593220338982863,0.0,0.956741946080082,0
188,124.80277777777778,0.6944444444444429,0.6666666666666714,0.6555555555555657,1.0593220338982863,0.027111542499244252,1.05158907932419,38.888888888888886,1.1666666666316665,1.0169491525423644,0.0,0.9299817754833144,0
189,125.46944444444445,0.6666666666666714,0.6555555555555515,0.6555555555555657,1.0169491525423644,0.020634460821883298,0.8003592439876925,36.111111111111114,1.0833333333008335,0.9999999999999784,0.0,0.9496953236321877,0
190,126.125,0.6555555555555515,0.61944444444444,0.6555555555555657,0.9999999999999784,0.01979243684274392,0.7676992350259467,36.111111111111114,1.0833333333008335,0.9449152542372669,0.0,0.9519838808029915,0
191,126.74444444444444,0.61944444444444,0.6027777777777885,0.6555555555555657,0.9449152542372669,0.019604070699216353,0.7603929823679312,36.111111111111114,1.0833333333008335,0.919491525423731,0.0,0.9526002911916625,0
192,127.34722222222223,0.6027777777777885,0.6055555555555543,0.6555555555555657,0.919491525423731,0.02067405812511274,0.8018951245687377,36.111111111111114,1.0833333333008335,0.9237288135593059,0.0,0.9468866134086862,0
193,127.95277777777778,0.6055555555555543,0.6527777777777715,0.6555555555555657,0.9237288135593059,0.020739854850197515,0.8044472153454382,33.333333333333336,0.9999999999700001,0.9957627118643818,0.0,0.9483121905523699,0
194,128.60555555555555,0.6527777777777715,0.6638888888888914,0.6555555555555657,0.9957627118643818,0.023123010136551398,0.8968838619705173,38.888888888888886,1.1666666666316665,1.0127118644067679,0.0,0.9518727462399721,0
195,129.26944444444445,0.6638888888888914,0.6666666666666572,0.6555555555555657,1.0127118644067679,0.021719998080570384,0.8424645253993525,38.888888888888886,1.1666666666316665,1.0169491525423429,0.0,0.9503448791772114,0
196,129.9361111111111,0.6666666666666572,0.6611111111111256,0.6555555555555657,1.0169491525423429,0.022165888165548,0.8597594891202277,38.888888888888886,1.1666666666316665,1.008474576271193,0.0,0.9526207930759181,0
197,130.59722222222223,0.6611111111111256,0.6444444444444457,0.6555555555555657,1.008474576271193,0.022636949709635184,0.8780307909270312,36.111111111111114,1.0833333333008335,0.9830508474576138,0.0,0.9433697882229146,0
198,131.24166666666667,0.6444444444444457,0.5749999999999886,0.6555555555555657,0.9830508474576138,0.023498467029274328,0.9114468979230248,38.888888888888886,1.1666666666316665,0.8771186440677657,0.0,0.9491742623004553,0
199,131.81666666666666,0.5749999999999886,0.61944444444444,0.6555555555555657,0.8771186440677657,0.024379602465237023,0.9456239426961046,38.888888888888886,1.1666666666316665,0.9449152542372669,0.0,0.9452762918743016,0
200,132.4361111111111,0.61944444444444,0.6555555555555657,0.6555555555555657,0.9449152542372669,0.025315650254985663,0.981930900644095,41.666666666666664,1.2499999999625,1.0,0.0,0.9437925967101435,0
201,133.09166666666667,0.6555555555555657,0.6916666666666629,0.6555555555555657,1.0,0.023081005110429254,0.895254591826703,38.888888888888886,1.1666666666316665,1.0550847457626897,0.0,0.9392044075183351,0
202,133.78333333333333,0.6916666666666629,0.6638888888888914,0.6555555555555657,1.0550847457626897,0.02277069032756081,0.8832182557596419,38.888888888888886,1.1666666666316665,1.0127118644067679,0.0,0.9532679682375633,0
203,134.44722222222222,0.6638888888888914,0.6833333333333371,0.6555555555555657,1.0127118644067679,0.022976428792378052,0.891198337409543,38.888888888888886,1.1666666666316665,1.0423728813559219,0.0,0.9456953805378503,0
204,135.13055555555556,0.6833333333333371,0.6805555555555429,0.6555555555555657,1.0423728813559219,0.021722510389115976,0.842561971578614,36.111111111111114,1.0833333333008335,1.0381355932203038,0.0,0.951805501244477,0
205,135.8111111111111,0.6805555555555429,0.6638888888888914,0.6555555555555657,1.0381355932203038,0.02263985553892712,0.8781435007940506,38.888888888888886,1.1666666666316665,1.0127118644067679,0.0,0.9513462092521483,0
206,136.475,0.6638888888888914,0.6527777777777715,0.6555555555555657,1.0127118644067679,0.02145771394368904,0.8322911782343182,36.111111111111114,1.0833333333008335,0.9957627118643818,0.0,0.9470939310144098,0
207,137.12777777777777,0.6527777777777715,0.63611111111112,0.6555555555555657,0.9957627118643818,0.02147513132172021,0.8329667548647719,36.111111111111114,1.0833333333008335,0.970338983050846,0.0,0.949342552418071,0
208,137.76388888888889,0.63611111111112,0.5999999999999943,0.6555555555555657,0.970338983050846,0.02030371900575666,0.7875305942742239,36.111111111111114,1.0833333333008335,0.9152542372881128,0.0,0.951274852901022,0
209,138.36388888888888,0.5999999999999943,0.5916666666666686,0.6555555555555657,0.9152542372881128,0.0210407974138526,0.816120026416676,36.111111111111114,1.0833333333008335,0.9025423728813449,0.0,0.9546244641378269,0
210,138.95555555555555,0.5916666666666686,0.5944444444444628,0.6555555555555657,0.9025423728813449,0.020439402746385945,0.7927934279876354,36.111111111111114,1.0833333333008335,0.9067796610169632,0.0,0.9554440417098958,0
211,139.55,0.5944444444444628,0.6416666666666515,0.6555555555555657,0.9067796610169632,0.020639390789772834,0.8005504651398715,36.111111111111114,1.0833333333008335,0.9788135593219957,0.0,0.9536267537081624,0
212,140.19166666666666,0.6416666666666515,0.6944444444444571,0.6555555555555657,0.9788135593219957,0.02216876146706712,0.8598709373161094,36.111111111111114,1.0833333333008335,1.059322033898308,0.0,0.9458685015370916,0
213,140.88611111111112,0.6944444444444571,0.6777777777777771,0.6555555555555657,1.059322033898308,0.020631731777956318,0.800253391183829,36.111111111111114,1.0833333333008335,1.0338983050847288,0.0,0.9538293075130375,0
214,141.5638888888889,0.6777777777777771,0.674999999999983,0.6555555555555657,1.0338983050847288,0.022473956425876775,0.8717086881839539,38.888888888888886,1.1666666666316665,1.0296610169491107,0.0,0.9419801381713557,0
215,142.23888888888888,0.674999999999983,0.6805555555555713,0.6555555555555657,1.0296610169491107,0.02072837178394592,0.8040018158604155,36.111111111111114,1.0833333333008335,1.038135593220347,0.0,0.9561971879166149,0
216,142.91944444444445,0.6805555555555713,0.6777777777777771,0.6555555555555657,1.038135593220347,0.02141773759447129,0.830740595405259,36.111111111111114,1.0833333333008335,1.0338983050847288,0.0,0.9420985756907595,0
217,143.59722222222223,0.6777777777777771,0.6333333333333258,0.6555555555555657,1.0338983050847288,0.02048972915180637,0.7947454636692363,36.111111111111114,1.0833333333008335,0.9661016949152278,0.0,0.9532320862067417,0
218,144.23055555555555,0.6333333333333258,0.6444444444444457,0.6555555555555657,0.9661016949152278,0.021742864974908904,0.8433514751686294,36.111111111111114,1.0833333333008335,0.9830508474576138,0.0,0.9437927572932411,0
219,144.875,0.6444444444444457,0.6611111111110972,0.6555555555555657,0.9830508474576138,0.02087130545745606,0.8095458563787719,36.111111111111114,1.0833333333008335,1.0084745762711498,0.0,0.9523379129378559,0
220,145.5361111111111,0.6611111111110972,0.6055555555555827,0.6555555555555657,1.0084745762711498,0.021210985972221052,0.8227212159067678,38.888888888888886,1.1666666666316665,0.9237288135593492,0.0,0.954035240740947,0
221,146.14166666666668,0.6055555555555827,0.6166666666666458,0.6555555555555657,0.9237288135593492,0.02050807377726535,0.7954570059135587,36.111111111111114,1.0833333333008335,0.9406779661016487,0.0,0.9527906393569431,0
222,146.75833333333333,0.6166666666666458,0.6333333333333542,0.6555555555555657,0.9406779661016487,0.02026447165698415,0.7860082875532858,36.111111111111114,1.0833333333008335,0.9661016949152711,0.0,0.9509261147897359,0
223,147.39166666666668,0.6333333333333542,0.6611111111110972,0.6555555555555657,0.9661016949152711,0.021851412914098586,0.8475617788589561,36.111111111111114,1.0833333333008335,1.0084745762711498,0.0,0.9422193365036521,0
224,148.05277777777778,0.6611111111110972,0.6500000000000057,0.6555555555555657,1.0084745762711498,0.021109206049874332,0.818773426700851,36.111111111111114,1.0833333333008335,0.9915254237288069,0.0,0.948522371889627,0
225,148.70277777777778,0.6500000000000057,0.625,0.6555555555555657,0.9915254237288069,0.023257919761057247,0.9021166696512324,38.888888888888886,1.1666666666316665,0.9533898305084599,0.0,0.9450403940733683,0
226,149.32777777777778,0.625,0.63055555555556,0.6555555555555657,0.9533898305084599,0.022133430178685583,0.8585005248055887,38.888888888888886,1.1666666666316665,0.9618644067796529,0.0,0.9508656730856486,0
227,149.95833333333334,0.63055555555556,0.6027777777777601,0.6555555555555657,0.9618644067796529,0.021286293891551265,0.8256422221739873,36.111111111111114,1.0833333333008335,0.9194915254236876,0.0,0.9467894127254476,0
228,150.5611111111111,0.6027777777777601,0.5861111111111086,0.6555555555555657,0.9194915254236876,0.021682428159301697,0.8410072819054302,36.111111111111114,1.0833333333008335,0.8940677966101519,0.0,0.9483653478186411,0
229,151.1472222222222,0.5861111111111086,0.5861111111111086,0.6555555555555657,0.8940677966101519,0.02316643282618715,0.898568119744383,36.111111111111114,1.0833333333008335,0.8940677966101519,0.0,0.9323536780320946,0
230,151.73333333333332,0.5861111111111086,0.6138888888889085,0.6555555555555657,0.8940677966101519,0.02426222038782638,0.9410709848289209,30.555555555555557,0.9166666666391667,0.9364406779661171,0.0,0.9959676473175485,0
231,152.34722222222223,0.6138888888889085,0.6388888888888857,0.6555555555555657,0.9364406779661171,0.026230840192414943,1.0174288345493625,36.111111111111114,1.0833333333008335,0.9745762711864209,0.0,0.9984495907652602,0
232,152.98611111111111,0.6388888888888857,0.63611111111112,0.6555555555555657,0.9745762711864209,0.026082186228804743,1.011662918252453,33.333333333333336,0.9999999999700001,0.970338983050846,0.0,0.9978069752439497,0
233,153.62222222222223,0.63611111111112,0.6111111111110858,0.6555555555555657,0.970338983050846,0.02600883632623139,1.0088178585691916,33.333333333333336,0.9999999999700001,0.9322033898304556,0.0,0.9985381346824826,0
234,154.23333333333332,0.6111111111110858,0.6111111111111143,0.6555555555555657,0.9322033898304556,0.026196764202378726,1.0161071119291816,33.333333333333336,0.9999999999700001,0.9322033898304989,0.0,0.9995323959598446,0
235,154.84444444444443,0.6111111111111143,0.6083333333333485,0.6555555555555657,0.9322033898304989,0.026787870111696453,1.039034635104222,33.333333333333336,0.9999999999700001,0.9279661016949241,0.0,0.9992308164084515,0
236,155.45277777777778,0.6083333333333485,0.5916666666666686,0.6555555555555657,0.9279661016949241,0.02708391766109677,1.05051758078755,33.333333333333336,0.9999999999700001,0.9025423728813449,0.0,0.9973525156603513,0
237,156.04444444444445,0.5916666666666686,0.5777777777777828,0.6555555555555657,0.9025423728813449,0.026283614007288,1.019475799136358,33.333333333333336,0.9999999999700001,0.8813559322033839,0.0,0.9988966332781941,0
238,156.62222222222223,0.5777777777777828,0.5611111111111029,0.6555555555555657,0.8813559322033839,0.02568936801482928,0.9964264799720511,33.333333333333336,0.9999999999700001,0.8559322033898048,0.0,0.9969977195802435,0
239,157.18333333333334,0.5611111111111029,0.5722222222222229,0.6555555555555657,0.8559322033898048,0.024962556052542793,0.9682352576436292,30.555555555555557,0.9166666666391667,0.8728813559321908,0.0,0.9941895283698606,0
240,157.75555555555556,0.5722222222222229,0.5416666666666572,0.6555555555555657,0.8728813559321908,0.024757559106746495,0.9602839376661617,33.333333333333336,0.9999999999700001,0.8262711864406508,0.0,0.9951302303390762,0
241,158.29722222222222,0.5416666666666572,0.5611111111111029,0.6555555555555657,0.8262711864406508,0.02543611135108986,0.9866032859630095,30.555555555555557,0.9166666666391667,0.8559322033898048,0.0,0.9958212235690694,0
242,158.85833333333332,0.5611111111111029,0.580555555555577,0.6555555555555657,0.8559322033898048,0.025173877128850598,0.9764318748623845,33.333333333333336,0.9999999999700001,0.8855932203390021,0.0,0.99827833670652,0
243,159.4388888888889,0.580555555555577,0.5916666666666686,0.6555555555555657,0.8855932203390021,0.02584674696907862,1.0025308168834859,33.333333333333336,0.9999999999700001,0.9025423728813449,0.0,0.9985318108982867,0
244,160.03055555555557,0.5916666666666686,0.6222222222222058,0.6555555555555657,0.9025423728813449,0.026789672994464647,1.0391045644278813,33.333333333333336,0.9999999999700001,0.9491525423728416,0.0,0.9987071484091007,0
245,160.65277777777777,0.6222222222222058,0.6277777777777942,0.6555555555555657,0.9491525423728416,0.026034781636261727,1.0098242124012666,30.555555555555557,0.9166666666391667,0.9576271186440781,0.0,0.9993368365654693,0
246,161.28055555555557,0.6277777777777942,0.6083333333333201,0.6555555555555657,0.9576271186440781,0.025923812841886797,1.0055200097793133,33.333333333333336,0.9999999999700001,0.9279661016948807,0.0,0.9874699606713165,0
247,161.88888888888889,0.6083333333333201,0.5861111111111086,0.6555555555555657,0.9279661016948807,0.024810738032850155,0.9623466155068768,30.555555555555557,0.9166666666391667,0.8940677966101519,0.0,0.9923820930059999,0
248,162.475,0.5861111111111086,0.5694444444444571,0.6555555555555657,0.8940677966101519,0.025253985565171243,0.9795390812044388,30.555555555555557,0.9166666666391667,0.8686440677966161,0.0,0.9969538744425086,0
249,163.04444444444445,0.5694444444444571,0.5999999999999943,0.6555555555555657,0.8686440677966161,0.0247288893078821,0.9591719077109107,30.555555555555557,0.9166666666391667,0.9152542372881128,0.0,0.9928192902313728,0
250,163.64444444444445,0.5999999999999943,0.6166666666666742,0.6555555555555657,0.9152542372881128,0.02582506685792519,1.0016898994724563,33.333333333333336,0.9999999999700001,0.940677966101692,0.0,0.9972688758780027,0
251,164.26111111111112,0.6166666666666742,0.6388888888888857,0.6555555555555657,0.940677966101692,0.02631868301813994,1.0208360385559938,33.333333333333336,0.9999999999700001,0.9745762711864209,0.0,0.9946484562472186,0
252,164.9,0.6388888888888857,0.63055555555556,0.6555555555555657,0.9745762711864209,0.025328548718802447,0.9824311998686842,30.555555555555557,0.9166666666391667,0.9618644067796529,0.0,0.997412969105004,0
253,165.53055555555557,0.63055555555556,0.6055555555555543,0.6555555555555657,0.9618644067796529,0.026775431884641456,1.0385521873151464,33.333333333333336,0.9999999999700001,0.9237288135593059,0.0,0.9988788169015455,0
254,166.13611111111112,0.6055555555555543,0.63055555555556,0.6555555555555657,0.9237288135593059,0.026536525947137707,1.0292856221659428,30.555555555555557,0.9166666666391667,0.9618644067796529,0.0,0.9932831039106866,0
255,166.76666666666668,0.63055555555556,0.6361111111110915,0.6555555555555657,0.9618644067796529,0.02675678919529286,1.0378290839163353,33.333333333333336,0.9999999999700001,0.9703389830508027,0.0,0.9995064285982611,0
256,167.40277777777777,0.6361111111110915,0.6027777777777885,0.6555555555555657,0.9703389830508027,0.026877990711688306,1.0425301882907003,33.333333333333336,0.9999999999700001,0.919491525423731,0.0,0.9991981090805186,0
257,168.00555555555556,0.6027777777777885,0.5999999999999943,0.6555555555555657,0.919491525423731,0.026122515713442138,1.013227198323225,33.333333333333336,0.9999999999700001,0.9152542372881128,0.0,0.9990193741112283,0
258,168.60555555555555,0.5999999999999943,0.5888888888889028,0.6555555555555657,0.9152542372881128,0.026264908236776678,1.0187502489766578,33.333333333333336,0.9999999999700001,0.8983050847457701,0.0,0.9949940237961307,0
259,169.19444444444446,0.5888888888889028,0.5888888888888744,0.6555555555555657,0.8983050847457701,0.025206551991927964,0.9776992512642078,33.333333333333336,0.9999999999700001,0.8983050847457267,0.0,0.9963863262906718,0
260,169.78333333333333,0.5888888888888744,0.6111111111111143,0.6555555555555657,0.8983050847457267,0.024618181129217525,0.9548778137220209,30.555555555555557,0.9166666666391667,0.9322033898304989,0.0,0.991920085794497,0
261,170.39444444444445,0.6111111111111143,0.61944444444444,0.6555555555555657,0.9322033898304989,0.024574865977288116,0.9531977270674343,30.555555555555557,0.9166666666391667,0.9449152542372669,0.0,0.9943367314270323,0
262,171.01388888888889,0.61944444444444,0.6444444444444457,0.6555555555555657,0.9449152542372669,0.025855964850240176,1.0028883554914152,30.555555555555557,0.9166666666391667,0.9830508474576138,0.0,0.9932712190632207,0
263,171.65833333333333,0.6444444444444457,0.6472222222222115,0.6555555555555657,0.9830508474576138,0.02637414591409823,1.022987305887945,30.555555555555557,0.9166666666391667,0.9872881355931887,0.0,0.9969703841769251,0
264,172.30555555555554,0.6472222222222115,0.6527777777777999,0.6555555555555657,0.9872881355931887,0.027037901358772393,1.0487327232496013,36.111111111111114,1.0833333333008335,0.9957627118644251,0.0,0.9946725724653032,0
265,172.95833333333334,0.6527777777777999,0.63055555555556,0.6555555555555657,0.9957627118644251,0.025880573909508073,1.0038428794908993,30.555555555555557,0.9166666666391667,0.9618644067796529,0.0,0.9977859961839126,0
266,173.5888888888889,0.63055555555556,0.6111111111110858,0.6555555555555657,0.9618644067796529,0.026240632852325953,1.0178086673906785,33.333333333333336,0.9999999999700001,0.9322033898304556,0.0,0.9957365188601739,0
267,174.2,0.6111111111110858,0.6083333333333485,0.6555555555555657,0.9322033898304556,0.025597334738421018,0.9928567388402785,30.555555555555557,0.9166666666391667,0.9279661016949241,0.0,0.9970075006476423,0
268,174.80833333333334,0.6083333333333485,0.6111111111111143,0.6555555555555657,0.9279661016949241,0.02493348901868945,0.9671078199344182,30.555555555555557,0.9166666666391667,0.9322033898304989,0.0,0.9951149207080099,0
269,175.41944444444445,0.6111111111111143,0.6083333333333201,0.6555555555555657,0.9322033898304989,0.025576058155888842,0.992031473297501,30.555555555555557,0.9166666666391667,0.9279661016948807,0.0,0.997316607319509,0
270,176.02777777777777,0.6083333333333201,0.63611111111112,0.6555555555555657,0.9279661016948807,0.025949341813610128,1.0065102148873915,33.333333333333336,0.9999999999700001,0.970338983050846,0.0,0.9961638706468678,0
271,176.6638888888889,0.63611111111112,0.6388888888888857,0.6555555555555657,0.970338983050846,0.026241076220751686,1.01782586454553,33.333333333333336,0.9999999999700001,0.9745762711864209,0.0,0.9992910449863132,0
272,177.30277777777778,0.6388888888888857,0.6388888888888857,0.6555555555555657,0.9745762711864209,0.027217293903488562,1.055690912402467,33.333333333333336,0.9999999999700001,0.9745762711864209,0.0,0.9988690503082489,0
273,177.94166666666666,0.6388888888888857,0.6638888888888914,0.6555555555555657,0.9745762711864209,0.027125114684451047,1.0521155105202913,33.333333333333336,0.9999999999700001,1.0127118644067679,0.0,0.9996547349655872,0
274,178.60555555555555,0.6638888888888914,0.6388888888888857,0.6555555555555657,1.0127118644067679,0.026507076565145865,1.0281433541265521,33.333333333333336,0.9999999999700001,0.9745762711864209,0.0,0.99890369829503,0
275,179.24444444444444,0.6388888888888857,0.6222222222222342,0.6555555555555657,0.9745762711864209,0.026448403946549542,1.0258675896630227,30.555555555555557,0.9166666666391667,0.949152542372885,0.0,0.9990398324774932,0
276,179.86666666666667,0.6222222222222342,0.6222222222222058,0.6555555555555657,0.949152542372885,0.026712532360526734,1.0361124717343906,33.333333333333336,0.9999999999700001,0.9491525423728416,0.0,0.9937886276928488,0
277,180.48888888888888,0.6222222222222058,0.5972222222222285,0.6555555555555657,0.9491525423728416,0.026856313911578472,1.0416893993067895,33.333333333333336,0.9999999999700001,0.911016949152538,0.0,0.9984470050982709,0
278,181.0861111111111,0.5972222222222285,0.6027777777777885,0.6555555555555657,0.911016949152538,0.02594492225726006,1.006338791325146,30.555555555555557,0.9166666666391667,0.919491525423731,0.0,0.9902939005055285,0
279,181.6888888888889,0.6027777777777885,0.5805555555555486,0.6555555555555657,0.919491525423731,0.025495184111571506,0.9888945709317554,30.555555555555557,0.9166666666391667,0.8855932203389588,0.0,0.9947108409305108,0
280,182.26944444444445,0.5805555555555486,0.6166666666666742,0.6555555555555657,0.8855932203389588,0.02704243051343894,1.048908397857051,30.555555555555557,0.9166666666391667,0.940677966101692,0.0,0.9932337385773462,0
281,182.88611111111112,0.6166666666666742,0.6666666666666572,0.6555555555555657,0.940677966101692,0.026408631225888178,1.0243249050775305,33.333333333333336,0.9999999999700001,1.0169491525423429,0.0,0.9988472274716463,0
282,183.55277777777778,0.6666666666666572,0.6666666666666572,0.6555555555555657,1.0169491525423429,0.026392084437556244,1.0236830964490382,33.333333333333336,0.9999999999700001,1.0169491525423429,0.0,0.9993475223709898,0
283,184.21944444444443,0.6666666666666572,0.6555555555555657,0.6555555555555657,1.0169491525423429,0.02703073209720905,1.0484546454837553,33.333333333333336,0.9999999999700001,1.0,0.0,0.9972308092504272,0
284,184.875,0.6555555555555657,0.6472222222222115,0.6555555555555657,1.0,0.026941811715917686,1.0450056457856396,33.333333333333336,0.9999999999700001,0.9872881355931887,0.0,0.9990806767415678,0
285,185.5222222222222,0.6472222222222115,0.6277777777777942,0.6555555555555657,0.9872881355931887,0.026671094169916757,1.0345051877256102,33.333333333333336,0.9999999999700001,0.9576271186440781,0.0,0.9996733382556333,0
286,186.15,0.6277777777777942,0.6055555555555543,0.6555555555555657,0.9576271186440781,0.026568507349867293,1.0305261009713387,33.333333333333336,0.9999999999700001,0.9237288135593059,0.0,0.9963543681922075,0
287,186.75555555555556,0.6055555555555543,0.5972222222222285,0.6555555555555657,0.9237288135593059,0.025947938972597173,1.0064558021851524,30.555555555555557,0.9166666666391667,0.911016949152538,0.0,0.994729843059851,0
288,187.3527777777778,0.5972222222222285,0.6527777777777715,0.6555555555555657,0.911016949152538,0.02602985899618661,1.0096332754767232,30.555555555555557,0.9166666666391667,0.9957627118643818,0.0,0.99708953351228,0
289,188.00555555555556,0.6527777777777715,0.6861111111111029,0.6555555555555657,0.9957627118643818,0.026390998489039197,1.023640975215941,33.333333333333336,0.9999999999700001,1.0466101694914967,0.0,0.9969530137307123,0
290,188.69166666666666,0.6861111111111029,0.6833333333333371,0.6555555555555657,1.0466101694914967,0.025132329522413753,0.9748203468867164,30.555555555555557,0.9166666666391667,1.0423728813559219,0.0,0.9973563667708772,0
291,189.375,0.6833333333333371,0.6694444444444514,0.6555555555555657,1.0423728813559219,0.027174994327807452,1.05405021741628,36.111111111111114,1.0833333333008335,1.021186440677961,0.0,0.9934333651899714,0
292,190.04444444444445,0.6694444444444514,0.6861111111111029,0.6555555555555657,1.021186440677961,0.025965368800916155,1.007131861731202,33.333333333333336,0.9999999999700001,1.0466101694914967,0.0,0.9932867320730903,0
293,190.73055555555555,0.6861111111111029,0.6888888888888971,0.6555555555555657,1.0466101694914967,0.02706343224516562,1.0497230026229467,33.333333333333336,0.9999999999700001,1.050847457627115,0.0,0.9993390129233483,0
294,191.41944444444445,0.6888888888888971,0.6583333333333314,0.6555555555555657,1.050847457627115,0.026646122473247033,1.0335365979262356,33.333333333333336,0.9999999999700001,1.0042372881355748,0.0,0.999544232214673,0
295,192.07777777777778,0.6583333333333314,0.6638888888888914,0.6555555555555657,1.0042372881355748,0.026195164910166654,1.0160450793751536,33.333333333333336,0.9999999999700001,1.0127118644067679,0.0,0.9969027000056812,0
296,192.74166666666667,0.6638888888888914,0.6861111111111029,0.6555555555555657,1.0127118644067679,0.025670255062687122,0.9956851362529728,33.333333333333336,0.9999999999700001,1.0466101694914967,0.0,0.9956907396938868,0
297,193.42777777777778,0.6861111111111029,0.6555555555555657,0.6555555555555657,1.0466101694914967,0.02606402435135085,1.010958464347218,33.333333333333336,0.9999999999700001,1.0,0.0,0.9931994313148522,0
298,194.08333333333334,0.6555555555555657,0.6527777777777715,0.6555555555555657,1.0,0.02489413500436549,0.9655813759229128,30.555555555555557,0.9166666666391667,0.9957627118643818,0.0,0.9967571569563773,0
299,194.73611111111111,0.6527777777777715,0.6916666666666629,0.6555555555555657,0.9957627118643818,0.02507802643158915,0.9727140655017198,33.333333333333336,0.9999999999700001,1.0550847457626897,0.0,0.9956551422151596,0
300,195.42777777777778,0.6916666666666629,0.7027777777777828,0.6555555555555657,1.0550847457626897,0.026380181490472908,1.023221410834324,33.333333333333336,0.9999999999700001,1.072033898305076,0.0,0.9983691466448829,0
301,196.13055555555556,0.7027777777777828,0.6861111111111029,0.6555555555555657,1.072033898305076,0.026896075394702627,1.0432316480162556,33.333333333333336,0.9999999999700001,1.0466101694914967,0.0,0.9985450533778442,0
302,196.81666666666666,0.6861111111111029,0.6833333333333371,0.6555555555555657,1.0466101694914967,0.027129777104749835,1.0522963541690642,33.333333333333336,0.9999999999700001,1.0423728813559219,0.0,0.996507705385006,0
303,197.5,0.6833333333333371,0.6750000000000114,0.6555555555555657,1.0423728813559219,0.027293611497945774,1.0586510814483165,36.111111111111114,1.0833333333008335,1.029661016949154,0.0,0.9944971277773536,0
304,198.175,0.6750000000000114,0.6611111111110972,0.6555555555555657,1.029661016949154,0.025328308142170193,0.9824218685014547,33.333333333333336,0.9999999999700001,1.0084745762711498,0.0,0.990832053651084,0
305,198.8361111111111,0.6611111111110972,0.6416666666666799,0.6555555555555657,1.0084745762711498,0.0247874390754656,0.9614429070902155,30.555555555555557,0.9166666666391667,0.9788135593220391,0.0,0.9945368756303753,0
306,199.4777777777778,0.6416666666666799,0.6527777777777715,0.6555555555555657,0.9788135593220391,0.025196557652396465,0.9773115957736846,30.555555555555557,0.9166666666391667,0.9957627118643818,0.0,0.997652951612544,0
307,200.13055555555556,0.6527777777777715,0.6555555555555372,0.6555555555555657,0.9957627118643818,0.026431832365158184,1.025224819373624,33.333333333333336,0.9999999999700001,0.9999999999999566,0.0,0.9979206082549078,0
308,200.7861111111111,0.6555555555555372,0.6583333333333599,0.6555555555555657,0.9999999999999566,0.027350105046762493,1.0608423252327521,33.333333333333336,0.9999999999700001,1.0042372881356183,0.0,0.9993752603502662,0
309,201.44444444444446,0.6583333333333599,0.6722222222222172,0.6555555555555657,1.0042372881356183,0.02931553837617663,1.137076579532717,36.111111111111114,1.0833333333008335,1.0254237288135357,0.0,0.992739126288131,0
310,202.11666666666667,0.6722222222222172,0.6916666666666629,0.6555555555555657,1.0254237288135357,0.031744028935364585,1.2312716682612588,38.888888888888886,1.1666666666316665,1.0550847457626897,0.0,0.9918641635305279,0
311,202.80833333333334,0.6916666666666629,0.674999999999983,0.6555555555555657,1.0550847457626897,0.03293989946088842,1.2776565017675634,38.888888888888886,1.1666666666316665,1.0296610169491107,0.0,0.9912279190894824,0
312,203.48333333333332,0.674999999999983,0.6611111111111256,0.6555555555555657,1.0296610169491107,0.030195647911383884,1.171213832175529,33.333333333333336,0.9999999999700001,1.008474576271193,0.0,0.9944377379872285,0
313,204.14444444444445,0.6611111111111256,0.6416666666666515,0.6555555555555657,1.008474576271193,0.029572225018936322,1.1470328138687753,33.333333333333336,0.9999999999700001,0.9788135593219957,0.0,0.9952324730906164,0
314,204.7861111111111,0.6416666666666515,0.6138888888889085,0.6555555555555657,0.9788135593219957,0.0313653713630102,1.2165844859328325,36.111111111111114,1.0833333333008335,0.9364406779661171,0.0,0.9932309078527153,0
315,205.4,0.6138888888889085,0.6111111111111143,0.6555555555555657,0.9364406779661171,0.031370146848226206,1.2167697150876018,36.111111111111114,1.0833333333008335,0.9322033898304989,0.0,0.9919452207192099,0
316,206.01111111111112,0.6111111111111143,0.6111111111111143,0.6555555555555657,0.9322033898304989,0.03263362347408866,1.2657768205215831,36.111111111111114,1.0833333333008335,0.9322033898304989,0.0,0.9891412097710521,0
317,206.62222222222223,0.6111111111111143,0.6388888888888857,0.6555555555555657,0.9322033898304989,0.03283765962678075,1.2736908737321044,36.111111111111114,1.0833333333008335,0.9745762711864209,0.0,0.9904347972924841,0
318,207.26111111111112,0.6388888888888857,0.6666666666666572,0.6555555555555657,0.9745762711864209,0.0325696291980095,1.2632946422439741,38.888888888888886,1.1666666666316665,1.0169491525423429,0.0,0.9874490256112671,0
319,207.92777777777778,0.6666666666666572,0.6694444444444514,0.6555555555555657,1.0169491525423429,0.03071835781011044,1.1914884447753402,36.111111111111114,1.0833333333008335,1.021186440677961,0.0,0.9929375579608182,0
320,208.59722222222223,0.6694444444444514,0.6888888888888687,0.6555555555555657,1.021186440677961,0.029684164204897966,1.1513746555588593,33.333333333333336,0.9999999999700001,1.0508474576270717,0.0,0.9911038601066737,0
321,209.2861111111111,0.6888888888888687,0.6777777777778056,0.6555555555555657,1.0508474576270717,0.028492643728698166,1.1051585496107084,36.111111111111114,1.0833333333008335,1.0338983050847723,0.0,0.9948232951210236,0
322,209.9638888888889,0.6777777777778056,0.6416666666666515,0.6555555555555657,1.0338983050847723,0.026990320064659675,1.0468871635854677,33.333333333333336,0.9999999999700001,0.9788135593219957,0.0,0.9989022412280304,0
323,210.60555555555555,0.6416666666666515,0.6333333333333258,0.6555555555555657,0.9788135593219957,0.025672922446789575,0.9957885974261089,33.333333333333336,0.9999999999700001,0.9661016949152278,0.0,0.9991145873275945,0
324,211.23888888888888,0.6333333333333258,0.6222222222222342,0.6555555555555657,0.9661016949152278,0.025414553021601408,0.9857670921588702,33.333333333333336,0.9999999999700001,0.949152542372885,0.0,0.9925831618743041,0
325,211.86111111111111,0.6222222222222342,0.6500000000000057,0.6555555555555657,0.949152542372885,0.025030790806782707,0.9708819134873925,33.333333333333336,0.9999999999700001,0.9915254237288069,0.0,0.9962592547761208,0
326,212.51111111111112,0.6500000000000057,0.674999999999983,0.6555555555555657,0.9915254237288069,0.025703966325158607,0.9969927120010599,33.333333333333336,0.9999999999700001,1.0296610169491107,0.0,0.9989581105443063,0
327,213.1861111111111,0.674999999999983,0.6527777777777999,0.6555555555555657,1.0296610169491107,0.026296876319538053,1.0199902111337253,33.333333333333336,0.9999999999700001,0.9957627118644251,0.0,0.9972626800989253,0
328,213.8388888888889,0.6527777777777999,0.6611111111110972,0.6555555555555657,0.9957627118644251,0.026616276655348034,1.0323789531272736,33.333333333333336,0.9999999999700001,1.0084745762711498,0.0,0.9939935281665508,0
329,214.5,0.6611111111110972,0.6777777777777771,0.6555555555555657,1.0084745762711498,0.026664707696281837,1.0342574723501363,33.333333333333336,0.9999999999700001,1.0338983050847288,0.0,0.9966509901063694,0
330,215.17777777777778,0.6777777777777771,0.6444444444444457,0.6555555555555657,1.0338983050847288,0.025183001323271732,0.9767857795954391,33.333333333333336,0.9999999999700001,0.9830508474576138,0.0,0.9982540213482951,0
331,215.82222222222222,0.6444444444444457,0.61944444444444,0.6555555555555657,0.9830508474576138,0.02662918017502116,1.0328794484559138,33.333333333333336,0.9999999999700001,0.9449152542372669,0.0,0.9946168676841171,0
332,216.44166666666666,0.61944444444444,0.6277777777777942,0.6555555555555657,0.9449152542372669,0.024302267798549212,0.9426243239564351,33.333333333333336,0.9999999999700001,0.9576271186440781,0.0,0.9943764117396513,0
333,217.06944444444446,0.6277777777777942,0.6305555555555316,0.6555555555555657,0.9576271186440781,0.024796103710337435,0.9617789866551391,30.555555555555557,0.9166666666391667,0.9618644067796096,0.0,0.994690084266452,0
334,217.7,0.6305555555555316,0.625,0.6555555555555657,0.9618644067796096,0.02545794650255171,0.9874502170007147,33.333333333333336,0.9999999999700001,0.9533898305084599,0.0,0.9971234944302889,0
335,218.325,0.625,0.625,0.6555555555555657,0.9533898305084599,0.025215119482740113,0.9780315628534697,30.555555555555557,0.9166666666391667,0.9533898305084599,0.0,0.9981111705783727,0
336,218.95,0.625,0.6472222222222399,0.6555555555555657,0.9533898305084599,0.026429252516942156,1.025124753499085,33.333333333333336,0.9999999999700001,0.9872881355932321,0.0,0.996916753747324,0
337,219.59722222222223,0.6472222222222399,0.6888888888888687,0.6555555555555657,0.9872881355932321,0.025991841939981213,1.0081586887343876,33.333333333333336,0.9999999999700001,1.0508474576270717,0.0,0.9983037776896722,0
338,220.2861111111111,0.6888888888888687,0.6694444444444514,0.6555555555555657,1.0508474576270717,0.026138667831359746,1.0138536986712074,33.333333333333336,0.9999999999700001,1.021186440677961,0.0,0.9979804197888809,0
339,220.95555555555555,0.6694444444444514,0.6555555555555657,0.6555555555555657,1.021186440677961,0.02649159297101104,1.0275427841478677,36.111111111111114,1.0833333333008335,1.0,0.0,0.9950906074164144,0
340,221.61111111111111,0.6555555555555657,0.6500000000000057,0.6555555555555657,1.0,0.02537667549608971,0.984297917463958,33.333333333333336,0.9999999999700001,0.9915254237288069,0.0,0.9985997435142415,0
341,222.26111111111112,0.6500000000000057,0.6166666666666458,0.6555555555555657,0.9915254237288069,0.02529999442373193,0.9813236500173693,33.333333333333336,0.9999999999700001,0.9406779661016487,0.0,0.9946303816755686,0
342,222.87777777777777,0.6166666666666458,0.625,0.6555555555555657,0.9406779661016487,0.02522166232055927,0.9782853432054583,33.333333333333336,0.9999999999700001,0.9533898305084599,0.0,0.9959792436281444,0
343,223.50277777777777,0.625,0.63611111111112,0.6555555555555657,0.9533898305084599,0.025578569513694124,0.9921288825999183,33.333333333333336,0.9999999999700001,0.970338983050846,0.0,0.9960437411985505,0
344,224.13888888888889,0.63611111111112,0.63055555555556,0.6555555555555657,0.970338983050846,0.02597135416257986,1.0073640189742483,30.555555555555557,0.9166666666391667,0.9618644067796529,0.0,0.9980794550675927,0
345,224.76944444444445,0.63055555555556,0.6500000000000057,0.6555555555555657,0.9618644067796529,0.02668898257002959,1.0351990341272215,36.111111111111114,1.0833333333008335,0.9915254237288069,0.0,0.9989011347045651,0
346,225.41944444444445,0.6500000000000057,0.6555555555555372,0.6555555555555657,0.9915254237288069,0.027052264626332874,1.049289838556133,33.333333333333336,0.9999999999700001,0.9999999999999566,0.0,0.9949534100531325,0
347,226.075,0.6555555555555372,0.6333333333333542,0.6555555555555657,0.9999999999999566,0.027680900864091088,1.0736730695180898,36.111111111111114,1.0833333333008335,0.9661016949152711,0.0,0.9930470311981305,0
348,226.70833333333334,0.6333333333333542,0.6472222222222115,0.6555555555555657,0.9661016949152711,0.02743409632131558,1.0641001371805971,33.333333333333336,0.9999999999700001,0.9872881355931887,0.0,0.9965535251905324,0
349,227.35555555555555,0.6472222222222115,0.6333333333333258,0.6555555555555657,0.9872881355931887,0.026974766461475137,1.0462838781304458,33.333333333333336,0.9999999999700001,0.9661016949152278,0.0,0.9940542114069766,0
350,227.98888888888888,0.6333333333333258,0.6166666666666742,0.6555555555555657,0.9661016949152278,0.025772712331029984,0.9996591980198289,33.333333333333336,0.9999999999700001,0.940677966101692,0.0,0.9968839088392643,0
351,228.60555555555555,0.6166666666666742,0.6277777777777658,0.6555555555555657,0.940677966101692,0.025394896768878208,0.9850046751660071,33.333333333333336,0.9999999999700001,0.9576271186440347,0.0,0.9908564516775143,0
352,229.23333333333332,0.6277777777777658,0.6277777777777942,0.6555555555555657,0.9576271186440347,0.025107111009247205,0.9738421836913367,33.333333333333336,0.9999999999700001,0.9576271186440781,0.0,0.9966897860951592,0
353,229.86111111111111,0.6277777777777942,0.6500000000000057,0.6555555555555657,0.9576271186440781,0.025256055937762638,0.9796193857908453,36.111111111111114,1.0833333333008335,0.9915254237288069,0.0,0.9979622819743885,0
354,230.51111111111112,0.6500000000000057,0.625,0.6555555555555657,0.9915254237288069,0.02526266136138569,0.9798755936899903,33.333333333333336,0.9999999999700001,0.9533898305084599,0.0,0.993667410460761,0
355,231.13611111111112,0.625,0.6777777777777771,0.6555555555555657,0.9533898305084599,0.026423358040720824,1.0248961214755525,36.111111111111114,1.0833333333008335,1.0338983050847288,0.0,0.9982487500345991,0
356,231.8138888888889,0.6777777777777771,0.7083333333333144,0.6555555555555657,1.0338983050847288,0.026488613828511733,1.0274272306444805,36.111111111111114,1.0833333333008335,1.0805084745762257,0.0,0.9989340587479061,0
357,232.5222222222222,0.7083333333333144,0.7250000000000227,0.6555555555555657,1.0805084745762257,0.02678779312443458,1.0390316489604483,33.333333333333336,0.9999999999700001,1.1059322033898482,0.0,0.998710152399479,0
358,233.24722222222223,0.7250000000000227,0.6722222222222172,0.6555555555555657,1.1059322033898482,0.026777408751875665,1.0386288650620812,33.333333333333336,0.9999999999700001,1.0254237288135357,0.0,0.997567968688394,0
359,233.91944444444445,0.6722222222222172,0.625,0.6555555555555657,1.0254237288135357,0.02707612981958989,1.0502155098493005,33.333333333333336,0.9999999999700001,0.9533898305084599,0.0,0.997690697869102,0
360,234.54444444444445,0.625,0.6472222222222115,0.6555555555555657,0.9533898305084599,0.024787946038549787,0.9614625709231739,30.555555555555557,0.9166666666391667,0.9872881355931887,0.0,0.993288985862733,0
361,235.19166666666666,0.6472222222222115,0.5972222222222285,0.6555555555555657,0.9872881355931887,0.025026250448019437,0.9707058043009897,30.555555555555557,0.9166666666391667,0.911016949152538,0.0,0.9969956721049438,0
362,235.7888888888889,0.5972222222222285,0.6027777777777885,0.6555555555555657,0.911016949152538,0.024828265605184287,0.9630264662993631,30.555555555555557,0.9166666666391667,0.919491525423731,0.0,0.9963421671585635,0
363,236.39166666666668,0.6027777777777885,0.6277777777777658,0.6555555555555657,0.919491525423731,0.025832106398590224,1.0019629456883627,30.555555555555557,0.9166666666391667,0.9576271186440347,0.0,0.9926985175928504,0
364,237.01944444444445,0.6277777777777658,0.6500000000000057,0.6555555555555657,0.9576271186440347,0.02646317016412538,1.0264403343951276,36.111111111111114,1.0833333333008335,0.9915254237288069,0.0,0.9977732620842115,0
365,237.66944444444445,0.6500000000000057,0.6611111111110972,0.6555555555555657,0.9915254237288069,0.02765033460917592,1.0724874807650513,36.111111111111114,1.0833333333008335,1.0084745762711498,0.0,0.9963662497709437,0
366,238.33055555555555,0.6611111111110972,0.6444444444444457,0.6555555555555657,1.0084745762711498,0.02664395221530851,1.0334524190364682,33.333333333333336,0.9999999999700001,0.9830508474576138,0.0,0.997646177976673,0
367,238.975,0.6444444444444457,0.6416666666666799,0.6555555555555657,0.9830508474576138,0.02621098152726376,1.0166585664835184,33.333333333333336,0.9999999999700001,0.9788135593220391,0.0,0.9982407294216299,0
368,239.61666666666667,0.6416666666666799,0.6388888888888857,0.6555555555555657,0.9788135593220391,0.02476375665866385,0.9605243252396469,30.555555555555557,0.9166666666391667,0.9745762711864209,0.0,0.9970255275965525,0
369,240.25555555555556,0.6388888888888857,0.6277777777777658,0.6555555555555657,0.9745762711864209,0.02574921822480892,0.9987479202667744,30.555555555555557,0.9166666666391667,0.9576271186440347,0.0,0.9917721489857434,0
370,240.88333333333333,0.6277777777777658,0.63611111111112,0.6555555555555657,0.9576271186440347,0.025257593737357278,0.9796790331996919,33.333333333333336,0.9999999999700001,0.970338983050846,0.0,0.9911865071484589,0
371,241.51944444444445,0.63611111111112,0.6333333333333258,0.6555555555555657,0.970338983050846,0.025787244628740033,1.000222869584064,30.555555555555557,0.9166666666391667,0.9661016949152278,0.0,0.9938935901540615,0
372,242.15277777777777,0.6333333333333258,0.6611111111111256,0.6555555555555657,0.9661016949152278,0.02574609316053834,0.998626706822013,33.333333333333336,0.9999999999700001,1.008474576271193,0.0,0.9960027906446841,0
373,242.8138888888889,0.6611111111111256,0.6999999999999886,0.6555555555555657,1.008474576271193,0.026698169485142392,1.0355553716393926,36.111111111111114,1.0833333333008335,1.0677966101694578,0.0,0.9975275467567517,0
374,243.51388888888889,0.6999999999999886,0.6805555555555713,0.6555555555555657,1.0677966101694578,0.026179595833848414,1.0154411937558872,33.333333333333336,0.9999999999700001,1.038135593220347,0.0,0.9973693050054911,0
375,244.19444444444446,0.6805555555555713,0.6888888888888687,0.6555555555555657,1.038135593220347,0.02771280823821537,1.0749106769386172,36.111111111111114,1.0833333333008335,1.0508474576270717,0.0,0.9940929094279266,0
376,244.88333333333333,0.6888888888888687,0.6888888888888971,0.6555555555555657,1.0508474576270717,0.02683028233328889,1.0406796993442122,36.111111111111114,1.0833333333008335,1.050847457627115,0.0,0.996673519791866,0
377,245.57222222222222,0.6888888888888971,0.6611111111110972,0.6555555555555657,1.050847457627115,0.02571832658052145,0.9975497104719618,33.333333333333336,0.9999999999700001,1.0084745762711498,0.0,0.9992691595824854,0
378,246.23333333333332,0.6611111111110972,0.6138888888889085,0.6555555555555657,1.0084745762711498,0.0259700550009312,1.0073136277358283,33.333333333333336,0.9999999999700001,0.9364406779661171,0.0,0.9981737390775911,0
379,246.84722222222223,0.6138888888889085,0.61388888888888,0.6555555555555657,0.9364406779661171,0.024510460441920595,0.9506995970682872,30.555555555555557,0.9166666666391667,0.9364406779660738,0.0,0.9924179509661397,0
380,247.4611111111111,0.61388888888888,0.6166666666666742,0.6555555555555657,0.9364406779660738,0.02484029355674752,0.9634930005259158,33.333333333333336,0.9999999999700001,0.940677966101692,0.0,0.9936780762313435,0
381,248.07777777777778,0.6166666666666742,0.6388888888888857,0.6555555555555657,0.940677966101692,0.02615156640034996,1.0143540019752115,33.333333333333336,0.9999999999700001,0.9745762711864209,0.0,0.9994953575058592,0
382,248.71666666666667,0.6388888888888857,0.6555555555555657,0.6555555555555657,0.9745762711864209,0.026171438945016775,1.015124808392832,33.333333333333336,0.9999999999700001,1.0,0.0,0.9992760652784778,0
383,249.37222222222223,0.6555555555555657,0.6722222222222172,0.6555555555555657,1.0,0.02694298607686375,1.0450511963162337,33.333333333333336,0.9999999999700001,1.0254237288135357,0.0,0.9991104099967583,0
384,250.04444444444445,0.6722222222222172,0.6694444444444514,0.6555555555555657,1.0254237288135357,0.027459075193890948,1.0650690053154448,36.111111111111114,1.0833333333008335,1.021186440677961,0.0,0.9933709021679961,0
385,250.7138888888889,0.6694444444444514,0.6944444444444287,0.6555555555555657,1.021186440677961,0.02678640623674395,1.0389778550477722,30.555555555555557,0.9166666666391667,1.0593220338982647,0.0,0.998853484237727,0
386,251.40833333333333,0.6944444444444287,0.6583333333333314,0.6555555555555657,1.0593220338982647,0.026641253324361715,1.0333477357914622,33.333333333333336,0.9999999999700001,1.0042372881355748,0.0,0.9938433228940705,0
387,252.06666666666666,0.6583333333333314,0.63611111111112,0.6555555555555657,1.0042372881355748,0.0253839854194619,0.9845814511503613,30.555555555555557,0.9166666666391667,0.970338983050846,0.0,0.9983407977496024,0
388,252.70277777777778,0.63611111111112,0.6500000000000057,0.6555555555555657,0.970338983050846,0.025773749433348613,0.9996994246307804,36.111111111111114,1.0833333333008335,0.9915254237288069,0.0,0.9978067476305879,0
389,253.3527777777778,0.6500000000000057,0.6333333333333258,0.6555555555555657,0.9915254237288069,0.026274364039009554,1.0191170159492349,33.333333333333336,0.9999999999700001,0.9661016949152278,0.0,0.9940309258212704,0
390,253.98611111111111,0.6333333333333258,0.6527777777777715,0.6555555555555657,0.9661016949152278,0.02556570387775233,0.9916298566866812,30.555555555555557,0.9166666666391667,0.9957627118643818,0.0,0.9981012696600238,0
391,254.63888888888889,0.6527777777777715,0.6527777777777715,0.6555555555555657,0.9957627118643818,0.02623133393096788,1.0174479854357543,33.333333333333336,0.9999999999700001,0.9957627118643818,0.0,0.9948065487205162,0
392,255.29166666666666,0.6527777777777715,0.6750000000000114,0.6555555555555657,0.9957627118643818,0.025902948373213476,1.0047107291047306,33.333333333333336,0.9999999999700001,1.029661016949154,0.0,0.9973383966949574,0
393,255.96666666666667,0.6750000000000114,0.6833333333333087,0.6555555555555657,1.029661016949154,0.026985282643334177,1.0466917745826474,33.333333333333336,0.9999999999700001,1.0423728813558786,0.0,0.9987080743958627,0
394,256.65,0.6833333333333087,0.6888888888889255,0.6555555555555657,1.0423728813558786,0.026900264331640694,1.043394126426998,33.333333333333336,0.9999999999700001,1.0508474576271583,0.0,0.9985751234121045,0
395,257.3388888888889,0.6888888888889255,0.63611111111112,0.6555555555555657,1.0508474576271583,0.02673456489911506,1.0369670589261712,33.333333333333336,0.9999999999700001,0.970338983050846,0.0,0.9971223741890518,0
396,257.975,0.63611111111112,0.6333333333333258,0.6555555555555657,0.970338983050846,0.026920972180177947,1.0441973321973328,33.333333333333336,0.9999999999700001,0.9661016949152278,0.0,0.9946996060497704,0
397,258.60833333333335,0.6333333333333258,0.6444444444444457,0.6555555555555657,0.9661016949152278,0.025773330259850825,0.9996831659368081,30.555555555555557,0.9166666666391667,0.9830508474576138,0.0,0.9961546557823636,0
398,259.2527777777778,0.6444444444444457,0.6333333333333258,0.6555555555555657,0.9830508474576138,0.02497590073744114,0.9687528646704708,30.555555555555557,0.9166666666391667,0.9661016949152278,0.0,0.9961440084521946,0
399,259.8861111111111,0.6333333333333258,0.6194444444444116,0.6555555555555657,0.9661016949152278,0.025548540968905003,0.9909641502808657,30.555555555555557,0.9166666666391667,0.9449152542372234,0.0,0.9952958238766874,0
400,260.50555555555553,0.6194444444444116,0.6472222222222399,0.6555555555555657,0.9449152542372234,0.02579391411502484,1.0004815623139964,30.555555555555557,0.9166666666391667,0.9872881355932321,0.0,0.9980807666589249,0
401,261.15277777777777,0.6472222222222399,0.6638888888888914,0.6555555555555657,0.9872881355932321,0.02775344310747347,1.0764868021167686,33.333333333333336,0.9999999999700001,1.0127118644067679,0.0,0.996055674187823,0
402,261.81666666666666,0.6638888888888914,0.6722222222222172,0.6555555555555657,1.0127118644067679,0.025949510210955967,1.0065167466002174,30.555555555555557,0.9166666666391667,1.0254237288135357,0.0,0.9982346043241597,0
403,262.4888888888889,0.6722222222222172,0.6333333333333258,0.6555555555555657,1.0254237288135357,0.026274414654275626,1.0191189791891002,33.333333333333336,0.9999999999700001,0.9661016949152278,0.0,0.9992707121140179,0
404,263.1222222222222,0.6333333333333258,0.6444444444444457,0.6555555555555657,0.9661016949152278,0.026410089407288166,1.024381464295286,33.333333333333336,0.9999999999700001,0.9830508474576138,0.0,0.9977937867079083,0
405,263.76666666666665,0.6444444444444457,0.6333333333333258,0.6555555555555657,0.9830508474576138,0.027021317991397915,1.048089495811328,33.333333333333336,0.9999999999700001,0.9661016949152278,0.0,0.9989009274055052,0
406,264.4,0.6333333333333258,0.6111111111111427,0.6555555555555657,0.9661016949152278,0.024791096418251564,0.9615847662903393,30.555555555555557,0.9166666666391667,0.9322033898305423,0.0,0.9881897351077715,0
407,265.0111111111111,0.6111111111111427,0.6083333333333485,0.6555555555555657,0.9322033898305423,0.026189919553458663,1.015841625077729,33.333333333333336,0.9999999999700001,0.9279661016949241,0.0,0.9993210741539418,0
408,265.61944444444447,0.6083333333333485,0.6361111111110631,0.6555555555555657,0.9279661016949241,0.025899565655286512,1.0045795219175877,33.333333333333336,0.9999999999700001,0.9703389830507593,0.0,0.9953684642135512,0
409,266.25555555555553,0.6361111111110631,0.6444444444444457,0.6555555555555657,0.9703389830507593,0.025313782177818173,0.9818584425923733,33.333333333333336,0.9999999999700001,0.9830508474576138,0.0,0.9943035426106533,0
410,266.9,0.6444444444444457,0.6527777777778283,0.6555555555555657,0.9830508474576138,0.024694059793034403,0.9578209577436405,30.555555555555557,0.9166666666391667,0.9957627118644685,0.0,0.9982492448251721,0
411,267.5527777777778,0.6527777777778283,0.6527777777777715,0.6555555555555657,0.9957627118644685,0.025407839714019238,0.9855066997101649,33.333333333333336,0.9999999999700001,0.9957627118643818,0.0,0.9986091597812268,0
412,268.2055555555556,0.6527777777777715,0.6638888888888914,0.6555555555555657,0.9957627118643818,0.02678914660766615,1.0390841471975147,33.333333333333336,0.9999999999700001,1.0127118644067679,0.0,0.9986897892586766,0
413,268.86944444444447,0.6638888888888914,0.6666666666666288,0.6555555555555657,1.0127118644067679,0.027761037469963747,1.0767813684867724,36.111111111111114,1.0833333333008335,1.0169491525422993,0.0,0.9936266309856755,0
414,269.5361111111111,0.6666666666666288,0.6444444444444457,0.6555555555555657,1.0169491525422993,0.025644461722613882,0.9946846769563072,33.333333333333336,0.9999999999700001,0.9830508474576138,0.0,0.9986430182486237,0
415,270.18055555555554,0.6444444444444457,0.6000000000000227,0.6555555555555657,0.9830508474576138,0.02547813105404201,0.9882331253844353,33.333333333333336,0.9999999999700001,0.9152542372881561,0.0,0.9989130342242563,0
416,270.78055555555557,0.6000000000000227,0.5972222222222285,0.6555555555555657,0.9152542372881561,0.025922534312883144,1.0054704188297066,33.333333333333336,0.9999999999700001,0.911016949152538,0.0,0.9919154279523488,0
417,271.3777777777778,0.5972222222222285,0.5916666666666401,0.6555555555555657,0.911016949152538,0.024278303740231967,0.9416948179342897,30.555555555555557,0.9166666666391667,0.9025423728813016,0.0,0.9945277830279244,0
418,271.96944444444443,0.5916666666666401,0.5972222222222285,0.6555555555555657,0.9025423728813016,0.02500086734490994,0.9697212570724412,30.555555555555557,0.9166666666391667,0.911016949152538,0.0,0.996786621064036,0
419,272.56666666666666,0.5972222222222285,0.6277777777777942,0.6555555555555657,0.911016949152538,0.025630077012414085,0.9941267299433044,33.333333333333336,0.9999999999700001,0.9576271186440781,0.0,0.9927872080825204,0
420,273.19444444444446,0.6277777777777942,0.6416666666666515,0.6555555555555657,0.9576271186440781,0.025463799011788475,0.9876772212296403,30.555555555555557,0.9166666666391667,0.9788135593219957,0.0,0.9978678232610989,0
421,273.8361111111111,0.6416666666666515,0.6444444444444457,0.6555555555555657,0.9788135593219957,0.02724759255225601,1.0568661213808206,36.111111111111114,1.0833333333008335,0.9830508474576138,0.0,0.996744401600822,0
422,274.48055555555555,0.6444444444444457,0.6777777777778056,0.6555555555555657,0.9830508474576138,0.026725236096437562,1.0366052179494323,33.333333333333336,0.9999999999700001,1.0338983050847723,0.0,0.9988365802291285,0
423,275.15833333333336,0.6777777777778056,0.6472222222221831,0.6555555555555657,1.0338983050847723,0.02578931263656655,1.000303082447142,33.333333333333336,0.9999999999700001,0.9872881355931454,0.0,0.9989985334922864,0
424,275.80555555555554,0.6472222222221831,0.6305555555555884,0.6555555555555657,0.9872881355931454,0.02544594474551559,0.9869846987945027,33.333333333333336,0.9999999999700001,0.9618644067796963,0.0,0.9978654541529555,0
425,276.43611111111113,0.6305555555555884,0.6222222222222058,0.6555555555555657,0.9618644067796963,0.0250279457869003,0.9707715622656249,30.555555555555557,0.9166666666391667,0.9491525423728416,0.0,0.9975236275254813,0
426,277.05833333333334,0.6222222222222058,0.6194444444444684,0.6555555555555657,0.9491525423728416,0.025208551666520328,0.9777768136516518,33.333333333333336,0.9999999999700001,0.9449152542373102,0.0,0.9969735246279607,0
427,277.6777777777778,0.6194444444444684,0.6333333333333258,0.6555555555555657,0.9449152542373102,0.02627140575680296,1.019002271564547,33.333333333333336,0.9999999999700001,0.9661016949152278,0.0,0.9954006816395443,0
428,278.31111111111113,0.6333333333333258,0.6083333333332916,0.6555555555555657,0.9661016949152278,0.026127891495408454,1.0134357114909567,33.333333333333336,0.9999999999700001,0.9279661016948374,0.0,0.9951466526329464,0
429,278.9194444444444,0.6083333333332916,0.625,0.6555555555555657,0.9279661016948374,0.026803828230542583,1.0396536107123275,33.333333333333336,0.9999999999700001,0.9533898305084599,0.0,0.9990257883798228,0
430,279.5444444444444,0.625,0.6722222222222172,0.6555555555555657,0.9533898305084599,0.027174318043164735,1.0540239860225917,36.111111111111114,1.0833333333008335,1.0254237288135357,0.0,0.9966161825058915,0
431,280.21666666666664,0.6722222222222172,0.6666666666666856,0.6555555555555657,1.0254237288135357,0.02590894493011051,1.004943320582941,33.333333333333336,0.9999999999700001,1.0169491525423862,0.0,0.9925683987464097,0
432,280.8833333333333,0.6666666666666856,0.63611111111112,0.6555555555555657,1.0169491525423862,0.026587006103586535,1.0312436214662646,33.333333333333336,0.9999999999700001,0.970338983050846,0.0,0.9978160758715872,0
433,281.51944444444445,0.63611111111112,0.61388888888888,0.6555555555555657,0.970338983050846,0.025895885993745097,1.0044367970286343,33.333333333333336,0.9999999999700001,0.9364406779660738,0.0,0.9969204930168681,0
434,282.1333333333333,0.61388888888888,0.6027777777777601,0.6555555555555657,0.9364406779660738,0.024293844303674324,0.9422975976102517,30.555555555555557,0.9166666666391667,0.9194915254236876,0.0,0.9952934127674837,0
435,282.7361111111111,0.6027777777777601,0.5972222222222285,0.6555555555555657,0.9194915254236876,0.02491468311982653,0.96637838604582,30.555555555555557,0.9166666666391667,0.911016949152538,0.0,0.9953930914109519,0
436,283.3333333333333,0.5972222222222285,0.6055555555555543,0.6555555555555657,0.911016949152538,0.02432375406048622,0.9434577224400916,30.555555555555557,0.9166666666391667,0.9237288135593059,0.0,0.9924000356754585,0
437,283.93888888888887,0.6055555555555543,0.6055555555555543,0.6555555555555657,0.9237288135593059,0.024536022495522437,0.9516910853398802,33.333333333333336,0.9999999999700001,0.9237288135593059,0.0,0.9976894160752665,0
438,284.5444444444444,0.6055555555555543,0.6166666666666742,0.6555555555555657,0.9237288135593059,0.02696468227182432,1.0458927375780067,33.333333333333336,0.9999999999700001,0.940677966101692,0.0,0.9972899802917108,0
439,285.1611111111111,0.6166666666666742,0.6111111111111427,0.6555555555555657,0.940677966101692,0.027189217915211207,1.0546019148780907,33.333333333333336,0.9999999999700001,0.9322033898305423,0.0,0.994068160520843,0
440,285.77222222222224,0.6111111111111427,0.6222222222222058,0.6555555555555657,0.9322033898305423,0.0271245701345354,1.0520943887879348,33.333333333333336,0.9999999999700001,0.9491525423728416,0.0,0.9943438152282076,0
441,286.39444444444445,0.6222222222222058,0.6305555555555316,0.6555555555555657,0.9491525423728416,0.025661924821051597,0.9953620269672399,30.555555555555557,0.9166666666391667,0.9618644067796096,0.0,0.99927935189957,0
442,287.025,0.6305555555555316,0.6305555555555884,0.6555555555555657,0.9618644067796096,0.026345834623515276,1.0218891815743087,33.333333333333336,0.9999999999700001,0.9618644067796963,0.0,0.9927470212088005,0
443,287.65555555555557,0.6305555555555884,0.5999999999999659,0.6555555555555657,0.9618644067796963,0.027119232379405778,1.0518873505863062,33.333333333333336,0.9999999999700001,0.9152542372880694,0.0,0.9972865391117931,0
444,288.25555555555553,0.5999999999999659,0.5861111111111086,0.6555555555555657,0.9152542372880694,0.024965303510602062,0.9683418246857335,33.333333333333336,0.9999999999700001,0.8940677966101519,0.0,0.9948213536081161,0
445,288.84166666666664,0.5861111111111086,0.5777777777777828,0.6555555555555657,0.8940677966101519,0.025282226844830304,0.9806344899690429,30.555555555555557,0.9166666666391667,0.8813559322033839,0.0,0.9966221963922622,0
446,289.4194444444444,0.5777777777777828,0.625,0.6555555555555657,0.8813559322033839,0.026422837857817436,1.024875944878796,33.333333333333336,0.9999999999700001,0.9533898305084599,0.0,0.9964659561807985,0
447,290.0444444444444,0.625,0.625,0.6555555555555657,0.9533898305084599,0.025469978584423607,0.9879169114316336,30.555555555555557,0.9166666666391667,0.9533898305084599,0.0,0.9915801134825932,0
448,290.6694444444444,0.625,0.6388888888889142,0.6555555555555657,0.9533898305084599,0.026691023637253015,1.0352782020315332,33.333333333333336,0.9999999999700001,0.9745762711864642,0.0,0.9992001436543694,0
449,291.30833333333334,0.6388888888889142,0.6472222222222399,0.6555555555555657,0.9745762711864642,0.02716375019333701,1.0536140854988174,30.555555555555557,0.9166666666391667,0.9872881355932321,0.0,0.9932736499828263,0
450,291.9555555555556,0.6472222222222399,0.6444444444444457,0.6555555555555657,0.9872881355932321,0.027201730138606894,1.055087232800571,33.333333333333336,0.9999999999700001,0.9830508474576138,0.0,0.9955752915602291,0
451,292.6,0.6444444444444457,0.6277777777777374,0.6555555555555657,0.9830508474576138,0.02782329850101612,1.0791963185149371,33.333333333333336,0.9999999999700001,0.9576271186439914,0.0,0.9979016159604406,0
452,293.22777777777776,0.6277777777777374,0.5944444444444343,0.6555555555555657,0.9576271186439914,0.02671082770750822,1.0360463524975985,33.333333333333336,0.9999999999700001,0.9067796610169198,0.0,0.990766320636639,0
453,293.8222222222222,0.5944444444444343,0.6027777777778169,0.6555555555555657,0.9067796610169198,0.02686809510322187,1.0421463623318172,33.333333333333336,0.9999999999700001,0.9194915254237743,0.0,0.9986480714691576,0
454,294.425,0.6027777777778169,0.6055555555555543,0.6555555555555657,0.9194915254237743,0.02467996167676443,0.9572741269940084,30.555555555555557,0.9166666666391667,0.9237288135593059,0.0,0.9945505573666482,0
455,295.03055555555557,0.6055555555555543,0.6027777777777601,0.6555555555555657,0.9237288135593059,0.025420061070012965,0.9859807356119545,30.555555555555557,0.9166666666391667,0.9194915254236876,0.0,0.9962139089444791,0
456,295.6333333333333,0.6027777777777601,0.6166666666666742,0.6555555555555657,0.9194915254236876,0.02546870102204002,0.9878673579748072,30.555555555555557,0.9166666666391667,0.940677966101692,0.0,0.9961728238903005,0
457,296.25,0.6166666666666742,0.6444444444444457,0.6555555555555657,0.940677966101692,0.02585639423944198,1.0029050104270543,33.333333333333336,0.9999999999700001,0.9830508474576138,0.0,0.9921086585623841,0
458,296.89444444444445,0.6444444444444457,0.63611111111112,0.6555555555555657,0.9830508474576138,0.02710497966110183,1.0513345232095708,33.333333333333336,0.9999999999700001,0.970338983050846,0.0,0.9947356331664678,0
459,297.53055555555557,0.63611111111112,0.6388888888888573,0.6555555555555657,0.970338983050846,0.02734751329953135,1.0607417978251097,36.111111111111114,1.0833333333008335,0.9745762711863775,0.0,0.9971701068248304,0
460,298.1694444444444,0.6388888888888573,0.63611111111112,0.6555555555555657,0.9745762711863775,0.026463252833127286,1.026443540919419,33.333333333333336,0.9999999999700001,0.970338983050846,0.0,0.9993253093580017,0
461,298.80555555555554,0.63611111111112,0.6500000000000341,0.6555555555555657,0.970338983050846,0.027077976169926406,1.0502871251714658,33.333333333333336,0.9999999999700001,0.9915254237288503,0.0,0.998464309289782,0
462,299.4555555555556,0.6500000000000341,0.5972222222222285,0.6555555555555657,0.9915254237288503,0.027320337570403586,1.0596877191066365,33.333333333333336,0.9999999999700001,0.911016949152538,0.0,0.9979779170679961,0
463,300.0527777777778,0.5972222222222285,0.5999999999999659,0.6555555555555657,0.911016949152538,0.02563236165533337,0.994215345541039,33.333333333333336,0.9999999999700001,0.9152542372880694,0.0,0.992883007702804,0
464,300.65277777777777,0.5999999999999659,0.6166666666666742,0.6555555555555657,0.9152542372880694,0.027954451733791297,1.0842834251341302,33.333333333333336,0.9999999999700001,0.940677966101692,0.0,0.9699441272870459,0
465,301.26944444444445,0.6166666666666742,0.6027777777777601,0.6555555555555657,0.940677966101692,0.023860567260453772,0.9254918623045122,27.77777777777778,0.8333333333083334,0.9194915254236876,0.0,0.9904095962242934,0
466,301.8722222222222,0.6027777777777601,0.6055555555555543,0.6555555555555657,0.9194915254236876,0.024425242078627528,0.9473941894102992,30.555555555555557,0.9166666666391667,0.9237288135593059,0.0,0.9945368147813515,0
467,302.47777777777776,0.6055555555555543,0.6222222222222626,0.6555555555555657,0.9237288135593059,0.023860924356161363,0.9255057131559119,30.555555555555557,0.9166666666391667,0.9491525423729283,0.0,0.9932714826591138,0
468,303.1,0.6222222222222626,0.6444444444444457,0.6555555555555657,0.9491525423729283,0.024937423953765744,0.9672604462467793,33.333333333333336,0.9999999999700001,0.9830508474576138,0.0,0.9878970215979155,0
469,303.74444444444447,0.6444444444444457,0.6472222222221831,0.6555555555555657,0.9830508474576138,0.025733419581590502,0.9981351303203119,36.111111111111114,1.0833333333008335,0.9872881355931454,0.0,0.9891918639147481,0
470,304.39166666666665,0.6472222222221831,0.6444444444444457,0.6555555555555657,0.9872881355931454,0.024414980356293664,0.9469961628081002,30.555555555555557,0.9166666666391667,0.9830508474576138,0.0,0.9934636992884889,0
471,305.0361111111111,0.6444444444444457,0.6500000000000341,0.6555555555555657,0.9830508474576138,0.025434944154302676,0.9865580133122609,36.111111111111114,1.0833333333008335,0.9915254237288503,0.0,0.9919411842427048,0
472,305.68611111111113,0.6500000000000341,0.6611111111110972,0.6555555555555657,0.9915254237288503,0.02467673698463858,0.9571490492333528,33.333333333333336,0.9999999999700001,1.0084745762711498,0.0,0.9923269508877405,0
473,306.34722222222223,0.6611111111110972,0.6305555555555316,0.6555555555555657,1.0084745762711498,0.025534733931247753,0.9904286097442627,33.333333333333336,0.9999999999700001,0.9618644067796096,0.0,0.9933621080511175,0
474,306.97777777777776,0.6305555555555316,0.6333333333333258,0.6555555555555657,0.9618644067796096,0.02395122856649851,0.9290083881295025,30.555555555555557,0.9166666666391667,0.9661016949152278,0.0,0.9919742857234665,0
475,307.6111111111111,0.6333333333333258,0.6333333333333826,0.6555555555555657,0.9661016949152278,0.02560211441529408,0.9930421305789651,33.333333333333336,0.9999999999700001,0.9661016949153145,0.0,0.9898401156361274,0
476,308.24444444444447,0.6333333333333826,0.6555555555555088,0.6555555555555657,0.9661016949153145,0.024323343209476635,0.9434417865546686,33.333333333333336,0.9999999999700001,0.9999999999999133,0.0,0.9945963687367635,0
477,308.9,0.6555555555555088,0.6555555555555657,0.6555555555555657,0.9999999999999133,0.026904428652713693,1.0435556500497607,33.333333333333336,0.9999999999700001,1.0,0.0,0.9923613272866627,0
478,309.55555555555554,0.6555555555555657,0.6750000000000114,0.6555555555555657,1.0,0.024927022769593906,0.9668570102678988,33.333333333333336,0.9999999999700001,1.029661016949154,0.0,0.9943236941908311,0
479,310.23055555555555,0.6750000000000114,0.6972222222222513,0.6555555555555657,1.029661016949154,0.025360524529825693,0.9836714617857447,33.333333333333336,0.9999999999700001,1.0635593220339263,0.0,0.9953829535865664,0
480,310.9277777777778,0.6972222222222513,0.7305555555555543,0.6555555555555657,1.0635593220339263,0.027582584814832018,1.069859635305484,33.333333333333336,0.9999999999700001,1.1144067796609978,0.0,0.9968028607656974,0
481,311.65833333333336,0.7305555555555543,0.6972222222221944,0.6555555555555657,1.1144067796609978,0.023764121302990406,0.9217509642860291,38.888888888888886,1.1666666666316665,1.0635593220338395,0.0,0.9480520926524092,0
482,312.35555555555555,0.6972222222221944,0.6666666666666856,0.6555555555555657,1.0635593220338395,0.022363216620030334,0.8674133674556019,36.111111111111114,1.0833333333008335,1.0169491525423862,0.0,0.9432548914765516,0
483,313.02222222222224,0.6666666666666856,0.6527777777777715,0.6555555555555657,1.0169491525423862,0.02114615101383019,0.8202064296601288,36.111111111111114,1.0833333333008335,0.9957627118643818,0.0,0.9482161990312773,0
484,313.675,0.6527777777777715,0.6222222222222058,0.6555555555555657,0.9957627118643818,0.02187105260033395,0.8483235532790961,36.111111111111114,1.0833333333008335,0.9491525423728416,0.0,0.9381763550117781,0
485,314.2972222222222,0.6222222222222058,0.6166666666666742,0.6555555555555657,0.9491525423728416,0.022070165008879348,0.8560466267408924,33.333333333333336,0.9999999999700001,0.940677966101692,0.0,0.9531716113656357,0
486,314.9138888888889,0.6166666666666742,0.6416666666666515,0.6555555555555657,0.940677966101692,0.02344460179095382,0.9093575997440435,36.111111111111114,1.0833333333008335,0.9788135593219957,0.0,0.9388242893512072,0
487,315.55555555555554,0.6416666666666515,0.6583333333333599,0.6555555555555657,0.9788135593219957,0.022646176738917872,0.8783886843677512,36.111111111111114,1.0833333333008335,1.0042372881356183,0.0,0.9375029554767216,0
488,316.2138888888889,0.6583333333333599,0.6555555555555657,0.6555555555555657,1.0042372881356183,0.02285376707131821,0.8864405953400449,36.111111111111114,1.0833333333008335,1.0,0.0,0.9376293626944221,0
489,316.86944444444447,0.6555555555555657,0.6666666666666288,0.6555555555555657,1.0,0.023131593624073698,0.8972167940322477,36.111111111111114,1.0833333333008335,1.0169491525422993,0.0,0.9440161624719083,0
490,317.5361111111111,0.6666666666666288,0.6583333333333599,0.6555555555555657,1.0169491525422993,0.022216396559235227,0.8617185836725636,36.111111111111114,1.0833333333008335,1.0042372881356183,0.0,0.9409384347667078,0
491,318.19444444444446,0.6583333333333599,0.6555555555555657,0.6555555555555657,1.0042372881356183,0.021107650539562914,0.818713092337496,33.333333333333336,0.9999999999700001,1.0,0.0,0.9393538176582986,0
492,318.85,0.6555555555555657,0.6333333333333258,0.6555555555555657,1.0,0.020383303907989876,0.7906174940354553,33.333333333333336,0.9999999999700001,0.9661016949152278,0.0,0.9546079309310944,0
493,319.48333333333335,0.6333333333333258,0.6388888888888573,0.6555555555555657,0.9661016949152278,0.021286166477223582,0.8256372800901666,33.333333333333336,0.9999999999700001,0.9745762711863775,0.0,0.9472770971937596,0
494,320.1222222222222,0.6388888888888573,0.6583333333333599,0.6555555555555657,0.9745762711863775,0.02311527567483663,0.8965838615011995,36.111111111111114,1.0833333333008335,1.0042372881356183,0.0,0.9559142180011675,0
495,320.78055555555557,0.6583333333333599,0.6805555555555429,0.6555555555555657,1.0042372881356183,0.02208675666216599,0.8566901755690217,36.111111111111114,1.0833333333008335,1.0381355932203038,0.0,0.9447110474810281,0
496,321.4611111111111,0.6805555555555429,0.6777777777778056,0.6555555555555657,1.0381355932203038,0.022046416666091986,0.8551254877858538,36.111111111111114,1.0833333333008335,1.0338983050847723,0.0,0.9537832293086161,0
497,322.1388888888889,0.6777777777778056,0.6777777777777487,0.6555555555555657,1.0338983050847723,0.02321692796634386,0.9005267002253431,36.111111111111114,1.0833333333008335,1.0338983050846855,0.0,0.943376274989852,0
498,322.81666666666666,0.6777777777777487,0.6805555555555429,0.6555555555555657,1.0338983050846855,0.021499256329001973,0.8339025036956185,36.111111111111114,1.0833333333008335,1.0381355932203038,0.0,0.9451747866215753,0
499,323.4972222222222,0.6805555555555429,0.63611111111112,0.6555555555555657,1.0381355932203038,0.022808986095014715,0.88470365301581,36.111111111111114,1.0833333333008335,0.970338983050846,0.0,0.9427835402323959,0
500,324.1333333333333,0.63611111111112,0.6194444444444684,0.6555555555555657,0.970338983050846,0.0216435156063025,0.8394979610770885,33.333333333333336,0.9999999999700001,0.9449152542373102,0.0,0.951263326180711,0
501,324.7527777777778,0.6194444444444684,0.63611111111112,0.6555555555555657,0.9449152542373102,0.0226843367728461,0.8798688168591682,36.111111111111114,1.0833333333008335,0.970338983050846,0.0,0.9428757636382322,0
502,325.3888888888889,0.63611111111112,0.6472222222221831,0.6555555555555657,0.970338983050846,0.021526275883869492,0.8349505248042542,38.888888888888886,1.1666666666316665,0.9872881355931454,0.0,0.9449244269568751,0
503,326.0361111111111,0.6472222222221831,0.6694444444444798,0.6555555555555657,0.9872881355931454,0.023539771581380372,0.9130489984277195,38.888888888888886,1.1666666666316665,1.0211864406780042,0.0,0.9472593873335324,0
504,326.7055555555556,0.6694444444444798,0.6722222222222172,0.6555555555555657,1.0211864406780042,0.022282521347163235,0.8642833991883042,36.111111111111114,1.0833333333008335,1.0254237288135357,0.0,0.943659904256784,0
505,327.3777777777778,0.6722222222222172,0.6805555555555429,0.6555555555555657,1.0254237288135357,0.022658192343429917,0.8788547396829992,36.111111111111114,1.0833333333008335,1.0381355932203038,0.0,0.9435258906880262,0
506,328.05833333333334,0.6805555555555429,0.669444444444423,0.6555555555555657,1.0381355932203038,0.02262947609318391,0.8777409079945705,36.111111111111114,1.0833333333008335,1.0211864406779176,0.0,0.946280256073762,0
507,328.72777777777776,0.669444444444423,0.6611111111111541,0.6555555555555657,1.0211864406779176,0.02232790204640743,0.8660436032688585,36.111111111111114,1.0833333333008335,1.0084745762712364,0.0,0.9440203367001424,0
508,329.3888888888889,0.6611111111111541,0.6361111111110631,0.6555555555555657,1.0084745762712364,0.02220876288633393,0.8614224925498117,38.888888888888886,1.1666666666316665,0.9703389830507593,0.0,0.9411552271096901,0
509,330.025,0.6361111111110631,0.6166666666666742,0.6555555555555657,0.9703389830507593,0.0226119284998705,0.8770602806382582,38.888888888888886,1.1666666666316665,0.940677966101692,0.0,0.9372677299232524,0
510,330.64166666666665,0.6166666666666742,0.6000000000000227,0.6555555555555657,0.940677966101692,0.021332752683536748,0.8274442427817005,36.111111111111114,1.0833333333008335,0.9152542372881561,0.0,0.9444603897351007,0
511,331.2416666666667,0.6000000000000227,0.5916666666666401,0.6555555555555657,0.9152542372881561,0.021934095777921058,0.8507688408195725,36.111111111111114,1.0833333333008335,0.9025423728813016,0.0,0.9378617204927254,0
512,331.8333333333333,0.5916666666666401,0.6000000000000227,0.6555555555555657,0.9025423728813016,0.02307536558297741,0.895035848629739,38.888888888888886,1.1666666666316665,0.9152542372881561,0.0,0.9563961539295169,0
513,332.43333333333334,0.6000000000000227,0.6638888888888914,0.6555555555555657,0.9152542372881561,0.023383713069414506,0.9069958781774252,36.111111111111114,1.0833333333008335,1.0127118644067679,0.0,0.9365465722065736,0
514,333.09722222222223,0.6638888888888914,0.6861111111111313,0.6555555555555657,1.0127118644067679,0.022550335453645647,0.8746712400746618,36.111111111111114,1.0833333333008335,1.0466101694915402,0.0,0.9509912308575141,0
515,333.78333333333336,0.6861111111111313,0.6888888888888687,0.6555555555555657,1.0466101694915402,0.022963354702464994,0.8906912260869373,38.888888888888886,1.1666666666316665,1.0508474576270717,0.0,0.944715741244454,0
516,334.47222222222223,0.6888888888888687,0.6638888888888914,0.6555555555555657,1.0508474576270717,0.023672700971031427,0.9182049977399008,38.888888888888886,1.1666666666316665,1.0127118644067679,0.0,0.9543120181217759,0
517,335.1361111111111,0.6638888888888914,0.6388888888888573,0.6555555555555657,1.0127118644067679,0.02318616339002958,0.8993334190801248,33.333333333333336,0.9999999999700001,0.9745762711863775,0.0,0.9440619463110915,0
518,335.775,0.6388888888888573,0.6416666666667084,0.6555555555555657,0.9745762711863775,0.02230316075632626,0.8650839503660968,38.888888888888886,1.1666666666316665,0.9788135593220824,0.0,0.9519291666073878,0
519,336.4166666666667,0.6416666666667084,0.6194444444444116,0.6555555555555657,0.9788135593220824,0.021775621852039732,0.8446220326909284,33.333333333333336,0.9999999999700001,0.9449152542372234,0.0,0.9421027304864836,0
520,337.0361111111111,0.6194444444444116,0.61388888888888,0.6555555555555657,0.9449152542372234,0.022016540025206446,0.8539666474401597,36.111111111111114,1.0833333333008335,0.9364406779660738,0.0,0.9470750102289306,0
521,337.65,0.61388888888888,0.6027777777778169,0.6555555555555657,0.9364406779660738,0.022693132046320282,0.8802099635694809,36.111111111111114,1.0833333333008335,0.9194915254237743,0.0,0.9425884944954973,0
522,338.2527777777778,0.6027777777778169,0.6222222222222058,0.6555555555555657,0.9194915254237743,0.02238342307372786,0.868197125371286,36.111111111111114,1.0833333333008335,0.9491525423728416,0.0,0.9424453881717958,0
523,338.875,0.6222222222222058,0.6416666666666515,0.6555555555555657,0.9491525423728416,0.021968976452450786,0.8521217751432446,33.333333333333336,0.9999999999700001,0.9788135593219957,0.0,0.9431342074377291,0
524,339.51666666666665,0.6416666666666515,0.6388888888889142,0.6555555555555657,0.9788135593219957,0.024578675310328153,0.9533454815902367,38.888888888888886,1.1666666666316665,0.9745762711864642,0.0,0.9500892002525603,0
525,340.15555555555557,0.6388888888889142,0.63611111111112,0.6555555555555657,0.9745762711864642,0.0238937701627191,0.926779720028766,36.111111111111114,1.0833333333008335,0.970338983050846,0.0,0.9516351108810591,0
526,340.7916666666667,0.63611111111112,0.6666666666666288,0.6555555555555657,0.970338983050846,0.02170486798020664,0.841877666561939,36.111111111111114,1.0833333333008335,1.0169491525422993,0.0,0.9428196967890016,0
527,341.4583333333333,0.6666666666666288,0.6472222222222399,0.6555555555555657,1.0169491525422993,0.02243605681023596,0.870238656668057,38.888888888888886,1.1666666666316665,0.9872881355932321,0.0,0.9409026243009533,0
528,342.10555555555555,0.6472222222222399,0.6055555555555543,0.6555555555555657,0.9872881355932321,0.01933976995486006,0.7501414160311918,36.111111111111114,1.0833333333008335,0.9237288135593059,0.0,0.9481890257963892,0
529,342.7111111111111,0.6055555555555543,0.5777777777777828,0.6555555555555657,0.9237288135593059,0.02126322265719731,0.8247473465654223,33.333333333333336,0.9999999999700001,0.8813559322033839,0.0,0.9358880712157043,0
530,343.2888888888889,0.5777777777777828,0.6416666666666515,0.6555555555555657,0.8813559322033839,0.022451441239561165,0.8708353802912323,36.111111111111114,1.0833333333008335,0.9788135593219957,0.0,0.9379627984187092,0
531,343.93055555555554,0.6416666666666515,0.6527777777777715,0.6555555555555657,0.9788135593219957,0.02239232337971785,0.8685423460307884,36.111111111111114,1.0833333333008335,0.9957627118643818,0.0,0.9396080598031851,0
532,344.5833333333333,0.6527777777777715,0.625,0.6555555555555657,0.9957627118643818,0.02224945168885978,0.8630007096648341,36.111111111111114,1.0833333333008335,0.9533898305084599,0.0,0.9429103580517726,0
533,345.2083333333333,0.625,0.6611111111111541,0.6555555555555657,0.9533898305084599,0.022601034739251773,0.8766377388481796,36.111111111111114,1.0833333333008335,1.0084745762712364,0.0,0.9341420603417133,0
534,345.86944444444447,0.6611111111111541,0.669444444444423,0.6555555555555657,1.0084745762712364,0.02327081288072492,0.9026167615896132,36.111111111111114,1.0833333333008335,1.0211864406779176,0.0,0.9432530175189493,0
535,346.5388888888889,0.669444444444423,0.6333333333333258,0.6555555555555657,1.0211864406779176,0.024030207347943366,0.932071777977869,36.111111111111114,1.0833333333008335,0.9661016949152278,0.0,0.9609997777382832,0
536,347.1722222222222,0.6333333333333258,0.6305555555555884,0.6555555555555657,0.9661016949152278,0.021262645847735774,0.8247249735657813,33.333333333333336,0.9999999999700001,0.9618644067796963,0.0,0.9470044849475429,0
537,347.8027777777778,0.6305555555555884,0.5749999999999886,0.6555555555555657,0.9618644067796963,0.021414902105498512,0.8306306138636923,36.111111111111114,1.0833333333008335,0.8771186440677657,0.0,0.9497634388504473,0
538,348.3777777777778,0.5749999999999886,0.5805555555555202,0.6555555555555657,0.8771186440677657,0.021271607569337905,0.825072576383622,33.333333333333336,0.9999999999700001,0.8855932203389154,0.0,0.9362589113121573,0
539,348.9583333333333,0.5805555555555202,0.580555555555577,0.6555555555555657,0.8855932203389154,0.026029074373106503,1.0096028419053966,30.555555555555557,0.9166666666391667,0.8855932203390021,0.0,0.9931696550598255,0
540,349.5388888888889,0.580555555555577,0.5749999999999886,0.6555555555555657,0.8855932203390021,0.025404830218281365,0.9853899688803972,30.555555555555557,0.9166666666391667,0.8771186440677657,0.0,0.993784522028143,0
541,350.1138888888889,0.5749999999999886,0.6083333333333485,0.6555555555555657,0.8771186440677657,0.02591101055114177,1.005023440868187,33.333333333333336,0.9999999999700001,0.9279661016949241,0.0,0.9925369492121306,0
542,350.72222222222223,0.6083333333333485,0.6499999999999773,0.6555555555555657,0.9279661016949241,0.026817905609768957,1.0401996371237858,33.333333333333336,0.9999999999700001,0.9915254237287636,0.0,0.9964613611096973,0
543,351.3722222222222,0.6499999999999773,0.6666666666666856,0.6555555555555657,0.9915254237287636,0.026509271490018513,1.0282284897851404,30.555555555555557,0.9166666666391667,1.0169491525423862,0.0,0.9907449509787782,0
544,352.0388888888889,0.6666666666666856,0.6722222222222172,0.6555555555555657,1.0169491525423862,0.02710711218650921,1.051417238548613,33.333333333333336,0.9999999999700001,1.0254237288135357,0.0,0.9941716327550313,0
545,352.7111111111111,0.6722222222222172,0.63611111111112,0.6555555555555657,1.0254237288135357,0.026310325039306696,1.0205118534135769,33.333333333333336,0.9999999999700001,0.970338983050846,0.0,0.9970138670422072,0
546,353.34722222222223,0.63611111111112,0.625,0.6555555555555657,0.970338983050846,0.025654428093111453,0.9950712475977982,30.555555555555557,0.9166666666391667,0.9533898305084599,0.0,0.9923965233990844,0
547,353.97222222222223,0.625,0.5999999999999659,0.6555555555555657,0.9533898305084599,0.026856905866026765,1.0417123597426738,33.333333333333336,0.9999999999700001,0.9152542372880694,0.0,0.9961133932488905,0
548,354.5722222222222,0.5999999999999659,0.5888888888889028,0.6555555555555657,0.9152542372880694,0.024951154880086875,0.9677930346145828,30.555555555555557,0.9166666666391667,0.8983050847457701,0.0,0.9919970418410526,0
549,355.1611111111111,0.5888888888889028,0.6027777777778169,0.6555555555555657,0.8983050847457701,0.02586965061169165,1.0034191920266293,33.333333333333336,0.9999999999700001,0.9194915254237743,0.0,0.9892939663879945,0
550,355.7638888888889,0.6027777777778169,0.5944444444444343,0.6555555555555657,0.9194915254237743,0.024164997738252984,0.9372999608616496,27.77777777777778,0.8333333333083334,0.9067796610169198,0.0,0.9897657984809056,0
551,356.35833333333335,0.5944444444444343,0.63611111111112,0.6555555555555657,0.9067796610169198,0.02793144187798939,1.0833909302464348,30.555555555555557,0.9166666666391667,0.970338983050846,0.0,0.9923303921415871,0
552,356.99444444444447,0.63611111111112,0.6722222222222172,0.6555555555555657,0.970338983050846,0.027137105279944052,1.0525805957980983,33.333333333333336,0.9999999999700001,1.0254237288135357,0.0,0.9952812295692884,0
