beat_index,peak_time_s,rr_prev_s,rr_next_s,rr_baseline_s,prematurity_index,aa_ratio,morph_index,qrs_width_ms,width_index,pause_index,pvc_score,morphology_score,is_pvc_candidate
0,0.2638888888888889,,0.43888888888888883,0.5527777777779193,,0.02479403209072717,0.9491881944193913,38.888888888888886,0.9333333333109334,0.7939698492460279,3.225767867000406e-19,0.9991449101510324,0
1,0.7027777777777777,0.43888888888888883,0.625,0.5527777777779193,0.7939698492460279,0.027716834997899512,1.061081653456263,41.666666666666664,0.9999999999760001,1.1306532663313689,1.885676503832201e-08,0.9966277468531528,0
2,1.3277777777777777,0.625,0.5416666666666667,0.5527777777779193,1.1306532663313689,0.02571590990357599,0.9844803781776162,38.888888888888886,0.9333333333109334,0.9798994974871865,4.2382115137827754e-15,0.9980897229613372,0
3,1.8694444444444445,0.5416666666666667,0.5555555555555554,0.5527777777779193,0.9798994974871865,0.02605729970278744,0.9975497799562767,38.888888888888886,0.9333333333109334,1.005025125627883,6.071635707226297e-13,0.9977116961650716,0
4,2.425,0.5555555555555554,0.5638888888888891,0.5527777777779193,1.005025125627883,0.02548114347933584,0.9754928315970766,41.666666666666664,0.9999999999760001,1.0201005025123022,4.856516664514254e-13,0.9976052383010248,0
5,2.988888888888889,0.5638888888888891,0.547222222222222,0.5555555555555554,1.0150000000000008,0.02537437706823055,0.9714055005566538,36.111111111111114,0.8666666666458669,0.9850000000000001,4.342495330336704e-14,0.9949482301438615,0
6,3.536111111111111,0.547222222222222,0.536111111111111,0.5513888888888887,0.9924433249370277,0.026803103782740322,1.026101345326955,41.666666666666664,0.9999999999760001,0.9722921914357684,4.8045916203887096e-12,0.9957822913199033,0
7,4.072222222222222,0.536111111111111,0.5250000000000004,0.547222222222222,0.9796954314720813,0.024861769051208793,0.9517813637344804,36.111111111111114,0.8666666666458669,0.9593908629441634,2.4668950286384564e-14,0.9965866366253504,0
8,4.597222222222222,0.5250000000000004,0.5388888888888888,0.5444444444444444,0.964285714285715,0.02533138406641145,0.9697596024784384,38.888888888888886,0.9333333333109334,0.9897959183673468,3.8891389024173217e-13,0.9972529932914453,0
9,5.136111111111111,0.5388888888888888,0.5499999999999998,0.5416666666666667,0.9948717948717944,0.02535777877834098,0.9707700693870449,38.888888888888886,0.9333333333109334,1.0153846153846149,4.3289186796822976e-13,0.9967834794323179,0
10,5.686111111111111,0.5499999999999998,0.5277777777777777,0.5444444444444444,1.0102040816326527,0.02512106959770122,0.9617081483992934,38.888888888888886,0.9333333333109334,0.9693877551020407,4.5749689437215094e-14,0.9982458526914304,0
11,6.213888888888889,0.5277777777777777,0.5444444444444452,0.5444444444444444,0.9693877551020407,0.024453999823603776,0.9361707629466017,36.111111111111114,0.8666666666458669,1.0000000000000013,1.0956896333161673e-13,0.9936277756878549,0
12,6.758333333333334,0.5444444444444452,0.5527777777777771,0.543055555555556,1.0025575447570338,0.02494042367241759,0.9547924930907195,38.888888888888886,0.9333333333109334,1.0179028132992307,1.3945955664156767e-13,0.997273285287223,0
13,7.311111111111111,0.5527777777777771,0.5583333333333336,0.5458333333333336,1.0127226463104309,0.027179135108784332,1.0404969262517023,41.666666666666664,0.9999999999760001,1.0229007633587786,1.513162511956878e-11,0.9962974324504709,0
14,7.8694444444444445,0.5583333333333336,0.522222222222223,0.5458333333333336,1.0229007633587786,0.02641379175715839,1.0111973403117291,41.666666666666664,0.9999999999760001,0.9567430025445303,1.727356755895637e-12,0.9954923765730241,0
15,8.391666666666667,0.522222222222223,0.5499999999999989,0.541666666666667,0.9641025641025651,0.025488887970382092,0.9757893134055211,38.888888888888886,0.9333333333109334,1.0153846153846129,1.0152999318016609e-12,0.9970649677747014,0
16,8.941666666666666,0.5499999999999989,0.5250000000000004,0.541666666666667,1.0153846153846129,0.025218004910693714,0.9654191161990501,38.888888888888886,0.9333333333109334,0.9692307692307693,4.150757225451253e-14,0.9991031688601422,0
17,9.466666666666667,0.5250000000000004,0.5416666666666661,0.541666666666667,0.9692307692307693,0.02678533040298693,1.0254209282743707,41.666666666666664,0.9999999999760001,0.9999999999999983,1.3557848420331364e-11,0.9960143806263857,0
18,10.008333333333333,0.5416666666666661,0.56388888888889,0.5430555555555556,0.9974424552429655,0.025874509487093893,0.990552034928086,38.888888888888886,0.9333333333109334,1.0383631713555006,4.604068862268385e-13,0.9996967345440508,0
19,10.572222222222223,0.56388888888889,0.56111111111111,0.547222222222222,1.0304568527918805,0.02629978475341893,1.006832818170488,38.888888888888886,0.9333333333109334,1.0253807106598967,4.494216956051067e-13,0.9983301122835554,0
20,11.133333333333333,0.56111111111111,0.5333333333333332,0.547222222222222,1.0253807106598967,0.026301724501044014,1.0069070773929953,38.888888888888886,0.9333333333109334,0.9746192893401016,7.022415418264649e-13,0.99514332572025,0
21,11.666666666666666,0.5333333333333332,0.5583333333333336,0.547222222222222,0.9746192893401016,0.02539161282356134,0.9720653357711128,38.888888888888886,0.9333333333109334,1.0203045685279195,2.5287904365997593e-13,0.9989809982824949,0
22,12.225,0.5583333333333336,0.5305555555555568,0.551388888888888,1.012594458438289,0.02467415566513538,0.9445989736123619,38.888888888888886,0.9333333333109334,0.9622166246851422,1.2987629025083651e-14,0.997904952108016,0
23,12.755555555555556,0.5305555555555568,0.5361111111111097,0.5458333333333325,0.972010178117052,0.025184835678235477,0.9641493007954036,38.888888888888886,0.9333333333109334,0.9821882951653932,9.902073329045094e-14,0.9991952953291282,0
24,13.291666666666666,0.5361111111111097,0.5305555555555568,0.5388888888888879,0.9948453608247414,0.02488082922941524,0.9525110432021398,36.111111111111114,0.8666666666458669,0.984536082474231,8.389063098704352e-14,0.9949890870362454,0
25,13.822222222222223,0.5305555555555568,0.5444444444444443,0.5388888888888879,0.984536082474231,0.02554024198515499,0.977755295557198,38.888888888888886,0.9333333333109334,1.0103092783505172,2.800290652572174e-13,0.9996790730336751,0
26,14.366666666666667,0.5444444444444443,0.56111111111111,0.5388888888888879,1.0103092783505172,0.024788190429020227,0.9489645584933051,36.111111111111114,0.8666666666458669,1.0412371134020617,6.524305835170496e-14,0.99672243418612,0
27,14.927777777777777,0.56111111111111,0.5472222222222225,0.5430555555555552,1.033248081841431,0.025396879645041597,0.9722669651290519,38.888888888888886,0.9333333333109334,1.0076726342711009,6.95429973915189e-14,0.9989006818170423,0
28,15.475,0.5472222222222225,0.5555555555555554,0.5458333333333334,1.002544529262087,0.02644155708224119,1.0122602783077104,38.888888888888886,0.9333333333109334,1.0178117048346051,8.703273019806945e-13,0.9988673539385502,0
29,16.030555555555555,0.5555555555555554,0.533333333333335,0.5458333333333334,1.0178117048346051,0.024867871633609175,0.9520149884692036,36.111111111111114,0.8666666666458669,0.9770992366412243,1.2166193413495376e-14,0.9971841228473024,0
30,16.56388888888889,0.533333333333335,0.5361111111111114,0.540277777777777,0.9871465295629865,0.026090778118381078,0.9988314317962463,41.666666666666664,0.9999999999760001,0.9922879177377912,1.8106895106548282e-12,0.9977374083938004,0
31,17.1,0.5361111111111114,0.530555555555555,0.5402777777777779,0.9922879177377897,0.025092811229054435,0.9606263352510757,38.888888888888886,0.9333333333109334,0.9820051413881736,8.311150975336828e-14,0.9989183233977554,0
32,17.630555555555556,0.530555555555555,0.5444444444444443,0.5361111111111105,0.9896373056994819,0.02459474095616698,0.9415587458696443,38.888888888888886,0.9333333333109334,1.015544041450778,1.388689646131605e-13,0.99754994821633,0
33,18.175,0.5444444444444443,0.5527777777777771,0.5402777777777779,1.0077120822622103,0.026905166162897395,1.0300085922799695,41.666666666666664,0.9999999999760001,1.0231362467866312,7.958019659914939e-12,0.9977819350713919,0
34,18.727777777777778,0.5527777777777771,0.5555555555555571,0.5444444444444443,1.0153061224489788,0.02591290154886938,0.9920217955407755,38.888888888888886,0.9333333333109334,1.0204081632653093,2.3247793664096794e-13,0.9995021979130625,0
35,19.283333333333335,0.5555555555555571,0.5361111111111079,0.5458333333333334,1.0178117048346085,0.02490315632226089,0.9533657897341782,36.111111111111114,0.8666666666458669,0.9821882951653884,4.005051973117284e-14,0.9943798446973706,0
36,19.819444444444443,0.5361111111111079,0.5500000000000007,0.5458333333333334,0.9821882951653884,0.02507565397517819,0.9599695053023043,36.111111111111114,0.8666666666458669,1.0076335877862608,7.301094678922176e-14,0.9969009703699327,0
37,20.369444444444444,0.5500000000000007,0.5250000000000021,0.5458333333333334,1.0076335877862608,0.024599272199345806,0.9417322151349758,36.111111111111114,0.8666666666458669,0.9618320610687061,1.3620371107012086e-14,0.9955848194195946,0
38,20.894444444444446,0.5250000000000021,0.5361111111111114,0.5402777777777779,0.9717223650385642,0.0253328091785933,0.9698141599483079,38.888888888888886,0.9333333333109334,0.9922879177377897,2.306379913441514e-13,0.999022743987193,0
39,21.430555555555557,0.5361111111111114,0.5527777777777771,0.5361111111111114,1.0,0.02508012047565357,0.9601404960272532,36.111111111111114,0.8666666666458669,1.0310880829015525,2.9739259015462705e-13,0.994685190938387,0
40,21.983333333333334,0.5527777777777771,0.5361111111111114,0.5402777777777779,1.0231362467866312,0.026393399078294216,1.0104166488146935,38.888888888888886,0.9333333333109334,0.9922879177377897,4.0885827709558065e-13,0.9991824365696405,0
41,22.519444444444446,0.5361111111111114,0.5416666666666643,0.5402777777777779,0.9922879177377897,0.025450223293526104,0.9743091162887936,38.888888888888886,0.9333333333109334,1.002570694087399,3.117473998132808e-13,0.9979295914766643,0
42,23.06111111111111,0.5416666666666643,0.5416666666666679,0.5430555555555543,0.9974424552429647,0.025774582606695216,0.9867265411627917,38.888888888888886,0.9333333333109334,0.9974424552429713,2.49727999781027e-13,0.9990116546893878,0
43,23.602777777777778,0.5416666666666679,0.56111111111111,0.5416666666666661,1.0000000000000033,0.027033230363544193,1.0349112651061114,41.666666666666664,0.9999999999760001,1.0358974358974349,2.4269582871161433e-11,0.9959086152963617,0
44,24.163888888888888,0.56111111111111,0.5555555555555571,0.5416666666666661,1.0358974358974349,0.02477483771733715,0.9484533775669157,36.111111111111114,0.8666666666458669,1.0256410256410298,1.40604496158569e-14,0.9979591502805382,0
45,24.719444444444445,0.5555555555555571,0.5444444444444443,0.5416666666666661,1.0256410256410298,0.025674583460409954,0.9828982808476214,38.888888888888886,0.9333333333109334,1.005128205128206,6.04756045588517e-13,0.9950047467689328,0
46,25.26388888888889,0.5444444444444443,0.5249999999999986,0.5430555555555561,1.002557544757032,0.025768774796658078,0.9865042011778102,38.888888888888886,0.9333333333109334,0.9667519181585642,1.0487179294459484e-13,0.9995829059132391,0
47,25.788888888888888,0.5249999999999986,0.5472222222222243,0.5416666666666661,0.9692307692307677,0.023933366569864188,0.916239396549097,36.111111111111114,0.8666666666458669,1.010256410256415,1.2003187852026916e-14,0.9980367328582621,0
48,26.336111111111112,0.5472222222222243,0.5583333333333336,0.5430555555555561,1.0076726342711027,0.026266603200357296,1.0055625310980443,38.888888888888886,0.9333333333109334,1.0281329923273652,9.942654338734869e-13,0.9983080610307895,0
49,26.894444444444446,0.5583333333333336,0.5555555555555536,0.5458333333333343,1.0229007633587772,0.0268579976128159,1.028202841980002,41.666666666666664,0.9999999999760001,1.0178117048346003,1.2941703264601756e-11,0.9945774264752558,0
50,27.45,0.5555555555555536,0.5361111111111114,0.5458333333333343,1.0178117048346003,0.02614236780938186,1.000806436324453,38.888888888888886,0.9333333333109334,0.9821882951653933,1.6720597074883908e-13,0.9993340430496638,0
51,27.98611111111111,0.5361111111111114,0.5527777777777771,0.5458333333333343,0.9821882951653933,0.024874780173380007,0.9522794676135056,36.111111111111114,0.8666666666458669,1.0127226463104297,3.7033630285662755e-13,0.991843318550285,0
52,28.538888888888888,0.5527777777777771,0.5222222222222221,0.5500000000000007,1.0050505050505025,0.026153633242031515,1.0012377100937597,41.666666666666664,0.9999999999760001,0.9494949494949482,1.4475889020468258e-12,0.9947562007353865,0
53,29.06111111111111,0.5222222222222221,0.5388888888888914,0.5500000000000007,0.9494949494949482,0.024315038394897126,0.9308509123016825,36.111111111111114,0.8666666666458669,0.9797979797979831,4.511727092187251e-14,0.9948096028856277,0
54,29.6,0.5388888888888914,0.5388888888888879,0.5458333333333343,0.9872773536895704,0.023793357760898765,0.9108794491190702,38.888888888888886,0.9333333333109334,0.9872773536895638,9.044803310996868e-15,0.9984583432494776,0
55,30.13888888888889,0.5388888888888879,0.5333333333333314,0.5416666666666679,0.9948717948717908,0.025170969547705657,0.9636184646912547,36.111111111111114,0.8666666666458669,0.984615384615379,6.328231260408282e-14,0.9966320568917373,0
56,30.67222222222222,0.5333333333333314,0.5388888888888914,0.5388888888888896,0.9896907216494797,0.024991321001759003,0.9567409919860005,38.888888888888886,0.9333333333109334,1.0000000000000033,3.1700052196929895e-13,0.9960387579995003,0
57,31.211111111111112,0.5388888888888914,0.5472222222222207,0.5388888888888914,1.0,0.026545904113448857,1.0162549883969205,41.666666666666664,0.9999999999760001,1.0154639175257656,3.508817802283515e-12,0.9986076387278779,0
58,31.758333333333333,0.5472222222222207,0.56388888888889,0.5388888888888914,1.0154639175257656,0.026174011708372927,1.0020178574937817,38.888888888888886,0.9333333333109334,1.0463917525773168,1.1549795408266617e-12,0.998551648067181,0
59,32.32222222222222,0.56388888888889,0.5305555555555515,0.5388888888888914,1.0463917525773168,0.026277500239657813,1.0059797016905614,41.666666666666664,0.9999999999760001,0.9845360824742145,8.10134891029296e-13,0.998134049043359,0
60,32.852777777777774,0.5305555555555515,0.5388888888888914,0.5388888888888896,0.9845360824742179,0.025464396708314685,0.9748517161347041,38.888888888888886,0.9333333333109334,1.0000000000000033,2.453448143431569e-13,0.9992362176296377,0
61,33.391666666666666,0.5388888888888914,0.5361111111111114,0.5388888888888914,1.0,0.025323398673729194,0.969453898249531,38.888888888888886,0.9333333333109334,0.9948453608247382,1.2426001796527614e-13,0.9992204671172348,0
62,33.92777777777778,0.5361111111111114,0.5416666666666643,0.5388888888888896,0.9948453608247415,0.025268649488570997,0.9673579390277278,38.888888888888886,0.9333333333109334,1.005154639175252,2.2532620029807465e-13,0.9981386005759901,0
63,34.46944444444444,0.5416666666666643,0.5472222222222243,0.5388888888888914,1.0051546391752486,0.026278353104019738,1.0060123518372102,38.888888888888886,0.9333333333109334,1.0154639175257723,1.4089832816102654e-12,0.997731671046268,0
64,35.016666666666666,0.5472222222222243,0.56111111111111,0.5388888888888914,1.0154639175257723,0.025630665972583812,0.9812169907363321,38.888888888888886,0.9333333333109334,1.0412371134020548,3.5449597359134277e-13,0.9989418930678235,0
65,35.577777777777776,0.56111111111111,0.5500000000000043,0.5402777777777779,1.0385604113110518,0.02586399499787515,0.9901495094735627,38.888888888888886,0.9333333333109334,1.017994858611833,2.517797981823472e-13,0.9982175677331488,0
66,36.12777777777778,0.5500000000000043,0.5472222222222172,0.5444444444444425,1.0102040816326645,0.025992495089951502,0.9950688695007806,38.888888888888886,0.9333333333109334,1.005102040816321,1.3483750791257187e-12,0.9947998311617736,0
67,36.675,0.5472222222222172,0.5222222222222257,0.547222222222219,0.9999999999999968,0.025621883875129713,0.9808807863144305,38.888888888888886,0.9333333333109334,0.9543147208121948,6.71283165230678e-14,0.9989808523826262,0
68,37.19722222222222,0.5222222222222257,0.5388888888888914,0.5444444444444407,0.9591836734694007,0.024079257488551234,0.9218245283737241,36.111111111111114,0.8666666666458669,0.9897959183673584,1.5887907105932055e-14,0.9972504256382069,0
69,37.736111111111114,0.5388888888888914,0.5444444444444443,0.5402777777777779,0.9974293059126009,0.023706577871501797,0.9075572606897251,36.111111111111114,0.8666666666458669,1.0077120822622103,2.6176299626132216e-14,0.993259964782002,0
70,38.28055555555556,0.5444444444444443,0.5472222222222172,0.5430555555555543,1.0025575447570352,0.025843509781249444,0.9893652753598821,38.888888888888886,0.9333333333109334,1.0076726342710929,4.593341223872727e-13,0.9978383684890504,0
71,38.827777777777776,0.5472222222222172,0.5416666666666714,0.5458333333333307,1.002544529262082,0.026166551288652713,1.0017322507680209,38.888888888888886,0.9333333333109334,0.9923664122137539,6.062875353672614e-13,0.9973999207805075,0
72,39.36944444444445,0.5416666666666714,0.5444444444444443,0.5458333333333307,0.9923664122137539,0.026928068283241686,1.030885352549474,38.888888888888886,0.9333333333109334,0.997455470737918,2.2731935691439054e-12,0.9982146237111829,0
73,39.91388888888889,0.5444444444444443,0.5527777777777771,0.5458333333333307,0.997455470737918,0.025345347013493388,0.9702941450038727,38.888888888888886,0.9333333333109334,1.0127226463104362,1.1695277992579411e-13,0.9992567376800006,0
74,40.46666666666667,0.5527777777777771,0.5416666666666643,0.5458333333333307,1.0127226463104362,0.025824664237675203,0.9886438127348185,38.888888888888886,0.9333333333109334,0.9923664122137409,1.3651848206584771e-13,0.9992056929766069,0
75,41.00833333333333,0.5416666666666643,0.5388888888888914,0.5444444444444443,0.9948979591836694,0.02586683841793714,0.990258363924696,38.888888888888886,0.9333333333109334,0.9897959183673518,2.6634315412887855e-13,0.9988295043107523,0
76,41.547222222222224,0.5388888888888914,0.5249999999999986,0.5430555555555578,0.9923273657289007,0.026089366345400176,0.9987773849900727,38.888888888888886,0.9333333333109334,0.9667519181585611,2.3357710080343375e-13,0.9995364599610739,0
77,42.07222222222222,0.5249999999999986,0.5361111111111114,0.5416666666666679,0.9692307692307645,0.024188452630234867,0.9260048383368148,36.111111111111114,0.8666666666458669,0.9897435897435881,1.523402985790373e-14,0.9976949817402634,0
78,42.608333333333334,0.5361111111111114,0.5444444444444443,0.5416666666666679,0.9897435897435881,0.02526654409179662,0.9672773382704369,38.888888888888886,0.9333333333109334,1.0051282051282027,2.5180671350127914e-13,0.9976857276779939,0
79,43.15277777777778,0.5444444444444443,0.55833333333333,0.5430555555555578,1.0025575447570287,0.02666862220959962,1.0209529966789817,41.666666666666664,0.9999999999760001,1.0281329923273552,1.0849309298177623e-11,0.9958942133969242,0
80,43.71111111111111,0.55833333333333,0.5361111111111114,0.5430555555555578,1.0281329923273552,0.025618311935931164,0.9807440420162041,38.888888888888886,0.9333333333109334,0.9872122762148302,7.696240292200812e-14,0.9990849244737976,0
81,44.24722222222222,0.5361111111111114,0.5500000000000043,0.5416666666666679,0.9897435897435881,0.02568590037549371,0.983331525515348,38.888888888888886,0.9333333333109334,1.015384615384621,3.1573273726395734e-13,0.9994706746798385,0
82,44.797222222222224,0.5500000000000043,0.5361111111111114,0.5430555555555543,1.0127877237851763,0.025965712672452335,0.9940435600869992,38.888888888888886,0.9333333333109334,0.9872122762148366,1.9787052855588239e-13,0.9990926439015433,0
83,45.333333333333336,0.5361111111111114,0.5361111111111114,0.5402777777777779,0.9922879177377897,0.0248498653522847,0.9513256552620817,38.888888888888886,0.9333333333109334,0.9922879177377897,1.6188179269294167e-13,0.9964561163470749,0
84,45.86944444444445,0.5361111111111114,0.5361111111111114,0.5375000000000014,0.9974160206718325,0.026031709838120268,0.9965701249590585,36.111111111111114,0.8666666666458669,0.9974160206718325,5.15110252629486e-13,0.99610291170079,0
85,46.40555555555556,0.5361111111111114,0.5527777777777771,0.5361111111111114,1.0,0.025568456112133483,0.9788354150047263,38.888888888888886,0.9333333333109334,1.0310880829015525,5.373182909891583e-13,0.9985047784276707,0
86,46.958333333333336,0.5527777777777771,0.5277777777777786,0.5361111111111114,1.0310880829015525,0.023980260008156416,0.9180346147636997,36.111111111111114,0.8666666666458669,0.9844559585492237,3.745691501107554e-15,0.997346857976174,0
87,47.486111111111114,0.5277777777777786,0.55833333333333,0.5361111111111114,0.9844559585492237,0.025636233798481102,0.9814301434252917,38.888888888888886,0.9333333333109334,1.0414507772020658,6.612531702754332e-13,0.9997485776860837,0
88,48.044444444444444,0.55833333333333,0.56388888888889,0.5402777777777779,1.0334190231362406,0.024579923380605294,0.9409914856619619,36.111111111111114,0.8666666666458669,1.043701799485863,2.504185654141327e-14,0.9966710756868377,0
89,48.608333333333334,0.56388888888889,0.5444444444444443,0.5430555555555578,1.0383631713554964,0.025713382370983404,0.9843836168243554,38.888888888888886,0.9333333333109334,1.0025575447570287,1.71363886080321e-13,0.9974190789150086,0
90,49.15277777777778,0.5444444444444443,0.5305555555555515,0.5402777777777779,1.0077120822622103,0.024441397655468565,0.9356883150263015,36.111111111111114,0.8666666666458669,0.9820051413881671,1.3608114540265316e-14,0.9966756749526064,0
91,49.68333333333333,0.5305555555555515,0.5416666666666714,0.5402777777777779,0.9820051413881671,0.025111022738308227,0.9613235251846454,36.111111111111114,0.8666666666458669,1.0025706940874122,9.698370714373086e-14,0.9970149390343992,0
92,50.225,0.5416666666666714,0.5305555555555515,0.5388888888888914,1.0051546391752617,0.02558067094674172,0.979303034662735,36.111111111111114,0.8666666666458669,0.9845360824742145,4.994705820812739e-13,0.992800789694157,0
93,50.75555555555555,0.5305555555555515,0.5527777777777771,0.5388888888888914,0.9845360824742145,0.025014999749578295,0.9576474838307502,38.888888888888886,0.9333333333109334,1.0257731958762826,2.0439317014071812e-13,0.9988012367741119,0
94,51.30833333333333,0.5527777777777771,0.5555555555555571,0.5430555555555578,1.0179028132992274,0.02663230833279246,1.0195627950759174,41.666666666666664,0.9999999999760001,1.0230179028132977,4.665918693080862e-12,0.9972800039523504,0
95,51.86388888888889,0.5555555555555571,0.5416666666666714,0.5486111111111107,1.0126582278481049,0.026196804557834266,1.0028904345537255,38.888888888888886,0.9333333333109334,0.9873417721519081,1.916185173858262e-13,0.999297517465414,0
96,52.40555555555556,0.5416666666666714,0.5416666666666643,0.5430555555555578,0.9974424552429713,0.025048054317056076,0.9589129095229788,38.888888888888886,0.9333333333109334,0.9974424552429582,6.534903911406542e-14,0.9992380739643789,0
97,52.94722222222222,0.5416666666666643,0.5333333333333314,0.5430555555555578,0.9974424552429582,0.026660603252378214,1.0206460075011723,38.888888888888886,0.9333333333109334,0.9820971867007596,7.371763247575325e-13,0.9994636056270805,0
98,53.480555555555554,0.5333333333333314,0.5361111111111114,0.5416666666666714,0.9846153846153725,0.024092033165538783,0.9223136187212692,36.111111111111114,0.8666666666458669,0.9897435897435817,3.5574414778988955e-14,0.9940204014289381,0
99,54.016666666666666,0.5361111111111114,0.5277777777777786,0.5416666666666679,0.9897435897435881,0.02530683430353507,0.9688197656252476,38.888888888888886,0.9333333333109334,0.9743589743589737,1.0130844053197682e-13,0.9989334537627903,0
100,54.544444444444444,0.5277777777777786,0.5499999999999972,0.5388888888888879,0.9793814432989724,0.024711672449238362,0.9460352260312029,36.111111111111114,0.8666666666458669,1.0206185567010275,4.8828549168399016e-14,0.9981663090980428,0
101,55.09444444444444,0.5499999999999972,0.5333333333333385,0.5416666666666679,1.015384615384608,0.024649799096399572,0.9436665327969271,38.888888888888886,0.9333333333109334,0.9846153846153921,2.582780147251159e-14,0.9984354683858614,0
102,55.62777777777778,0.5333333333333385,0.5444444444444443,0.5388888888888879,0.9896907216494961,0.025584068295106663,0.9794330951123035,38.888888888888886,0.9333333333109334,1.0103092783505172,3.01799384094803e-13,0.9993632817172486,0
103,56.172222222222224,0.5444444444444443,0.5444444444444443,0.5416666666666679,1.0051282051282027,0.02450558139484205,0.9381454566265088,36.111111111111114,0.8666666666458669,1.0051282051282027,1.4024719225042871e-14,0.9978188619401839,0
104,56.71666666666667,0.5444444444444443,0.5472222222222172,0.5416666666666679,1.0051282051282027,0.025466137723538486,0.9749183672986088,38.888888888888886,0.9333333333109334,1.0102564102563987,1.6189321747333424e-13,0.9990587966808863,0
105,57.263888888888886,0.5472222222222172,0.5388888888888914,0.5416666666666679,1.0102564102563987,0.02497885437537521,0.9562637330010788,36.111111111111114,0.8666666666458669,0.9948717948717973,4.251353907585784e-14,0.9962893273157781,0
106,57.80277777777778,0.5388888888888914,0.5416666666666643,0.5402777777777779,0.9974293059126009,0.02558819620750035,0.9795911236934293,38.888888888888886,0.9333333333109334,1.002570694087399,2.4596657718402304e-13,0.9988854203951371,0
107,58.34444444444444,0.5416666666666643,0.5222222222222257,0.5402777777777779,1.002570694087399,0.024866626822148546,0.9519673334392197,38.888888888888886,0.9333333333109334,0.9665809768637595,3.720309989436489e-14,0.9986928127235108,0
108,58.86666666666667,0.5222222222222257,0.5416666666666643,0.5402777777777779,0.9665809768637595,0.02525646076401005,0.9668913189388313,38.888888888888886,0.9333333333109334,1.002570694087399,3.28758152428818e-13,0.9984904404513584,0
109,59.40833333333333,0.5416666666666643,0.56666666666667,0.5416666666666643,1.0,0.02654778952666082,1.016327167538895,41.666666666666664,0.9999999999760001,1.0461538461538569,1.2652692261971854e-11,0.9959821314122269,0
110,59.975,0.56666666666667,0.5555555555555571,0.5430555555555543,1.0434782608695738,0.02564895960744432,0.981917324678753,38.888888888888886,0.9333333333109334,1.0230179028133046,1.1366996482530672e-13,0.9987807730929454,0
111,60.53055555555556,0.5555555555555571,0.55555555555555,0.5430555555555543,1.0230179028133046,0.024440656880518292,0.9356599559907501,36.111111111111114,0.8666666666458669,1.0230179028132915,1.2805177924957167e-12,0.9846660782752583,0
112,61.08611111111111,0.55555555555555,0.5388888888888914,0.5444444444444443,1.0204081632652964,0.026829803495051305,1.0271234885438083,41.666666666666664,0.9999999999760001,0.9897959183673518,6.865032414066219e-12,0.9953530102088919,0
113,61.625,0.5388888888888914,0.5277777777777786,0.5430555555555543,0.9923273657289072,0.02389829714757829,0.9148968363113319,36.111111111111114,0.8666666666458669,0.971867007672638,2.951163754561295e-14,0.9921402901086964,0
114,62.15277777777778,0.5277777777777786,0.5444444444444443,0.5416666666666643,0.9743589743589801,0.025775850639126498,0.9867750851595691,36.111111111111114,0.8666666666458669,1.0051282051282093,7.811868014441503e-13,0.994875372715668,0
115,62.69722222222222,0.5444444444444443,0.43611111111111,0.5416666666666643,1.0051282051282093,0.024899287939384715,0.9532176967033986,38.888888888888886,0.9333333333109334,0.8051282051282066,3.569422250718039e-15,0.9981596324677336,0
116,63.13333333333333,0.43611111111111,0.625,0.5416666666666643,0.8051282051282066,0.027584207960684785,1.0560043018772869,41.666666666666664,0.9999999999760001,1.1538461538461589,1.883828737447857e-08,0.9965864741050905,0
117,63.75833333333333,0.625,0.56111111111111,0.5430555555555543,1.1508951406649643,0.02631769660611948,1.0075185363732122,38.888888888888886,0.9333333333109334,1.0332480818414327,2.1559283966909003e-14,0.9992346687077638,0
118,64.31944444444444,0.56111111111111,0.5444444444444514,0.5499999999999972,1.0202020202020234,0.027432015739492707,1.050177937730085,41.666666666666664,0.9999999999760001,0.9898989898990076,1.2362186795067398e-11,0.9958111600070814,0
119,64.8638888888889,0.5444444444444514,0.5638888888888829,0.5500000000000007,0.9898989898990013,0.025395291661281905,0.9722061724579721,36.111111111111114,0.8666666666458669,1.025252525252513,1.8768698346795926e-13,0.9954432737860369,0
120,65.42777777777778,0.5638888888888829,0.5277777777777715,0.5500000000000007,1.025252525252513,0.02480238631750008,0.949508018697965,38.888888888888886,0.9333333333109334,0.9595959595959469,8.288398653934041e-15,0.9990274711644345,0
121,65.95555555555555,0.5277777777777715,0.5333333333333456,0.5444444444444478,0.9693877551020231,0.025406524791349423,0.9726362095897888,36.111111111111114,0.8666666666458669,0.9795918367347104,1.0558147780538596e-13,0.9972214495557549,0
122,66.4888888888889,0.5333333333333456,0.5305555555555515,0.5416666666666679,0.9846153846154052,0.025019900656736753,0.9578351049163296,38.888888888888886,0.9333333333109334,0.9794871794871698,1.0741323737580022e-13,0.9980159190109672,0
123,67.01944444444445,0.5305555555555515,0.5583333333333371,0.538888888888895,0.9845360824742081,0.024879581718915397,0.9524632848450265,38.888888888888886,0.9333333333109334,1.0360824742267996,1.952868205687408e-13,0.9987914567960031,0
124,67.57777777777778,0.5583333333333371,0.5499999999999972,0.5444444444444478,1.0255102040816333,0.027247437019912762,1.0431117235328444,41.666666666666664,0.9999999999760001,1.0102040816326416,1.2839423101096425e-11,0.9961677297388969,0
125,68.12777777777778,0.5499999999999972,0.5527777777777771,0.5472222222222243,1.0050761421319707,0.02505267006155132,0.9590896137462899,38.888888888888886,0.9333333333109334,1.0101522842639545,5.699910351651336e-14,0.9989995446262709,0
126,68.68055555555556,0.5527777777777771,0.5444444444444372,0.5513888888888872,1.0025188916876595,0.024623317804848343,0.9426527513667253,38.888888888888886,0.9333333333109334,0.9874055415617028,1.5498802192820058e-14,0.9989765884311042,0
127,69.225,0.5444444444444372,0.5416666666666714,0.5472222222222243,0.9949238578680033,0.026169569580968867,1.0018477998414155,38.888888888888886,0.9333333333109334,0.9898477157360456,1.5371988621240562e-12,0.9950314384827178,0
128,69.76666666666667,0.5416666666666714,0.5250000000000057,0.5444444444444443,0.9948979591836825,0.025093530879606522,0.9606538855827703,36.111111111111114,0.8666666666458669,0.964285714285725,1.142788798704289e-13,0.9932767900683864,0
129,70.29166666666667,0.5250000000000057,0.5361111111111114,0.5430555555555543,0.9667519181585805,0.0260769827598327,0.9983033050509075,41.666666666666664,0.9999999999760001,0.9872122762148366,1.373705945002801e-12,0.998732784242601,0
130,70.82777777777778,0.5361111111111114,0.5499999999999972,0.5388888888888914,0.9948453608247382,0.025299280937039998,0.9685306006246133,36.111111111111114,0.8666666666458669,1.0206185567010209,1.837898187589601e-13,0.9963927764316376,0
131,71.37777777777778,0.5499999999999972,0.5499999999999972,0.5430555555555543,1.0127877237851635,0.026714183533567793,1.0226972176541929,38.888888888888886,0.9333333333109334,1.0127877237851635,1.891659572039739e-12,0.9976428743168053,0
132,71.92777777777778,0.5499999999999972,0.5472222222222172,0.5472222222222172,1.0050761421319838,0.026211688713426533,1.0034602436400566,38.888888888888886,0.9333333333109334,1.0,3.620239145355614e-13,0.9989512261710727,0
133,72.475,0.5472222222222172,0.5472222222222314,0.5486111111111072,0.9974683544303777,0.027358123885362382,1.047349141052416,41.666666666666664,0.9999999999760001,0.9974683544304036,2.746136130993282e-11,0.9945935726005253,0
134,73.02222222222223,0.5472222222222314,0.5499999999999972,0.5472222222222243,1.0000000000000129,0.02709444337277368,1.0372546784522303,41.666666666666664,0.9999999999760001,1.0050761421319707,7.949827428299638e-12,0.9973206681679458,0
135,73.57222222222222,0.5499999999999972,0.5416666666666714,0.5472222222222243,1.0050761421319707,0.02501044502579811,0.9574731156592009,38.888888888888886,0.9333333333109334,0.9898477157360456,3.429533743039455e-14,0.9992890491160196,0
136,74.1138888888889,0.5416666666666714,0.5555555555555571,0.5458333333333272,0.9923664122137603,0.02612307704619808,1.0000679293882524,38.888888888888886,0.9333333333109334,1.01781170483462,2.5790515556511906e-12,0.995113356875151,0
137,74.66944444444445,0.5555555555555571,0.5222222222222115,0.5472222222222243,1.0152284263959381,0.02537605522348912,0.9714697452569111,38.888888888888886,0.9333333333109334,0.9543147208121595,5.6357503164022535e-14,0.9973705151106429,0
138,75.19166666666666,0.5222222222222115,0.5361111111111114,0.5472222222222243,0.9543147208121595,0.024798872101749154,0.9493734842224422,38.888888888888886,0.9333333333109334,0.9796954314720782,1.0205258946932583e-13,0.9981045468100289,0
139,75.72777777777777,0.5361111111111114,0.5555555555555571,0.5472222222222243,0.9796954314720782,0.02543498437589716,0.9737257258722533,38.888888888888886,0.9333333333109334,1.0152284263959381,2.9544712488137337e-13,0.9981940439559209,0
140,76.28333333333333,0.5555555555555571,0.5555555555555571,0.5486111111111143,1.0126582278480982,0.02697165941736515,1.0325541488848158,41.666666666666664,0.9999999999760001,1.0126582278480982,9.212327081731253e-12,0.9959543310581321,0
141,76.83888888888889,0.5555555555555571,0.5361111111111114,0.5486111111111143,1.0126582278480982,0.024952073894917104,0.9552384977429048,36.111111111111114,0.8666666666458669,0.9772151898734127,1.3188027703041599e-14,0.9972133889459194,0
142,77.375,0.5361111111111114,0.5416666666666714,0.5472222222222243,0.9796954314720782,0.02591453165216844,0.9920842006712315,38.888888888888886,0.9333333333109334,0.9898477157360456,3.9453916479345597e-13,0.9984685750595143,0
143,77.91666666666667,0.5416666666666714,0.5305555555555515,0.5444444444444514,0.9948979591836695,0.02468601274739607,0.9450528974622997,38.888888888888886,0.9333333333109334,0.9744897959183474,5.3382848814141626e-14,0.9970209463297124,0
144,78.44722222222222,0.5305555555555515,0.5388888888888914,0.5416666666666714,0.9794871794871634,0.026071750599503642,0.9981030026233928,41.666666666666664,0.9999999999760001,0.9948717948717908,1.4177257458281023e-12,0.9986064079760184,0
145,78.98611111111111,0.5388888888888914,0.5388888888888914,0.5402777777777814,0.9974293059125944,0.025939510005417752,0.9930404452196586,41.666666666666664,0.9999999999760001,0.9974293059125944,1.203088843826361e-12,0.9980171513703299,0
146,79.525,0.5388888888888914,0.5444444444444372,0.5388888888888914,1.0,0.02589510024579314,0.9913403095015779,38.888888888888886,0.9333333333109334,1.0103092783504972,4.0013587061793476e-13,0.9994153954907751,0
147,80.06944444444444,0.5444444444444372,0.5416666666666714,0.5388888888888914,1.0103092783504972,0.024569182610362863,0.9405802975068535,38.888888888888886,0.9333333333109334,1.0051546391752617,8.050973624752766e-14,0.9966916476170263,0
148,80.61111111111111,0.5416666666666714,0.5444444444444372,0.5402777777777814,1.0025706940874057,0.025725429142199302,0.9848448025232832,38.888888888888886,0.9333333333109334,1.0077120822621906,2.87315689902895e-13,0.9990100435185901,0
149,81.15555555555555,0.5444444444444372,0.5611111111111171,0.5416666666666714,1.005128205128183,0.026327757347966885,1.0079036910488903,41.666666666666664,0.9999999999760001,1.035897435897438,8.166995725533699e-12,0.9955298331601724,0
150,81.71666666666667,0.5611111111111171,0.5555555555555571,0.5416666666666714,1.035897435897438,0.024479138988677155,0.9371331638428293,36.111111111111114,0.8666666666458669,1.0256410256410196,3.786435818749559e-14,0.9939095062101426,0
151,82.27222222222223,0.5555555555555571,0.5416666666666572,0.5416666666666714,1.0256410256410196,0.025108822962493414,0.961239311321158,41.666666666666664,0.9999999999760001,0.9999999999999738,6.446970236308192e-13,0.99455037351181,0
152,82.81388888888888,0.5416666666666572,0.5361111111111114,0.5416666666666714,0.9999999999999738,0.025584237487944375,0.9794395723098624,38.888888888888886,0.9333333333109334,0.9897435897435817,1.603648854334172e-13,0.999051250976309,0
153,83.35,0.5361111111111114,0.5555555555555571,0.5416666666666643,0.9897435897435947,0.024843761218512294,0.951091971136292,38.888888888888886,0.9333333333109334,1.025641025641033,2.867408730160975e-13,0.9962991294565253,0
154,83.90555555555555,0.5555555555555571,0.5555555555555571,0.5430555555555543,1.0230179028133046,0.025102961630633462,0.9610149223639814,38.888888888888886,0.9333333333109334,1.0230179028133046,5.367945264721577e-14,0.9995271375106601,0
155,84.46111111111111,0.5555555555555571,0.5666666666666629,0.5444444444444372,1.0204081632653226,0.02605140894510437,0.9973242644923742,41.666666666666664,0.9999999999760001,1.0408163265306192,1.5848395729448073e-12,0.9981948627356907,0
156,85.02777777777777,0.5666666666666629,0.5333333333333456,0.5499999999999972,1.0303030303030287,0.02510830015041464,0.9612192965429542,38.888888888888886,0.9333333333109334,0.9696969696969971,1.3672271356789199e-14,0.9992365411644109,0
157,85.56111111111112,0.5333333333333456,0.5583333333333229,0.5499999999999972,0.9696969696969971,0.02482909015949998,0.9505303200114099,36.111111111111114,0.8666666666458669,1.0151515151515014,1.6800902574547194e-13,0.9939498666986004,0
158,86.11944444444444,0.5583333333333229,0.5305555555555657,0.5555555555555571,1.0049999999999784,0.025735698261704396,0.9852379345062398,41.666666666666664,0.9999999999760001,0.9550000000000155,1.0960282432071616e-13,0.9993834615811181,0
159,86.65,0.5305555555555657,0.5416666666666572,0.5555555555555571,0.9550000000000155,0.025664303117444293,0.9825047191977099,41.666666666666664,0.9999999999760001,0.9749999999999802,3.442675831910602e-13,0.9991938582594636,0
160,87.19166666666666,0.5416666666666572,0.5472222222222314,0.5486111111111072,0.9873417721518886,0.023886708952990023,0.9144532062693296,38.888888888888886,0.9333333333109334,0.9974683544304036,1.0154614677609659e-14,0.9985537136291255,0
161,87.7388888888889,0.5472222222222314,0.5444444444444372,0.5444444444444443,1.0051020408163436,0.02525927616310862,0.966999100665384,38.888888888888886,0.9333333333109334,0.9999999999999869,8.778391967327603e-14,0.9988301374366237,0
162,88.28333333333333,0.5444444444444372,0.5416666666666714,0.5458333333333343,0.9974554707378984,0.024671217367972304,0.9444864869878111,36.111111111111114,0.8666666666458669,0.9923664122137474,2.6679804809100378e-14,0.9961021620141053,0
163,88.825,0.5416666666666714,0.5555555555555571,0.5458333333333343,0.9923664122137474,0.027509019061604262,1.0531258505186103,41.666666666666664,0.9999999999760001,1.0178117048346067,4.315213811278973e-11,0.995540167593939,0
164,89.38055555555556,0.5555555555555571,0.5583333333333229,0.5458333333333343,1.0178117048346067,0.026336683077045814,1.008245394110228,38.888888888888886,0.9333333333109334,1.0229007633587577,5.540817912992602e-13,0.9988633535062246,0
165,89.93888888888888,0.5583333333333229,0.5305555555555657,0.5458333333333343,1.0229007633587577,0.02730893053792733,1.0454658755771413,38.888888888888886,0.9333333333109334,0.9720101781170651,1.691221923789954e-12,0.9976850884003816,0
166,90.46944444444445,0.5305555555555657,0.5444444444444372,0.5430555555555543,0.9769820971867217,0.0254741174382911,0.9752238541597332,41.666666666666664,0.9999999999760001,1.0025575447570223,8.470536555157948e-13,0.997573026661077,0
167,91.01388888888889,0.5444444444444372,0.5416666666666714,0.5444444444444372,1.0,0.02560594116966465,0.9802704528374402,36.111111111111114,0.8666666666458669,0.9948979591836954,2.4804705273280547e-13,0.9946460786080944,0
168,91.55555555555556,0.5416666666666714,0.5361111111111114,0.5430555555555543,0.9974424552429778,0.026654497267686313,1.0204122525167612,41.666666666666664,0.9999999999760001,0.9872122762148366,3.3840716687216776e-12,0.9975905119958434,0
169,92.09166666666667,0.5361111111111114,0.5416666666666714,0.5430555555555543,0.9872122762148366,0.025646656910462706,0.9818291706914437,38.888888888888886,0.9333333333109334,0.9974424552429778,2.1266017104833862e-13,0.9994897183739242,0
170,92.63333333333334,0.5416666666666714,0.5611111111111029,0.5430555555555543,0.9974424552429778,0.0264098838898159,1.0110477356998904,38.888888888888886,0.9333333333109334,1.0332480818414196,1.7123981269420718e-12,0.9984227586271124,0
171,93.19444444444444,0.5611111111111029,0.5499999999999972,0.5430555555555543,1.0332480818414196,0.02695585951964404,1.0319492825066874,41.666666666666664,0.9999999999760001,1.0127877237851635,1.0657013466142118e-11,0.9953121810817358,0
172,93.74444444444444,0.5499999999999972,0.5472222222222314,0.5430555555555543,1.0127877237851635,0.024687211937611534,0.9450988059773495,36.111111111111114,0.8666666666458669,1.0076726342711189,2.676160447488262e-14,0.996333913904577,0
173,94.29166666666667,0.5472222222222314,0.5305555555555515,0.5458333333333343,1.0025445292621016,0.02540223687426663,0.9724720555603537,38.888888888888886,0.9333333333109334,0.9720101781170392,7.685825175081373e-14,0.9985022990802037,0
174,94.82222222222222,0.5305555555555515,0.5499999999999972,0.5430555555555543,0.9769820971866955,0.022372894788623393,0.8564999646140906,33.333333333333336,0.7999999999808002,1.0127877237851635,8.662396565025168e-14,0.9816907884398198,0
175,95.37222222222222,0.5499999999999972,0.5444444444444514,0.5430555555555543,1.0127877237851635,0.0251386332333182,0.9623805358317898,38.888888888888886,0.9333333333109334,1.0025575447570483,7.942060095515735e-14,0.9984009333020935,0
176,95.91666666666667,0.5444444444444514,0.5499999999999972,0.5444444444444443,1.000000000000013,0.026085859640973142,0.9986431380700365,41.666666666666664,0.9999999999760001,1.010204081632648,1.058509183082812e-12,0.9990173385169268,0
177,96.46666666666667,0.5499999999999972,0.5527777777777771,0.5458333333333414,1.0076335877862395,0.024521307088324604,0.9387474822489682,36.111111111111114,0.8666666666458669,1.0127226463104164,1.6896701323255298e-13,0.9907070500949364,0
178,97.01944444444445,0.5527777777777771,0.5444444444444372,0.5486111111111143,1.007594936708854,0.025993232204271962,0.9950970883966971,41.666666666666664,0.9999999999760001,0.9924050632911203,6.369224266923601e-13,0.9983912241996855,0
179,97.56388888888888,0.5444444444444372,0.5555555555555571,0.5486111111111143,0.9924050632911203,0.02650458635067598,1.014673223377809,41.666666666666664,0.9999999999760001,1.0126582278480982,2.192673343240359e-12,0.9988014702003003,0
180,98.11944444444444,0.5555555555555571,0.5555555555555571,0.5499999999999972,1.0101010101010182,0.02583209156308551,0.9889281525134305,38.888888888888886,0.9333333333109334,1.0101010101010182,1.5648070404543357e-13,0.999134201421531,0
181,98.675,0.5555555555555571,0.5472222222222314,0.5499999999999972,1.0101010101010182,0.0244041214267918,0.9342612717739982,36.111111111111114,0.8666666666458669,0.9949494949495168,2.8087626083479755e-14,0.9933443758643544,0
182,99.22222222222223,0.5472222222222314,0.5333333333333314,0.5486111111111143,0.9974683544303907,0.02478845490386092,0.9489746833651125,38.888888888888886,0.9333333333109334,0.9721518987341682,2.447296210898297e-14,0.9986079123380553,0
183,99.75555555555556,0.5333333333333314,0.5361111111111114,0.5486111111111143,0.9721518987341682,0.023963913992226565,0.9174088413804262,36.111111111111114,0.8666666666458669,0.9772151898734127,3.988028474349956e-15,0.9983801300548514,0
184,100.29166666666667,0.5361111111111114,0.5527777777777771,0.5486111111111143,0.9772151898734127,0.02560346605635867,0.980175698248058,38.888888888888886,0.9333333333109334,1.007594936708854,2.5890406355269513e-13,0.9989107277336279,0
185,100.84444444444445,0.5527777777777771,0.5638888888888829,0.5486111111111143,1.007594936708854,0.026518558571006868,1.0152081209103838,41.666666666666664,0.9999999999760001,1.0278481012658058,2.087870458120089e-12,0.9990818499082996,0
186,101.40833333333333,0.5638888888888829,0.5277777777777857,0.5513888888888872,1.0226700251889091,0.026428568614054272,1.0117630416895798,38.888888888888886,0.9333333333109334,0.957178841309841,6.199329244394036e-13,0.9947058541075549,0
187,101.93611111111112,0.5277777777777857,0.5611111111111029,0.5500000000000043,0.9595959595959666,0.0248606091958026,0.9517369610711797,36.111111111111114,0.8666666666458669,1.0202020202019975,1.0984098288042976e-13,0.996098919096702,0
188,102.49722222222222,0.5611111111111029,0.5250000000000057,0.5500000000000043,1.0202020202019975,0.025856879543620214,0.9898771090365543,38.888888888888886,0.9333333333109334,0.9545454545454575,6.714828617183227e-14,0.9983312345284048,0
189,103.02222222222223,0.5250000000000057,0.5416666666666572,0.5500000000000043,0.9545454545454575,0.02448695533937424,0.9374323966492549,36.111111111111114,0.8666666666458669,0.98484848484846,4.5280897358491307e-14,0.9955100747845176,0
190,103.56388888888888,0.5416666666666572,0.5388888888888914,0.5444444444444443,0.9948979591836563,0.026173183712508548,1.001986159386083,38.888888888888886,0.9333333333109334,0.9897959183673518,3.7281329824494225e-13,0.9993334084896991,0
191,104.10277777777777,0.5388888888888914,0.5527777777777771,0.5402777777777743,0.9974293059126075,0.023644899876823264,0.905196046338219,36.111111111111114,0.8666666666458669,1.0231362467866378,5.788795532740655e-15,0.9976783975646724,0
192,104.65555555555555,0.5527777777777771,0.5444444444444514,0.5402777777777743,1.0231362467866378,0.024649885774538468,0.9436698510900491,38.888888888888886,0.9333333333109334,1.00771208226223,3.0293943623169867e-14,0.9987573010474622,0
193,105.2,0.5444444444444514,0.5472222222222172,0.5430555555555543,1.0025575447570483,0.025656171089280366,0.9821934013329252,41.666666666666664,0.9999999999760001,1.0076726342710929,1.1502002692301283e-12,0.9966882437077947,0
194,105.74722222222222,0.5472222222222172,0.5527777777777771,0.5458333333333343,1.0025445292620756,0.025844058234799558,0.9893862717687376,38.888888888888886,0.9333333333109334,1.0127226463104297,2.35964703722627e-13,0.9993767847909218,0
195,106.3,0.5527777777777771,0.5499999999999972,0.5458333333333343,1.0127226463104297,0.02557845501931587,0.9792182024682532,36.111111111111114,0.8666666666458669,1.0076335877862526,3.565880501033708e-13,0.9930815558165718,0
196,106.85,0.5499999999999972,0.5416666666666714,0.5458333333333343,1.0076335877862526,0.02466608899927397,0.9442901580080277,36.111111111111114,0.8666666666458669,0.9923664122137474,1.7071525535436796e-14,0.9966352672210712,0
197,107.39166666666667,0.5416666666666714,0.5416666666666714,0.5458333333333343,0.9923664122137474,0.026109497285934227,0.9995480563769434,41.666666666666664,0.9999999999760001,0.9923664122137474,8.138596133827614e-13,0.9992363337137794,0
198,107.93333333333334,0.5416666666666714,0.5361111111111114,0.5430555555555614,0.9974424552429647,0.026243159737708913,1.0046650466590175,41.666666666666664,0.9999999999760001,0.9872122762148238,1.7938967368860692e-12,0.9974848078128005,0
199,108.46944444444445,0.5361111111111114,0.5555555555555571,0.5430555555555614,0.9872122762148238,0.02500357945226771,0.9572102813884729,36.111111111111114,0.8666666666458669,1.023017902813291,3.4649616075660417e-13,0.993208554082012,0
200,109.025,0.5555555555555571,0.5499999999999972,0.5458333333333343,1.0178117048346067,0.02637103447135482,1.0095604661332311,41.666666666666664,0.9999999999760001,1.0076335877862526,1.5351535147256623e-12,0.998242099959229,0
201,109.575,0.5499999999999972,0.5444444444444372,0.5486111111111072,1.0025316455696223,0.02626296556155858,1.0054232716266251,41.666666666666664,0.9999999999760001,0.9924050632911331,9.02179372874734e-13,0.9988814900323087,0
202,110.11944444444444,0.5444444444444372,0.5555555555555571,0.5458333333333343,0.9974554707378984,0.02536583369672489,0.9710784352635204,38.888888888888886,0.9333333333109334,1.0178117048346067,1.2508539397413504e-13,0.9993910933154706,0
203,110.675,0.5555555555555571,0.5361111111111114,0.5486111111111072,1.0126582278481113,0.027691100093804318,1.0600964459247777,41.666666666666664,0.9999999999760001,0.9772151898734254,2.1585856366246325e-11,0.9955277721174041,0
204,111.21111111111111,0.5361111111111114,0.5388888888888914,0.5472222222222172,0.9796954314720908,0.0239936836760311,0.9185485121010039,36.111111111111114,0.8666666666458669,0.9847715736040746,1.4230912455392986e-14,0.9951937407659704,0
205,111.75,0.5388888888888914,0.5305555555555515,0.5430555555555543,0.9923273657289072,0.026030744658891984,0.9965331750702452,38.888888888888886,0.9333333333109334,0.9769820971866955,2.7821365003455334e-13,0.9992695526793287,0
206,112.28055555555555,0.5305555555555515,0.5555555555555571,0.5416666666666714,0.9794871794871634,0.025963873486467563,0.9939731506587263,38.888888888888886,0.9333333333109334,1.0256410256410196,1.4157368853628949e-12,0.997881002111216,0
207,112.83611111111111,0.5555555555555571,0.5277777777777857,0.5430555555555543,1.0230179028133046,0.025422910694017514,0.9732635099542695,41.666666666666664,0.9999999999760001,0.9718670076726511,1.9205723979492245e-13,0.9981304457083133,0
208,113.3638888888889,0.5277777777777857,0.5416666666666572,0.5416666666666643,0.9743589743589932,0.025335296746606693,0.9699093913403819,38.888888888888886,0.9333333333109334,0.9999999999999869,3.9464449503451293e-13,0.9975412257724467,0
209,113.90555555555555,0.5416666666666572,0.5555555555555571,0.5430555555555472,0.9974424552429647,0.026069759994639913,0.9980267964367794,38.888888888888886,0.9333333333109334,1.023017902813318,8.820337580976723e-13,0.9981284243570612,0
210,114.46111111111111,0.5555555555555571,0.5472222222222314,0.5430555555555472,1.023017902813318,0.026766688613594956,1.0247072659563998,41.666666666666664,0.9999999999760001,1.0076726342711322,4.507199301284626e-12,0.9971224124214779,0
211,115.00833333333334,0.5472222222222314,0.5333333333333314,0.5430555555555472,1.0076726342711322,0.025350315284545406,0.9704843449766724,38.888888888888886,0.9333333333109334,0.982097186700779,3.814032423221647e-13,0.9945771243575656,0
212,115.54166666666667,0.5333333333333314,0.5444444444444372,0.5402777777777743,0.9871465295629849,0.025237873642198656,0.9661797494560197,38.888888888888886,0.9333333333109334,1.0077120822622039,1.746507669389552e-13,0.999036404290822,0
213,116.08611111111111,0.5444444444444372,0.5277777777777857,0.5402777777777743,1.0077120822622039,0.02464566087119359,0.9435081094111303,36.111111111111114,0.8666666666458669,0.9768637532133885,1.1758980291223797e-13,0.9916338145976447,0
214,116.6138888888889,0.5277777777777857,0.5444444444444372,0.5402777777777743,0.9768637532133885,0.025642851685771902,0.9816834955410524,38.888888888888886,0.9333333333109334,1.0077120822622039,5.278620964811742e-13,0.9985943584230685,0
215,117.15833333333333,0.5444444444444372,0.5638888888888971,0.5430555555555472,1.0025575447570354,0.0267242720747785,1.0230834365709498,41.666666666666664,0.9999999999760001,1.03836317135553,1.3157897514604056e-11,0.9960829453056307,0
216,117.72222222222223,0.5638888888888971,0.5611111111111029,0.5444444444444372,1.0357142857143147,0.02585676418659289,0.9898726928315548,38.888888888888886,0.9333333333109334,1.0306122448979578,2.44610267371298e-13,0.998269705256753,0
217,118.28333333333333,0.5611111111111029,0.5416666666666714,0.5444444444444372,1.0306122448979578,0.027101582648208902,1.0375279908338157,41.666666666666664,0.9999999999760001,0.9948979591836954,4.514150338252865e-12,0.9976593068890456,0
218,118.825,0.5416666666666714,0.5361111111111114,0.5444444444444372,0.9948979591836954,0.026422379775587382,1.0115261148199022,41.666666666666664,0.9999999999760001,0.9846938775510341,1.4386433667620824e-12,0.9987953402153994,0
219,119.36111111111111,0.5361111111111114,0.5416666666666572,0.5444444444444372,0.9846938775510341,0.045988669624207834,1.7605810190379365,72.22222222222223,1.7333333332917338,0.9948979591836693,0.8604152202606201,0.9393749127597966,1
220,119.90277777777777,0.5416666666666572,0.5472222222222314,0.5430555555555543,0.9974424552429516,0.025710044077119385,0.9842558171541107,36.111111111111114,0.8666666666458669,1.0076726342711189,6.371703295190989e-13,0.9935613334656372,0
221,120.45,0.5472222222222314,0.5499999999999972,0.5430555555555543,1.0076726342711189,0.0462137781754766,1.7691988339437694,75.0,1.7999999999568002,1.0127877237851635,0.7929447293281555,0.9386188377594267,1
222,121.0,0.5499999999999972,0.50555555555556,0.5444444444444372,1.0102040816326614,0.02629636834686871,1.006702028117747,41.666666666666664,0.9999999999760001,0.928571428571449,1.0361960855326258e-12,0.9962362171020377,0
223,121.50555555555556,0.50555555555556,0.5861111111111086,0.5430555555555543,0.9309462915601127,0.05228954820326413,2.001797112484352,91.66666666666667,2.1999999999472006,1.0792838874680286,0.9989271759986877,0.8645866762281826,1
224,122.09166666666667,0.5861111111111086,0.5722222222222229,0.5458333333333343,1.0737913486005024,0.025255594664717423,0.9668581621202569,36.111111111111114,0.8666666666458669,1.0483460559796431,2.790250025659375e-14,0.9959386551495106,0
225,122.66388888888889,0.5722222222222229,0.5444444444444372,0.5486111111111143,1.0430379746835394,0.04791584202100027,1.8343588249612592,77.77777777777777,1.8666666666218668,0.9924050632911203,0.7169727683067322,0.9272074283773672,1
226,123.20833333333333,0.5444444444444372,0.5416666666666714,0.5458333333333343,0.9974554707378984,0.024900796924304254,0.9532754650674123,38.888888888888886,0.9333333333109334,0.9923664122137474,6.273226973692661e-14,0.9979820260980692,0
227,123.75,0.5416666666666714,0.5472222222222172,0.5430555555555543,0.9974424552429778,0.03748792254216951,1.4351475137294734,58.333333333333336,1.3999999999664003,1.0076726342710929,0.08871503174304962,0.9731711195841526,0
228,124.29722222222222,0.5472222222222172,0.5333333333333314,0.5458333333333272,1.0025445292620885,0.02477327865514704,0.9483936920982594,38.888888888888886,0.9333333333109334,0.9770992366412289,3.6036481416111543e-14,0.9978831658282801,0
229,124.83055555555555,0.5333333333333314,0.5444444444444514,0.5458333333333272,0.9770992366412289,0.029094997756484973,1.1138417618424667,44.44444444444444,1.0666666666410667,0.9974554707379375,1.3469692916601161e-08,0.9888921191401017,0
230,125.375,0.5444444444444514,0.5499999999999972,0.5458333333333343,0.9974554707379245,0.025620562758664586,0.9808302101053022,38.888888888888886,0.9333333333109334,1.0076335877862526,2.595502751525508e-13,0.998183567971088,0
231,125.925,0.5499999999999972,0.5472222222222314,0.5458333333333343,1.0076335877862526,0.02761950873804988,1.057355719065349,41.666666666666664,0.9999999999760001,1.0025445292621016,1.8864290338149736e-11,0.9970615538092295,0
232,126.47222222222223,0.5472222222222314,0.5499999999999972,0.5458333333333343,1.0025445292621016,0.025266292866787575,0.9672677206410067,38.888888888888886,0.9333333333109334,1.0076335877862526,1.402753645662544e-13,0.9978653728704628,0
233,127.02222222222223,0.5499999999999972,0.5361111111111114,0.5472222222222243,1.0050761421319707,0.030600553674486546,1.1714788536303653,44.44444444444444,1.0666666666410667,0.9796954314720782,1.8606270657528512e-07,0.9874786663511144,0
234,127.55833333333334,0.5361111111111114,0.5583333333333371,0.5458333333333343,0.9821882951653933,0.024213093487672775,0.9269481625567257,36.111111111111114,0.8666666666458669,1.0229007633587839,7.928000026217671e-14,0.9933313707392426,0
235,128.11666666666667,0.5583333333333371,0.5111111111110915,0.5458333333333343,1.0229007633587839,0.02735427896756917,1.0472019463337647,41.666666666666664,0.9999999999760001,0.9363867684477997,4.521837331655787e-12,0.9969663171695564,0
236,128.62777777777777,0.5111111111110915,0.5583333333333371,0.5458333333333343,0.9363867684477997,0.026826096470323503,1.0269815727757245,41.666666666666664,0.9999999999760001,1.0229007633587839,6.204942115672907e-11,0.9937680768527426,0
237,129.1861111111111,0.5583333333333371,0.5388888888888914,0.5472222222222243,1.020304568527922,0.027413768529795705,1.0494793810789476,41.666666666666664,0.9999999999760001,0.9847715736040619,1.2754677522486269e-11,0.9957537599057518,0
238,129.725,0.5388888888888914,0.5611111111111029,0.5458333333333414,0.9872773536895575,0.026303623122412297,1.0069797621818934,38.888888888888886,0.9333333333109334,1.0279898218829215,1.7618223503365615e-12,0.9977976156959475,0
239,130.2861111111111,0.5611111111111029,0.5500000000000114,0.5486111111111143,1.0227848101265615,0.027165058083955505,1.0399580164958715,44.44444444444444,1.0666666666410667,1.0025316455696351,3.427694586499719e-11,0.9938041345238428,0
240,130.8361111111111,0.5500000000000114,0.5416666666666572,0.5499999999999972,1.0000000000000258,0.027160926029059736,1.0397998293276287,41.666666666666664,0.9999999999760001,0.9848484848484728,8.092550067562154e-12,0.9963836285488006,0
241,131.37777777777777,0.5416666666666572,0.5388888888888914,0.5486111111111143,0.9873417721518758,0.029713247139758606,1.1375101596917168,44.44444444444444,1.0666666666410667,0.9822784810126571,8.801936957070211e-09,0.9915793093962229,0
242,131.91666666666666,0.5388888888888914,0.5361111111111256,0.5458333333333272,0.9872773536895832,0.027102664116009968,1.0375693925899183,36.111111111111114,0.8666666666458669,0.982188295165432,4.139179016898753e-12,0.9939224108898099,0
243,132.45277777777778,0.5361111111111256,0.5361111111110972,0.5402777777777743,0.9922879177378224,0.034805931273951464,1.3324730298047494,55.55555555555556,1.3333333333013335,0.9922879177377699,0.006692007649689913,0.9773599815455906,0
244,132.98888888888888,0.5361111111110972,0.5444444444444514,0.5402777777777743,0.9922879177377699,0.025243906766197338,0.9664107151196142,38.888888888888886,0.9333333333109334,1.00771208226223,1.9256746533729413e-13,0.9984822003227641,0
245,133.53333333333333,0.5444444444444514,0.5500000000000114,0.5402777777777743,1.00771208226223,0.0298683562765647,1.1434481919151238,47.22222222222222,1.1333333333061335,1.0179948586118528,8.55177233916038e-07,0.9842152419219292,0
246,134.08333333333334,0.5500000000000114,0.5527777777777771,0.5430555555555543,1.0127877237851894,0.027192835212067657,1.041021406346399,44.44444444444444,1.0666666666410667,1.017902813299234,1.4383038163257034e-11,0.9979227494247722,0
247,134.63611111111112,0.5527777777777771,0.5472222222222172,0.5430555555555543,1.017902813299234,0.03410825301022027,1.3057638616866545,52.77777777777778,1.266666666636267,1.0076726342710929,0.0020774316508322954,0.9810781053517574,0
248,135.18333333333334,0.5472222222222172,0.5388888888888914,0.5458333333333343,1.0025445292620756,0.025946006891721083,0.9932891650630887,38.888888888888886,0.9333333333109334,0.9872773536895704,1.8872476823493523e-13,0.9992910014806689,0
249,135.72222222222223,0.5388888888888914,0.5333333333333314,0.5430555555555543,0.9923273657289072,0.028783513399317954,1.101917228007576,44.44444444444444,1.0666666666410667,0.9820971867007661,7.77270603435909e-09,0.9884778240763588,0
250,136.25555555555556,0.5333333333333314,0.5305555555555372,0.5402777777777743,0.9871465295629849,0.025688777347044996,0.9834416644157966,38.888888888888886,0.9333333333109334,0.9820051413881472,1.9247931970067106e-13,0.9997130893763336,0
251,136.7861111111111,0.5305555555555372,0.5583333333333371,0.5388888888888914,0.9845360824741882,0.03716294082984594,1.4227062615922264,58.333333333333336,1.3999999999664003,1.0360824742268062,0.18077132105827332,0.9711338346970118,0
252,137.34444444444443,0.5583333333333371,0.5222222222222399,0.5416666666666714,1.0307692307692287,0.02523665204078839,0.9661329829747686,41.666666666666664,0.9999999999760001,0.9641025641025883,9.458741027836698e-14,0.9985989828426662,0
253,137.86666666666667,0.5222222222222399,0.5527777777777771,0.5416666666666714,0.9641025641025883,0.045053793755032476,1.7247912315995033,72.22222222222223,1.7333333332917338,1.0205128205128104,0.8946488499641418,0.9434374248374788,1
254,138.41944444444445,0.5527777777777771,0.5166666666666515,0.5458333333333343,1.0127226463104297,0.0246925225610921,0.9453021122041994,38.888888888888886,0.9333333333109334,0.9465648854961538,1.3239340958986264e-14,0.998161879945693,0
255,138.9361111111111,0.5166666666666515,0.5972222222222285,0.5430555555555543,0.9514066496163426,0.04918096942481919,1.882791608775816,97.22222222222223,2.333333333277334,1.099744245524311,0.9976932406425476,0.8439864728537076,1
256,139.53333333333333,0.5972222222222285,0.5333333333333314,0.5430555555555543,1.099744245524311,0.025310158845838163,0.9689470388454483,38.888888888888886,0.9333333333109334,0.9820971867007661,7.948192952867035e-15,0.998669422084679,0
257,140.06666666666666,0.5333333333333314,0.5388888888888914,0.5361111111111114,0.9948186528497368,0.04698799862703236,1.79883826127877,75.0,1.7999999999568002,1.005181347150263,0.8893324732780457,0.9309071533734841,1
258,140.60555555555555,0.5388888888888914,0.5444444444444514,0.5361111111111114,1.005181347150263,0.025343305458267833,0.970215988288125,38.888888888888886,0.9333333333109334,1.0155440414507895,2.4786450019201323e-13,0.9985042112504487,0
259,141.15,0.5444444444444514,0.5444444444444514,0.5361111111111114,1.0155440414507895,0.03618170982860737,1.385141863878863,55.55555555555556,1.3333333333013335,1.0155440414507895,0.04313120245933533,0.9751152505025178,0
260,141.69444444444446,0.5444444444444514,0.5527777777777771,0.5416666666666714,1.005128205128209,0.02576801945374331,0.9864752844378942,38.888888888888886,0.9333333333109334,1.0205128205128104,2.7169420684612644e-13,0.9995182630796169,0
261,142.24722222222223,0.5527777777777771,0.5555555555555429,0.5444444444444514,1.0153061224489655,0.03608951940475297,1.3816125443377365,55.55555555555556,1.3333333333013335,1.02040816326527,0.04311101883649826,0.9734722613726714,0
262,142.80277777777778,0.5555555555555429,0.5416666666666572,0.5444444444444514,1.02040816326527,0.025680470211513318,0.9831236429279137,38.888888888888886,0.9333333333109334,0.9948979591836433,2.045881774539668e-13,0.9973333404033826,0
263,143.34444444444443,0.5416666666666572,0.5444444444444514,0.5444444444444514,0.9948979591836433,0.027275889661187734,1.044200974006484,41.666666666666664,0.9999999999760001,1.0,1.1378483225077396e-11,0.9974560474771034,0
264,143.88888888888889,0.5444444444444514,0.5388888888888914,0.5444444444444514,1.0,0.02530110815939573,0.9686005520501133,38.888888888888886,0.9333333333109334,0.9897959183673389,1.0379837180746199e-13,0.9984465625034062,0
265,144.42777777777778,0.5388888888888914,0.5416666666666572,0.5444444444444514,0.9897959183673389,0.026323218761818517,1.00772994067317,41.666666666666664,0.9999999999760001,0.9948979591836433,2.275414665714459e-12,0.9976610239526751,0
266,144.96944444444443,0.5416666666666572,0.5416666666666856,0.5430555555555543,0.9974424552429516,0.025472479595532442,0.9751611527400874,36.111111111111114,0.8666666666458669,0.997442455243004,1.787781755318088e-13,0.9954166595694882,0
267,145.51111111111112,0.5416666666666856,0.5305555555555372,0.5430555555555685,0.9974424552429778,0.025695206896234384,0.9836878063972087,38.888888888888886,0.9333333333109334,0.9769820971866437,2.3823214993605457e-13,0.9978269521933717,0
268,146.04166666666666,0.5305555555555372,0.5611111111111313,0.5430555555555685,0.9769820971866437,0.0243981342908265,0.9340320666670655,36.111111111111114,0.8666666666458669,1.033248081841445,1.1868490131655696e-13,0.9943750587447358,0
269,146.6027777777778,0.5611111111111313,0.544444444444423,0.5430555555555685,1.033248081841445,0.02446720885530508,0.9366764433823095,36.111111111111114,0.8666666666458669,1.00255754475697,3.3253876540427496e-14,0.9931588462637433,0
270,147.1472222222222,0.544444444444423,0.5527777777777771,0.5430555555555543,1.002557544756996,0.0262622778078359,1.0053969423990172,41.666666666666664,0.9999999999760001,1.017902813299234,2.4580864687456794e-12,0.9978191999351383,0
271,147.7,0.5527777777777771,0.5277777777777999,0.5430555555555543,1.017902813299234,0.030901012886931176,1.1829813126218438,47.22222222222222,1.1333333333061335,0.9718670076726772,3.610835790368583e-07,0.9885830116242924,0
272,148.2277777777778,0.5277777777777999,0.549999999999983,0.5416666666666714,0.9743589743590066,0.026180995644871786,1.0022852230457433,38.888888888888886,0.9333333333109334,1.015384615384575,2.2984849700619092e-12,0.9974168556702219,0
273,148.77777777777777,0.549999999999983,0.5277777777777715,0.5430555555555543,1.0127877237851373,0.03604005728209835,1.3797189893595512,55.55555555555556,1.3333333333013335,0.9718670076726249,0.020239518955349922,0.9759759239712756,0
274,149.30555555555554,0.5277777777777715,0.5277777777777999,0.5416666666666714,0.9743589743589541,0.02574977854476605,0.9857769689967696,38.888888888888886,0.9333333333109334,0.9743589743590066,4.55115003843154e-13,0.9978789436828692,0
275,149.83333333333334,0.5277777777777999,0.5583333333333371,0.5416666666666714,0.9743589743590066,0.053570752413581973,2.0508453635563884,86.11111111111111,2.066666666617067,1.0307692307692287,0.9890164136886597,0.8947710746808553,1
276,150.39166666666668,0.5583333333333371,0.5277777777777715,0.5430555555555543,1.0281329923273752,0.02649068368700853,1.0141409886781105,41.666666666666664,0.9999999999760001,0.9718670076726249,1.0552597207516556e-12,0.9982184838628554,0
277,150.91944444444445,0.5277777777777715,0.5666666666666629,0.5374999999999801,0.9819121447028669,0.05309708713759044,2.0327120689622546,91.66666666666667,2.1999999999472006,1.054263565891505,0.9957054257392883,0.8575680641679264,1
278,151.48611111111111,0.5666666666666629,0.5138888888888857,0.547222222222203,1.0355329949238874,0.025952963750915894,0.9935554940165154,41.666666666666664,0.9999999999760001,0.9390862944162709,2.668083852810921e-13,0.9966409328988715,0
279,152.0,0.5138888888888857,0.5638888888888971,0.5361111111111114,0.958549222797921,0.04827592693418303,1.8481439304790277,94.44444444444444,2.266666666612267,1.0518134715026053,0.9905517101287842,0.8598485803715028,1
280,152.5638888888889,0.5638888888888971,0.5277777777777715,0.5388888888888914,1.0463917525773299,0.026717634291595356,1.0228293227821357,41.666666666666664,0.9999999999760001,0.9793814432989527,2.0510951877911188e-12,0.9973913898803302,0
281,153.09166666666667,0.5277777777777715,0.5472222222222172,0.5277777777777999,0.9999999999999462,0.02985920823807636,1.143097978198232,44.44444444444444,1.0666666666410667,1.036842105263105,6.185625238686043e-07,0.9850178851122477,0
282,153.63888888888889,0.5472222222222172,0.5416666666666572,0.5375000000000085,1.018087855297132,0.027756533363667034,1.0626014232132106,41.666666666666664,0.9999999999760001,1.0077519379844626,4.842129475157719e-11,0.9959192484795076,0
283,154.18055555555554,0.5416666666666572,0.5444444444444514,0.5347222222222285,1.0129870129869833,0.026722897677017545,1.0230308205977043,38.888888888888886,0.9333333333109334,1.0181818181818192,2.08997424401558e-12,0.9990759678987846,0
284,154.725,0.5444444444444514,0.5361111111111256,0.5430555555555543,1.0025575447570483,0.025817595048238627,0.9883731834506118,38.888888888888886,0.9333333333109334,0.9872122762148628,1.6653409066254982e-13,0.9995094804906531,0
285,155.26111111111112,0.5361111111111256,0.5666666666666629,0.5430555555555543,0.9872122762148628,0.028057559794277535,1.0741255969780157,44.44444444444444,1.0666666666410667,1.0434782608695607,7.656664746669151e-10,0.9930189203176978,0
286,155.82777777777778,0.5666666666666629,0.5333333333333314,0.5430555555555543,1.0434782608695607,0.025156011260072556,0.9630458176131952,38.888888888888886,0.9333333333109334,0.9820971867007661,2.338225811159434e-14,0.9989576717094648,0
287,156.36111111111111,0.5333333333333314,0.5388888888888914,0.5430555555555543,0.9820971867007661,0.029376028654622834,1.1246004480377347,47.22222222222222,1.1333333333061335,0.9923273657289072,2.5283291904543148e-08,0.9899853721894788,0
288,156.9,0.5388888888888914,0.5333333333333314,0.5402777777777743,0.9974293059126075,0.024082963046624332,0.9219663879939686,38.888888888888886,0.9333333333109334,0.9871465295629849,1.6843184087581876e-14,0.9984188863980703,0
289,157.43333333333334,0.5333333333333314,0.5388888888888914,0.5402777777777743,0.9871465295629849,0.03326894805629204,1.2736328089046292,50.0,1.1999999999712,0.9974293059126075,0.00024228525580838323,0.9858364489463218,0
290,157.97222222222223,0.5388888888888914,0.5527777777777771,0.5388888888888914,1.0,0.025184165652486126,0.9641236502465572,38.888888888888886,0.9333333333109334,1.0257731958762826,1.7627491534586565e-13,0.9989859201520068,0
291,158.525,0.5527777777777771,0.5527777777777771,0.5402777777777743,1.0231362467866378,0.04051398292054661,1.5509939713062562,69.44444444444444,1.666666666626667,1.0231362467866378,0.5526195168495178,0.958480296511709,1
292,159.07777777777778,0.5527777777777771,0.49444444444444,0.5402777777777743,1.0231362467866378,0.024584517713876052,0.9411673702008653,38.888888888888886,0.9333333333109334,0.915167095115679,5.8126052053714995e-15,0.9987418241408771,0
293,159.57222222222222,0.49444444444444,0.5916666666666686,0.5388888888888914,0.9175257731958638,0.0471823813844459,1.8062798027699025,97.22222222222223,2.333333333277334,1.0979381443298952,0.9977980852127075,0.8585853414002597,1
294,160.1638888888889,0.5916666666666686,0.5250000000000057,0.5388888888888914,1.0979381443298952,0.024607473174476115,0.9420461724916467,38.888888888888886,0.9333333333109334,0.9742268041237173,4.538740497534496e-15,0.9975681946187411,0
295,160.6888888888889,0.5250000000000057,0.5333333333333314,0.5388888888888914,0.9742268041237173,0.03561281614028386,1.3633629466434394,55.55555555555556,1.3333333333013335,0.9896907216494764,0.01086355373263359,0.9783604634336708,0
296,161.22222222222223,0.5333333333333314,0.549999999999983,0.5361111111111114,0.9948186528497368,0.024511003978439635,0.9383530490146789,36.111111111111114,0.8666666666458669,1.025906735751263,7.842394133183647e-14,0.995702510610136,0
297,161.7722222222222,0.549999999999983,0.5222222222222399,0.5388888888888914,1.0206185567009944,0.028073502181443187,1.074735918269572,44.44444444444444,1.0666666666410667,0.9690721649484819,3.2144939487999125e-10,0.9927036818043696,0
298,162.29444444444445,0.5222222222222399,0.549999999999983,0.5361111111111114,0.9740932642487371,0.0251089684196963,0.961244879849071,38.888888888888886,0.9333333333109334,1.025906735751263,3.13621876949291e-13,0.9992147962779278,0
299,162.84444444444443,0.549999999999983,0.5500000000000114,0.5444444444444372,1.0102040816326352,0.026868535750594526,1.0286062727706873,41.666666666666664,0.9999999999760001,1.0102040816326874,3.283893643124536e-11,0.9923090949229041,0
300,163.39444444444445,0.5500000000000114,0.5638888888888971,0.549999999999983,1.0000000000000517,0.0254367914220639,0.9737949048941229,38.888888888888886,0.9333333333109334,1.025252525252572,1.8143531111108196e-13,0.9982080903991815,0
301,163.95833333333334,0.5638888888888971,0.5194444444444457,0.549999999999983,1.025252525252572,0.027354091248635835,1.047194759902984,41.666666666666664,0.9999999999760001,0.9444444444444761,9.485307504719653e-12,0.9942487029688634,0
302,164.4777777777778,0.5194444444444457,0.544444444444423,0.5416666666666572,0.9589743589743781,0.02510705108507976,0.9611714786622002,38.888888888888886,0.9333333333109334,1.0051282051281831,2.953406562280353e-13,0.9984433504545488,0
303,165.0222222222222,0.544444444444423,0.5388888888888914,0.547222222222203,0.9949238578680161,0.02836933171195912,1.0860611394719506,44.44444444444444,1.0666666666410667,0.9847715736041002,3.158882266873775e-09,0.9886564330106056,0
304,165.5611111111111,0.5388888888888914,0.5388888888888914,0.5416666666666572,0.994871794871817,0.025354601700095167,0.9706484415230235,38.888888888888886,0.9333333333109334,0.994871794871817,3.6897836674064377e-13,0.9963074046561325,0
305,166.1,0.5388888888888914,0.5527777777777771,0.5416666666666572,0.994871794871817,0.03434384742898125,1.3147831063234579,52.77777777777778,1.266666666636267,1.020512820512837,0.003478027181699872,0.9804550538447583,0
306,166.65277777777777,0.5527777777777771,0.5277777777777715,0.547222222222203,1.0101522842639938,0.0256199358841682,0.9808062115128517,38.888888888888886,0.9333333333109334,0.9644670050761646,5.79218883143065e-14,0.9992039139227413,0
307,167.18055555555554,0.5277777777777715,0.586111111111137,0.5416666666666572,0.9743589743589798,0.04999070951520853,1.9137908319571517,100.0,2.3999999999424,1.0820512820513488,0.9948863387107849,0.84093965346502,1
308,167.76666666666668,0.586111111111137,0.5277777777777715,0.547222222222203,1.0710659898478008,0.025297174905152372,0.9684499755533263,38.888888888888886,0.9333333333109334,0.9644670050761646,6.552687114024262e-15,0.9996481113374464,0
309,168.29444444444445,0.5277777777777715,0.549999999999983,0.5416666666666572,0.9743589743589798,0.05329167958226844,2.04016163789625,94.44444444444444,2.266666666612267,1.0153846153846016,0.9921848177909851,0.8581282918465158,1
310,168.84444444444443,0.549999999999983,0.5500000000000114,0.5416666666666572,1.0153846153846016,0.025412207290479917,0.9728537523061056,41.666666666666664,0.9999999999760001,1.0153846153846542,3.694487749582309e-13,0.9987456064151248,0
311,169.39444444444445,0.5500000000000114,0.5388888888888914,0.5416666666666572,1.0153846153846542,0.04819195072610524,1.8449290751853074,75.0,1.7999999999568002,0.994871794871817,0.8732413649559021,0.9294344075085764,1
312,169.93333333333334,0.5388888888888914,0.5416666666666572,0.5416666666666572,0.994871794871817,0.02653710469247029,1.0159181207797447,41.666666666666664,0.9999999999760001,1.0,2.6744027999126008e-12,0.9985405140475321,0
313,170.475,0.5416666666666572,0.5500000000000114,0.5402777777777743,1.0025706940873924,0.025360557785018285,0.9708764579050826,38.888888888888886,0.9333333333109334,1.0179948586118528,1.8790942109617181e-13,0.9988948544157077,0
314,171.025,0.5500000000000114,0.549999999999983,0.5458333333333201,1.007633587786305,0.02539724509820027,0.9722809557467358,38.888888888888886,0.9333333333109334,1.0076335877862528,1.8561466654052478e-13,0.9974056925679313,0
315,171.575,0.549999999999983,0.5527777777777771,0.549999999999983,1.0,0.02607277057092596,0.9981420501179337,38.888888888888886,0.9333333333109334,1.0050505050505352,2.433231567622318e-13,0.9994548966575206,0
316,172.12777777777777,0.5527777777777771,0.5333333333333314,0.549999999999983,1.0050505050505352,0.02692112640567418,1.0306195971366365,41.666666666666664,0.9999999999760001,0.9696969696969964,1.85619011480731e-12,0.9986225122313171,0
317,172.6611111111111,0.5333333333333314,0.5472222222222456,0.549999999999983,0.9696969696969964,0.025846897633326583,0.9894949722637294,38.888888888888886,0.9333333333109334,0.9949494949495683,4.316954779759463e-13,0.998307838150242,0
318,173.20833333333334,0.5472222222222456,0.5361111111110972,0.5486111111111143,0.9974683544304166,0.02507507350241859,0.9599472831042939,38.888888888888886,0.9333333333109334,0.9772151898733867,6.586886662192717e-14,0.99749542068302,0
319,173.74444444444444,0.5361111111110972,0.5388888888888914,0.5486111111111143,0.9772151898733867,0.025388830032847084,0.9719588023890534,38.888888888888886,0.9333333333109334,0.9822784810126571,1.4563311223191738e-13,0.9983038874526586,0
320,174.28333333333333,0.5388888888888914,0.5472222222222172,0.5444444444444514,0.9897959183673389,0.026342067609923036,1.0084515298053347,41.666666666666664,0.9999999999760001,1.0051020408163045,1.760646533080501e-12,0.9989298390354301,0
321,174.83055555555555,0.5472222222222172,0.5638888888888971,0.5444444444444372,1.0051020408163307,0.043548209522054945,1.667153055831363,69.44444444444444,1.666666666626667,1.0357142857143147,0.8008615374565125,0.9513397406259907,1
322,175.39444444444445,0.5638888888888971,0.49166666666667425,0.5472222222222314,1.0304568527918758,0.024161846275229812,0.9249862691111673,38.888888888888886,0.9333333333109334,0.8984771573604049,1.8106832731042046e-15,0.9975860007034619,0
323,175.88611111111112,0.49166666666667425,0.6055555555555543,0.5472222222222314,0.8984771573604049,0.046939045005474626,1.7969641732124704,94.44444444444444,2.266666666612267,1.1065989847715527,0.999024510383606,0.8597345095444355,1
324,176.49166666666667,0.6055555555555543,0.5277777777777715,0.5472222222222314,1.1065989847715527,0.02551248081051127,0.9766925164521855,38.888888888888886,0.9333333333109334,0.9644670050761145,4.102553681565842e-15,0.9993431943681288,0
325,177.01944444444445,0.5277777777777715,0.5388888888888914,0.5430555555555543,0.9718670076726249,0.024981749907985535,0.956374582473251,38.888888888888886,0.9333333333109334,0.9923273657289072,9.908780474734633e-14,0.9991992925465645,0
326,177.55833333333334,0.5388888888888914,0.5472222222222172,0.5388888888888914,1.0,0.02458996816778835,0.941376029546342,38.888888888888886,0.9333333333109334,1.0154639175257592,1.6248933893282108e-13,0.9959953649104121,0
327,178.10555555555555,0.5472222222222172,0.5333333333333314,0.5430555555555543,1.0076726342710929,0.02840541831238398,1.0874426402691855,44.44444444444444,1.0666666666410667,0.9820971867007661,6.3881894218909e-10,0.9928759676651344,0
328,178.63888888888889,0.5333333333333314,0.5361111111111256,0.5388888888888914,0.9896907216494764,0.02402601179317729,0.9197861271460552,36.111111111111114,0.8666666666458669,0.9948453608247646,1.2448626385361955e-14,0.9968865230942485,0
329,179.175,0.5361111111111256,0.5638888888888687,0.5388888888888914,0.9948453608247646,0.027506391902004903,1.0530252751516251,41.666666666666664,0.9999999999760001,1.0463917525772772,1.4801562753241626e-10,0.9941922607283484,0
330,179.73888888888888,0.5638888888888687,0.5555555555555713,0.5430555555555543,1.038363171355464,0.025795044923895852,0.9875098986193859,41.666666666666664,0.9999999999760001,1.0230179028133306,4.3473043090727637e-13,0.9991338957867082,0
331,180.29444444444445,0.5555555555555713,0.5416666666666572,0.5430555555555543,1.0230179028133306,0.039670600059835325,1.5187068043043954,63.888888888888886,1.5333333332965335,0.9974424552429516,0.5009591579437256,0.9665946315123621,1
332,180.8361111111111,0.5416666666666572,0.5416666666666572,0.5402777777777743,1.0025706940873924,0.02436913166070305,0.9329217610088508,38.888888888888886,0.9333333333109334,1.0025706940873924,5.948974629967421e-14,0.9967117846769326,0
333,181.37777777777777,0.5416666666666572,0.5305555555555657,0.5416666666666572,1.0,0.048879671661998164,1.8712570476189943,77.77777777777777,1.8666666666218668,0.9794871794872153,0.8829568028450012,0.9219307934463948,1
334,181.90833333333333,0.5305555555555657,0.5472222222222172,0.5402777777777743,0.9820051413881998,0.024676698691440353,0.9446963281103292,38.888888888888886,0.9333333333109334,1.0128534704370151,7.92296594000555e-14,0.999096087438073,0
335,182.45555555555555,0.5472222222222172,0.5555555555555713,0.5416666666666572,1.0102564102564187,0.0518113775053119,1.9834913371367722,86.11111111111111,2.066666666617067,1.0256410256410726,0.9119975566864014,0.9064235154578453,1
336,183.01111111111112,0.5555555555555713,0.5555555555555429,0.5444444444444372,1.0204081632653488,0.02574189095600682,0.9854750089885991,38.888888888888886,0.9333333333109334,1.0204081632652966,1.5276431649616923e-13,0.9995123336889394,0
337,183.56666666666666,0.5555555555555429,0.5444444444444514,0.5444444444444372,1.0204081632652966,0.02701655055010445,1.0342727129761395,41.666666666666664,0.9999999999760001,1.0000000000000262,4.867257204915765e-12,0.9976779186046112,0
338,184.11111111111111,0.5444444444444514,0.5527777777777771,0.5458333333333343,0.9974554707379245,0.024638785991831808,0.943244918885911,36.111111111111114,0.8666666666458669,1.0127226463104297,9.605128649912975e-14,0.9934010298790672,0
339,184.6638888888889,0.5527777777777771,0.5194444444444457,0.5499999999999972,1.0050505050505092,0.026695731452917613,1.0219908179427004,41.666666666666664,0.9999999999760001,0.9444444444444516,1.6558965570262485e-12,0.9968778099647815,0
340,185.18333333333334,0.5194444444444457,0.5388888888888914,0.5458333333333343,0.9516539440203569,0.024225865592652242,0.9274371161573356,38.888888888888886,0.9333333333109334,0.9872773536895704,4.134519603852388e-14,0.9986322951595975,0
341,185.72222222222223,0.5388888888888914,0.5277777777777715,0.5430555555555543,0.9923273657289072,0.025226350164547343,0.9657385969679831,38.888888888888886,0.9333333333109334,0.9718670076726249,6.787504721684004e-14,0.9991297891730472,0
342,186.25,0.5277777777777715,0.5361111111110972,0.5430555555555543,0.9718670076726249,0.025713390857325248,0.984383941706386,38.888888888888886,0.9333333333109334,0.9872122762148104,3.086153565774047e-13,0.9992723590582674,0
343,186.7861111111111,0.5361111111110972,0.5416666666666856,0.5416666666666714,0.9897435897435555,0.030245727848315092,1.157895081372403,47.22222222222222,1.1333333333061335,1.0000000000000262,1.1771940933158476e-07,0.9901021590742516,0
344,187.32777777777778,0.5416666666666856,0.5472222222222172,0.5430555555555685,0.9974424552429778,0.02663207077723638,1.0195537007531978,41.666666666666664,0.9999999999760001,1.0076726342710665,3.920032267540341e-12,0.9979288162855872,0
345,187.875,0.5472222222222172,0.5500000000000114,0.5430555555555685,1.0076726342710665,0.04905492131568091,1.8779661178397256,77.77777777777777,1.8666666666218668,1.012787723785163,0.8957916498184204,0.9229982213866172,1
346,188.425,0.5500000000000114,0.5472222222222172,0.5430555555555685,1.012787723785163,0.025888589844150958,0.9910910722513768,41.666666666666664,0.9999999999760001,1.0076726342710665,6.448827474629659e-13,0.999034976863434,0
347,188.97222222222223,0.5472222222222172,0.5555555555555429,0.5430555555555685,1.0076726342710665,0.0543635077534502,2.0811943607228183,88.88888888888889,2.1333333332821334,1.0230179028132516,0.9808247685432434,0.8794312498883043,1
348,189.52777777777777,0.5555555555555429,0.5333333333333314,0.5444444444444514,1.02040816326527,0.025090387533219922,0.9605335490731532,38.888888888888886,0.9333333333109334,0.9795918367346779,6.182274608695568e-14,0.9971323375167152,0
349,190.0611111111111,0.5333333333333314,0.5333333333333314,0.5402777777777885,0.9871465295629589,0.032166186658775894,1.2314158715402854,47.22222222222222,1.1333333333061335,0.9871465295629589,1.715992584649939e-05,0.9864932773948487,0
350,190.59444444444443,0.5333333333333314,0.5583333333333371,0.5402777777777885,0.9871465295629589,0.024612379166707866,0.942233988248731,38.888888888888886,0.9333333333109334,1.0334190231362332,1.0947036869655632e-13,0.998577636514669,0
351,191.15277777777777,0.5583333333333371,0.5694444444444571,0.5444444444444514,1.0255102040816266,0.036435735694116664,1.3948667183009384,55.55555555555556,1.3333333333013335,1.0459183673469485,0.0922294482588768,0.9716684025469613,0
352,191.72222222222223,0.5694444444444571,0.5416666666666572,0.5472222222222172,1.0406091370558703,0.027661680548249655,1.0589701795223028,44.44444444444444,1.0666666666410667,0.9898477157360325,5.319073306808697e-11,0.9942116063825512,0
353,192.26388888888889,0.5416666666666572,0.5444444444444514,0.5472222222222172,0.9898477157360325,0.028376194431929985,1.0863238645000586,41.666666666666664,0.9999999999760001,0.9949238578680422,2.180089997416701e-10,0.9940048825981116,0
354,192.80833333333334,0.5444444444444514,0.5333333333333314,0.5472222222222172,0.9949238578680422,0.026718868289788082,1.0228765638485415,41.666666666666664,0.9999999999760001,0.9746192893401071,2.4448167015161948e-12,0.9978653970877565,0
355,193.34166666666667,0.5333333333333314,0.5583333333333371,0.5458333333333343,0.9770992366412162,0.03240533641844587,1.2405712250441583,50.0,1.1999999999712,1.0229007633587839,0.00020931971084792167,0.983300074757556,0
356,193.9,0.5583333333333371,0.5416666666666572,0.5458333333333343,1.0229007633587839,0.02519598847823281,0.9645762626567681,38.888888888888886,0.9333333333109334,0.9923664122137213,9.153171520422457e-14,0.9967488780154659,0
357,194.44166666666666,0.5416666666666572,0.5416666666666572,0.5430555555555543,0.9974424552429516,0.02547361604010356,0.9752046591680282,38.888888888888886,0.9333333333109334,0.9974424552429516,1.2897483374265523e-13,0.9993959593745231,0
358,194.98333333333332,0.5416666666666572,0.5388888888888914,0.5416666666666572,1.0,0.025674652655584284,0.9829009298416351,41.666666666666664,0.9999999999760001,0.994871794871817,6.904752919596746e-13,0.997969777548851,0
359,195.5222222222222,0.5388888888888914,0.5638888888888971,0.5416666666666572,0.994871794871817,0.025353838555701835,0.97061922611965,38.888888888888886,0.9333333333109334,1.0410256410256744,3.3387864955408686e-13,0.9986629255344852,0
360,196.0861111111111,0.5638888888888971,0.5444444444444514,0.5430555555555543,1.0383631713555161,0.025170900454053964,0.9636158195838249,36.111111111111114,0.8666666666458669,1.0025575447570483,5.842307432106508e-14,0.9946026146910351,0
361,196.63055555555556,0.5444444444444514,0.5527777777777771,0.5430555555555543,1.0025575447570483,0.029582397987047048,1.1325008707406856,47.22222222222222,1.1333333333061335,1.017902813299234,4.2985607962009453e-08,0.9897648853636345,0
362,197.18333333333334,0.5527777777777771,0.5333333333333314,0.5430555555555543,1.017902813299234,0.024315076853776638,0.9308523846202739,36.111111111111114,0.8666666666458669,0.9820971867007661,8.889732754178287e-14,0.9899730230146411,0
363,197.71666666666667,0.5333333333333314,0.5361111111110972,0.5430555555555543,0.9820971867007661,0.04632585568156339,1.7734894892614792,72.22222222222223,1.7333333332917338,0.9872122762148104,0.8693323731422424,0.9399301803603693,1
364,198.25277777777777,0.5361111111110972,0.5027777777777942,0.5416666666666572,0.9897435897435815,0.025127825429643313,0.9619667814404804,38.888888888888886,0.9333333333109334,0.9282051282051748,3.016386985565771e-14,0.9992364260242081,0
365,198.75555555555556,0.5027777777777942,0.5888888888888744,0.5416666666666572,0.9282051282051748,0.04919939752389432,1.8834970904023502,94.44444444444444,2.266666666612267,1.0871794871794793,0.9986628293991089,0.8519265148418806,1
366,199.34444444444443,0.5888888888888744,0.5583333333333371,0.5416666666666572,1.0871794871794793,0.02593775188633688,0.9929731392699913,41.666666666666664,0.9999999999760001,1.0307692307692558,3.639625222300741e-13,0.9975607395360464,0
367,199.90277777777777,0.5583333333333371,0.5444444444444514,0.5430555555555543,1.0281329923273752,0.039369586458115356,1.5071831216671083,61.111111111111114,1.466666666631467,1.0025575447570483,0.6348565816879272,0.9659891522662534,1
368,200.44722222222222,0.5444444444444514,0.5583333333333371,0.5444444444444514,1.0,0.02462454606221483,0.9426997726574825,36.111111111111114,0.8666666666458669,1.0255102040816266,6.245671975478942e-14,0.995109421694266,0
369,201.00555555555556,0.5583333333333371,0.5361111111110972,0.5486111111111143,1.0177215189873428,0.032223835997097924,1.2336228571225871,50.0,1.1999999999712,0.9772151898733867,5.3170773753663525e-05,0.9838747635420118,0
370,201.54166666666666,0.5361111111110972,0.5361111111111256,0.5444444444444514,0.9846938775509824,0.02439706354429505,0.9339910753525771,36.111111111111114,0.8666666666458669,0.9846938775510345,2.200161643042646e-14,0.9960423233466122,0
371,202.07777777777778,0.5361111111111256,0.5388888888888914,0.5402777777777885,0.9922879177377963,0.03347683988888071,1.2815915173747687,52.77777777777778,1.266666666636267,0.9974293059125813,0.0017790468409657478,0.9805927339883199,0
372,202.61666666666667,0.5388888888888914,0.5527777777777771,0.5375000000000085,1.0025839793281541,0.02556911095155302,0.9788604841763717,38.888888888888886,0.9333333333109334,1.0284237726098016,4.2466475214802957e-13,0.9986133508237479,0
373,203.16944444444445,0.5527777777777771,0.5388888888888914,0.5416666666666714,1.0205128205128104,0.0374101372741975,1.432169665762325,58.333333333333336,1.3999999999664003,0.9948717948717908,0.1483144760131836,0.9705637521420369,0
374,203.70833333333334,0.5388888888888914,0.5583333333333371,0.5416666666666714,0.9948717948717908,0.03409118421922161,1.3051104183560314,50.0,1.1999999999712,1.0307692307692287,0.00036119556170888245,0.9871676436233006,0
375,204.26666666666668,0.5583333333333371,0.5583333333333087,0.5486111111111143,1.0177215189873428,0.04210622638859439,1.6119497165026002,72.22222222222223,1.7333333332917338,1.017721518987291,0.6325799822807312,0.938874807322247,1
376,204.825,0.5583333333333087,0.5583333333333371,0.5486111111111143,1.017721518987291,0.03355136207541825,1.2844444450238461,47.22222222222222,1.1333333333061335,1.0177215189873428,1.571458597027231e-05,0.9903643807636247,0
377,205.38333333333333,0.5583333333333371,0.5388888888888914,0.5486111111111143,1.0177215189873428,0.04338657906667015,1.6609653684254386,72.22222222222223,1.7333333332917338,0.9822784810126571,0.5891997814178467,0.9444309938950806,1
378,205.92222222222222,0.5388888888888914,0.5500000000000114,0.5458333333333343,0.9872773536895704,0.030549172657730873,1.1695118377636726,44.44444444444444,1.0666666666410667,1.0076335877862785,2.4284160460297244e-08,0.9933801344981048,0
379,206.47222222222223,0.5500000000000114,0.5444444444444514,0.5444444444444514,1.010204081632661,0.03062127304938323,1.172272052008738,47.22222222222222,1.1333333333061335,1.0,5.91734021782031e-07,0.9871415800118299,0
380,207.01666666666668,0.5444444444444514,0.5416666666666572,0.5472222222222314,0.9949238578680164,0.03310722948311253,1.2674417480913398,47.22222222222222,1.1333333333061335,0.9898477157360067,9.819282240641769e-06,0.9904644713009024,0
381,207.55833333333334,0.5416666666666572,0.5611111111111029,0.5472222222222314,0.9898477157360067,0.031535691060901386,1.207278652714966,47.22222222222222,1.1333333333061335,1.0253807106598662,9.986388249672018e-07,0.9906665583130843,0
382,208.11944444444444,0.5611111111111029,0.5527777777777771,0.5513888888888943,1.0176322418135773,0.029920799139202252,1.1454558583533607,41.666666666666664,0.9999999999760001,1.0025188916876466,1.0707799091846937e-09,0.9950771077012341,0
383,208.67222222222222,0.5527777777777771,0.5555555555555713,0.5513888888888943,1.0025188916876466,0.03307099317154031,1.2660545159127334,50.0,1.1999999999712,1.0075566750629912,0.0007225485169328749,0.9815930520816314,0
384,209.2277777777778,0.5555555555555713,0.5277777777777715,0.5541666666666742,1.0025062656641752,0.03066169314143584,1.1738194515625213,44.44444444444444,1.0666666666410667,0.9523809523809279,4.420323662657211e-09,0.9954168101021481,0
385,209.75555555555556,0.5277777777777715,0.5305555555555372,0.5513888888888943,0.9571788413098029,0.034214775777719024,1.3098418653359485,52.77777777777778,1.266666666636267,0.962216624685096,0.005601135082542896,0.9772194960161042,0
386,210.2861111111111,0.5305555555555372,0.5166666666666799,0.5472222222222314,0.9695431472080721,0.029946191820142663,1.1464279645797744,41.666666666666664,0.9999999999760001,0.9441624365482317,1.3794527742305718e-09,0.9949995960081719,0
387,210.80277777777778,0.5166666666666799,0.5861111111111086,0.5430555555555543,0.9514066496163949,0.05045315928863531,1.9314947642519231,97.22222222222223,2.333333333277334,1.0792838874680286,0.9948815107345581,0.8622056724073726,1
388,211.38888888888889,0.5861111111111086,0.5305555555555657,0.5472222222222314,1.0710659898476933,0.02955139895143317,1.131314136830872,44.44444444444444,1.0666666666410667,0.9695431472081241,2.3230409262886553e-10,0.9966995493491433,0
389,211.91944444444445,0.5305555555555657,0.5472222222222172,0.5430555555555543,0.9769820971867217,0.03082644783642314,1.180126744014385,41.666666666666664,0.9999999999760001,1.0076726342710929,1.0407141814994247e-08,0.9954695612656297,0
390,212.46666666666667,0.5472222222222172,0.5527777777777771,0.5444444444444372,1.0051020408163307,0.035502634894673805,1.359144885732782,50.0,1.1999999999712,1.0153061224489919,0.011987132951617241,0.9808156880240927,0
391,213.01944444444445,0.5527777777777771,0.5472222222222172,0.5499999999999972,1.0050505050505092,0.03518342630146902,1.3469246455105182,44.44444444444444,1.0666666666410667,0.9949494949494909,0.0027397728990763426,0.9816026409758645,0
392,213.56666666666666,0.5472222222222172,0.5305555555555657,0.5472222222222172,1.0,0.02733530517263449,1.0464755738708498,38.888888888888886,0.9333333333109334,0.9695431472081493,3.962369061333293e-12,0.996590169173586,0
393,214.09722222222223,0.5305555555555657,0.5527777777777771,0.5388888888888914,0.984536082474241,0.026445149097559194,1.012397791178612,38.888888888888886,0.9333333333109334,1.0257731958762826,2.6941962116139306e-12,0.9985331616327415,0
394,214.65,0.5527777777777771,0.5250000000000057,0.5388888888888914,1.0257731958762826,0.024465337579390806,0.9366048054575125,36.111111111111114,0.8666666666458669,0.9742268041237173,1.3234595033382798e-14,0.9956395928895831,0
395,215.175,0.5250000000000057,0.549999999999983,0.5388888888888914,0.9742268041237173,0.027409689739085405,1.0493232330197875,41.666666666666664,0.9999999999760001,1.0206185567009944,9.397183031722989e-11,0.9945839608764471,0
396,215.725,0.549999999999983,0.5388888888888914,0.5472222222222172,1.0050761421319578,0.026319029515446887,1.0075695640476612,41.666666666666664,0.9999999999760001,0.9847715736040746,8.112373620083879e-13,0.999183511796337,0
397,216.26388888888889,0.5388888888888914,0.5805555555555486,0.5472222222222172,0.9847715736040746,0.05099461945099818,1.952223445733926,100.0,2.3999999999424,1.0609137055837534,0.9920837879180908,0.8413913530101693,1
398,216.84444444444443,0.5805555555555486,0.5416666666666856,0.5472222222222172,1.0609137055837534,0.025287534436515578,0.9680809101675419,38.888888888888886,0.9333333333109334,0.9898477157360843,1.3710921470172412e-14,0.9994639252877278,0
399,217.38611111111112,0.5416666666666856,0.549999999999983,0.5472222222222172,0.9898477157360843,0.051017446919107874,1.953097348097161,86.11111111111111,2.066666666617067,1.0050761421319578,0.909296452999115,0.9073845410490418,1
400,217.9361111111111,0.549999999999983,0.5444444444444514,0.5486111111111001,1.0025316455696094,0.025688655936325893,0.9834370164577385,36.111111111111114,0.8666666666458669,0.992405063291172,2.8694329356170056e-13,0.9936472041865432,0
401,218.48055555555555,0.5444444444444514,0.5361111111111256,0.5458333333333343,0.9974554707379245,0.03476112145505191,1.3307575786454586,52.77777777777778,1.266666666636267,0.9821882951654193,0.007891886867582798,0.9779919552223058,0
402,219.01666666666668,0.5361111111111256,0.5472222222222172,0.5430555555555685,0.987212276214837,0.027063510527487556,1.036070478502099,41.666666666666664,0.9999999999760001,1.0076726342710665,2.1404602049135413e-11,0.9954431589880719,0
403,219.5638888888889,0.5472222222222172,0.5416666666666572,0.5458333333333343,1.0025445292620756,0.029571576578968205,1.1320865955329322,44.44444444444444,1.0666666666410667,0.9923664122137213,4.2677541500779625e-08,0.9873099626345062,0
404,220.10555555555555,0.5416666666666572,0.5500000000000114,0.5430555555555685,0.9974424552429255,0.024736227646790235,0.9469752709396949,36.111111111111114,0.8666666666458669,1.012787723785163,6.290528807486456e-14,0.9954523720110329,0
405,220.65555555555557,0.5500000000000114,0.544444444444423,0.5458333333333343,1.0076335877862785,0.027590257285909938,1.0562358877712998,44.44444444444444,1.0666666666410667,0.9974554707378724,2.3563031734119555e-11,0.9977066877073213,0
406,221.2,0.544444444444423,0.5500000000000114,0.5444444444444372,0.9999999999999739,0.024567725485397283,0.9405245144938259,38.888888888888886,0.9333333333109334,1.0102040816326874,4.532488208537633e-14,0.9981498275180185,0
407,221.75,0.5500000000000114,0.5333333333333314,0.5458333333333343,1.0076335877862785,0.028800083874723964,1.1025515943572584,41.666666666666664,0.9999999999760001,0.9770992366412162,3.50288353878625e-10,0.9935201641329472,0
408,222.28333333333333,0.5333333333333314,0.5444444444444514,0.5444444444444372,0.9795918367347035,0.027067951064476268,1.036240475268706,41.666666666666664,0.9999999999760001,1.0000000000000262,1.7709906457996638e-11,0.9958099876112125,0
409,222.82777777777778,0.5444444444444514,0.5333333333333314,0.5444444444444514,1.0,0.03387797072194712,1.2969479809693547,50.0,1.1999999999712,0.9795918367346779,0.00044169920147396624,0.985542632104835,0
410,223.36111111111111,0.5333333333333314,0.5416666666666572,0.5444444444444372,0.9795918367347035,0.02564318462396483,0.9816962413905795,38.888888888888886,0.9333333333109334,0.9948979591836693,4.940452886202651e-13,0.9973251018718445,0
411,223.90277777777777,0.5416666666666572,0.5472222222222172,0.5430555555555401,0.9974424552429777,0.03001954427552858,1.1492361114930807,47.22222222222222,1.1333333333061335,1.007672634271119,1.3992187177791493e-06,0.983514501901462,0
412,224.45,0.5472222222222172,0.5611111111111313,0.5444444444444372,1.0051020408163307,0.025051506696995306,0.9590450767424523,38.888888888888886,0.9333333333109334,1.03061224489801,9.209120418280856e-14,0.999084985043744,0
413,225.01111111111112,0.5611111111111313,0.549999999999983,0.5444444444444372,1.03061224489801,0.04330988036339332,1.6580291173384332,69.44444444444444,1.666666666626667,1.0102040816326352,0.6942432522773743,0.9513266709778032,1
414,225.5611111111111,0.549999999999983,0.5333333333333314,0.5458333333333343,1.0076335877862266,0.032367193279696636,1.2391109939342528,119.44444444444444,2.866666666597867,0.9770992366412162,0.971327543258667,0.6877647271004516,1
415,226.09444444444443,0.5333333333333314,0.5277777777777999,0.5444444444444372,0.9795918367347035,0.028171629246368523,1.0784925098251257,41.666666666666664,0.9999999999760001,0.9693877551020944,1.0046864729051919e-10,0.9950634374199467,0
416,226.62222222222223,0.5277777777777999,0.544444444444423,0.5430555555555543,0.9718670076726772,0.027991805921473684,1.0716083460696364,44.44444444444444,1.0666666666410667,1.002557544756996,4.634516104218278e-10,0.9932736965199609,0
417,227.16666666666666,0.544444444444423,0.5583333333333371,0.5430555555555401,1.0025575447570223,0.028837255978463736,1.1039746514018896,44.44444444444444,1.0666666666410667,1.028132992327402,2.940265808604181e-09,0.9920976021320365,0
418,227.725,0.5583333333333371,0.5500000000000114,0.5444444444444372,1.0255102040816533,0.026083176452353682,0.998540417747998,41.666666666666664,0.9999999999760001,1.0102040816326874,2.48160281386689e-12,0.9954473333494906,0
419,228.275,0.5500000000000114,0.5638888888888971,0.5458333333333201,1.007633587786305,0.036221583096691955,1.3866683294089677,55.55555555555556,1.3333333333013335,1.033078880407165,0.01882448047399521,0.9766417744340612,0
420,228.8388888888889,0.5638888888888971,0.544444444444423,0.5486111111111001,1.0278481012658585,0.02561467842000717,0.9806049403805094,38.888888888888886,0.9333333333109334,0.9924050632911201,7.61724803241895e-14,0.9983861623838197,0
421,229.38333333333333,0.544444444444423,0.5583333333333371,0.5486111111111001,0.9924050632911201,0.03571382370025685,1.3672298119892066,55.55555555555556,1.3333333333013335,1.0177215189873692,0.020177828148007393,0.9748099933137501,0
422,229.94166666666666,0.5583333333333371,0.5472222222222172,0.5499999999999972,1.0151515151515274,0.025198512280812685,0.9646728812142136,38.888888888888886,0.9333333333109334,0.9949494949494909,7.024836577241081e-14,0.9973616415782043,0
423,230.48888888888888,0.5472222222222172,0.5416666666666856,0.5486111111111001,0.9974683544303906,0.036901594067388355,1.412701141784898,58.333333333333336,1.3999999999664003,0.9873417721519532,0.016184693202376366,0.9764565222382171,0
424,231.03055555555557,0.5416666666666856,0.5222222222222115,0.5458333333333201,0.9923664122137993,0.024946094956742933,0.955009606471436,36.111111111111114,0.8666666666458669,0.9567430025445328,5.435708578128279e-14,0.9941711242542441,0
425,231.55277777777778,0.5222222222222115,0.5555555555555429,0.5458333333333201,0.9567430025445328,0.03536992349867194,1.3540643046522647,55.55555555555556,1.3333333333013335,1.0178117048346071,0.009655513800680637,0.9781744942875401,0
426,232.10833333333332,0.5555555555555429,0.5527777777777771,0.5486111111111143,1.0126582278480725,0.025665149756021164,0.9825371310030655,41.666666666666664,0.9999999999760001,1.007594936708854,4.847770405588814e-13,0.9980860723461558,0
427,232.6611111111111,0.5527777777777771,0.5527777777778056,0.5513888888888943,1.0025188916876466,0.028134138741276418,1.077057263443818,41.666666666666664,0.9999999999760001,1.0025188916876981,7.573942167882208e-11,0.9951864917611035,0
428,233.2138888888889,0.5527777777778056,0.5416666666666572,0.5513888888888943,1.0025188916876981,0.024296543037142616,0.9301428558158352,38.888888888888886,0.9333333333109334,0.9823677581863712,1.1017727698334635e-14,0.998158309603921,0
429,233.75555555555556,0.5416666666666572,0.5527777777777771,0.5499999999999972,0.9848484848484728,0.02872717236534712,1.099760328149142,44.44444444444444,1.0666666666410667,1.0050505050505092,6.314008871299848e-09,0.9889036813219756,0
430,234.30833333333334,0.5527777777777771,0.5222222222222115,0.5499999999999972,1.0050505050505092,0.025993913209684666,0.9951231592792268,38.888888888888886,0.9333333333109334,0.9494949494949348,1.5128954404357298e-13,0.9974928340566935,0
431,234.83055555555555,0.5222222222222115,0.5416666666666856,0.5499999999999972,0.9494949494949348,0.04077934572330288,1.561152836903131,63.888888888888886,1.5333333332965335,0.9848484848485244,0.8201540112495422,0.9615580881846552,1
432,235.37222222222223,0.5416666666666856,0.5527777777777771,0.5444444444444514,0.9948979591836956,0.025449970553161852,0.974299440647126,38.888888888888886,0.9333333333109334,1.0153061224489655,3.8718049491341666e-13,0.9970428887879106,0
433,235.925,0.5527777777777771,0.5277777777777715,0.5472222222222314,1.0101522842639414,0.04044408879594031,1.5483182194280296,63.888888888888886,1.5333333332965335,0.9644670050761145,0.6730650067329407,0.9618732717669021,1
434,236.45277777777778,0.5277777777777715,0.5583333333333371,0.5472222222222314,0.9644670050761145,0.024135330293635765,0.9239711596444855,38.888888888888886,0.9333333333109334,1.0203045685279086,4.329436792795474e-14,0.9985496246751178,0
435,237.01111111111112,0.5583333333333371,0.5555555555555429,0.5527777777777771,1.0100502512562894,0.04731311532350957,1.8112846810049188,75.0,1.7999999999568002,1.005025125628119,0.8210774660110474,0.9318471293859738,1
436,237.56666666666666,0.5555555555555429,0.5500000000000114,0.5527777777777771,1.005025125628119,0.026021416117981137,0.9961760511917517,38.888888888888886,0.9333333333109334,0.994974874371881,1.694818195291034e-13,0.9989348751249738,0
437,238.11666666666667,0.5500000000000114,0.5333333333333314,0.5513888888888943,0.9974811083123535,0.026580110868365998,1.0175645232002124,38.888888888888886,0.9333333333109334,0.9672544080604405,2.999412242014887e-13,0.9994036960940427,0
438,238.65,0.5333333333333314,0.5527777777777771,0.5458333333333485,0.9770992366411908,0.026063476729291067,0.9977862546293917,38.888888888888886,0.9333333333109334,1.0127226463104033,1.531600042105341e-12,0.9969570713893824,0
439,239.20277777777778,0.5527777777777771,0.5361111111110972,0.5513888888888943,1.0025188916876466,0.025465377649184315,0.9748892694253294,38.888888888888886,0.9333333333109334,0.9722921914357336,7.522603959024543e-14,0.997914545492802,0
440,239.73888888888888,0.5361111111110972,0.5472222222222172,0.5458333333333485,0.9821882951653417,0.027124978216436092,1.0384236417340695,41.666666666666664,0.9999999999760001,1.0025445292620494,1.049005066838804e-11,0.997442868718035,0
441,240.2861111111111,0.5472222222222172,0.5666666666666913,0.5486111111111143,0.9974683544303647,0.026192517453178694,1.002726311626385,41.666666666666664,0.9999999999760001,1.0329113924051023,1.8124169699762493e-12,0.99863371551478,0
442,240.8527777777778,0.5666666666666913,0.5555555555555429,0.5513888888888943,1.0277078085642664,0.026154563658825583,1.001273329174738,38.888888888888886,0.9333333333109334,1.0075566750629397,2.2095450740323291e-13,0.9982263254511002,0
443,241.40833333333333,0.5555555555555429,0.5388888888888914,0.5513888888888943,1.0075566750629397,0.02993672092971398,1.146065391144657,44.44444444444444,1.0666666666410667,0.9773299748110782,9.67129665241373e-09,0.9912362015292677,0
444,241.94722222222222,0.5388888888888914,0.5305555555555657,0.5513888888888943,0.9773299748110782,0.026310006840166208,1.0072241496016703,38.888888888888886,0.9333333333109334,0.9622166246851475,4.2996980758810976e-13,0.9982268570779087,0
445,242.4777777777778,0.5305555555555657,0.4166666666666572,0.5486111111111143,0.9670886075949495,0.051945806523812386,1.9886376738391338,91.66666666666667,2.1999999999472006,0.7594936708860544,0.9748170971870422,0.8558256706102105,1
446,242.89444444444445,0.4166666666666572,0.6472222222222115,0.5430555555555543,0.7672634271099588,0.02737525673489014,1.048005036731223,44.44444444444444,1.0666666666410667,1.1918158567774766,2.340444638093686e-07,0.9952234265703908,0
447,243.54166666666666,0.6472222222222115,0.580555555555577,0.5430555555555543,1.1918158567774766,0.028236936465875027,1.0809926615365981,44.44444444444444,1.0666666666410667,1.0690537084399396,2.7893815729429505e-11,0.9946689197868633,0
448,244.12222222222223,0.580555555555577,0.538888888888863,0.5499999999999972,1.0555555555556,0.025741414141475443,0.9854567551312816,36.111111111111114,0.8666666666458669,0.9797979797979378,2.5132770281707968e-14,0.9960972676662945,0
449,244.6611111111111,0.538888888888863,0.5472222222222456,0.5430555555555543,0.9923273657288548,0.02630904365731495,1.007187276140019,38.888888888888886,0.9333333333109334,1.007672634271145,1.1135265886447199e-12,0.9982371390532512,0
450,245.20833333333334,0.5472222222222456,0.5361111111110972,0.5472222222222314,1.000000000000026,0.025680048354321028,0.9831074929985602,38.888888888888886,0.9333333333109334,0.9796954314720394,8.877583591209229e-14,0.9996679857425146,0
451,245.74444444444444,0.5361111111110972,0.5555555555555713,0.5430555555555685,0.9872122762147847,0.024924156330335828,0.9541697315728634,38.888888888888886,0.9333333333109334,1.023017902813304,1.8798755141522655e-13,0.9976087654087832,0
452,246.3,0.5555555555555713,0.5305555555555372,0.5430555555555685,1.023017902813304,0.026017510953666792,0.9960265500597502,41.666666666666664,0.9999999999760001,0.9769820971866437,5.616577081896112e-13,0.9982394925239316,0
453,246.83055555555555,0.5305555555555372,0.5333333333333314,0.5388888888888772,0.9845360824742142,0.025044969856824997,0.9587948273479303,38.888888888888886,0.9333333333109334,0.9896907216495024,1.0657693803005353e-13,0.9990802534585632,0
454,247.36388888888888,0.5333333333333314,0.5250000000000057,0.5374999999999801,0.9922480620155371,0.024665745052201735,0.9442769907063451,36.111111111111114,0.8666666666458669,0.9767441860465583,1.7021843664948542e-14,0.9983107594881453,0
455,247.88888888888889,0.5250000000000057,0.5472222222222172,0.5374999999999801,0.9767441860465583,0.02655331843386525,1.016538830306261,38.888888888888886,0.9333333333109334,1.018087855297186,5.909568407541643e-12,0.997040878879468,0
456,248.4361111111111,0.5472222222222172,0.5555555555555713,0.5430555555555401,1.007672634271119,0.026253064880695554,1.0050442445544043,38.888888888888886,0.9333333333109334,1.0230179028133575,2.2241251809024254e-12,0.9958637456700032,0
457,248.99166666666667,0.5555555555555713,0.5583333333333371,0.5430555555555401,1.0230179028133575,0.04282460545949227,1.6394513721719604,69.44444444444444,1.666666666626667,1.028132992327402,0.7220020294189453,0.9515945391451838,1
458,249.55,0.5583333333333371,0.5083333333333258,0.5430555555555401,1.028132992327402,0.024505019592195382,0.9381239491751246,38.888888888888886,0.9333333333109334,0.9360613810741815,4.872962334345624e-15,0.9990247319338208,0
459,250.05833333333334,0.5083333333333258,0.5861111111111086,0.5416666666666572,0.9384615384615409,0.05140486533368845,1.9679288601350151,97.22222222222223,2.333333333277334,1.0820512820512964,0.9984937906265259,0.8503899438402347,1
460,250.64444444444445,0.5861111111111086,0.5305555555555657,0.5416666666666572,1.0820512820512964,0.025095405224343205,0.9607256409910807,41.666666666666664,0.9999999999760001,0.9794871794872153,6.746666891604622e-14,0.9961270352359968,0
461,251.175,0.5305555555555657,0.5472222222222172,0.5402777777777743,0.9820051413881998,0.02664087225834756,1.0198906472382863,38.888888888888886,0.9333333333109334,1.0128534704370151,2.7967211879698084e-12,0.9986362373175752,0
462,251.72222222222223,0.5472222222222172,0.5611111111111029,0.5402777777777743,1.0128534704370151,0.02564454651548603,0.9817483785883242,38.888888888888886,0.9333333333109334,1.0385604113110454,3.5446420646768895e-13,0.9988119441031739,0
463,252.28333333333333,0.5611111111111029,0.5222222222222115,0.5472222222222172,1.025380710659893,0.025854047107713045,0.9897686750910509,38.888888888888886,0.9333333333109334,0.954314720812172,6.00892491146865e-14,0.9987625751941138,0
464,252.80555555555554,0.5222222222222115,0.5555555555555713,0.5472222222222172,0.954314720812172,0.025993944686721254,0.9951243643124144,38.888888888888886,0.9333333333109334,1.0152284263959772,2.0748810655724093e-12,0.9971195216285322,0
465,253.36111111111111,0.5555555555555713,0.5555555555555429,0.5513888888888943,1.0075566750629912,0.026784395764187712,1.025385147562665,41.666666666666664,0.9999999999760001,1.0075566750629397,6.281447150618957e-12,0.9958422109517856,0
466,253.91666666666666,0.5555555555555429,0.5694444444444571,0.5555555555555571,0.9999999999999745,0.026845894695342494,1.0277395068378294,41.666666666666664,0.9999999999760001,1.02500000000002,4.449525383559694e-12,0.9977676400776861,0
467,254.48611111111111,0.5694444444444571,0.5333333333333314,0.5555555555555571,1.02500000000002,0.026932721644478682,1.0310634968518757,41.666666666666664,0.9999999999760001,0.9599999999999939,8.549600914384281e-13,0.9983533994151981,0
468,255.01944444444445,0.5333333333333314,0.5444444444444514,0.55138888888888,0.9672544080604655,0.026980298097571413,1.0328848628742604,41.666666666666664,0.9999999999760001,0.9874055415617413,1.1685923929916076e-11,0.9957340981986484,0
469,255.5638888888889,0.5444444444444514,0.549999999999983,0.55138888888888,0.9874055415617413,0.042371427665599364,1.6221023984204483,69.44444444444444,1.666666666626667,0.9974811083123276,0.6888116002082825,0.950682504981585,1
470,256.1138888888889,0.549999999999983,0.5444444444444798,0.5486111111111001,1.0025316455696094,0.025186758039248035,0.9642228944074411,38.888888888888886,0.9333333333109334,0.9924050632912237,8.923078747245794e-14,0.9975762283013001,0
471,256.65833333333336,0.5444444444444798,0.5388888888888346,0.5486111111111001,0.9924050632912237,0.03470642287302238,1.328663556659687,52.77777777777778,1.266666666636267,0.982278481012579,0.0019891918636858463,0.9818770017263849,0
472,257.1972222222222,0.5388888888888346,0.547222222222274,0.5472222222222314,0.9847715736039452,0.026028541000694107,0.9964488125777589,41.666666666666664,0.9999999999760001,1.000000000000078,1.2011925742266838e-12,0.9982105894432748,0
473,257.74444444444447,0.547222222222274,0.5416666666666288,0.5458333333333769,1.0025445292621014,0.042777086502478905,1.6376322072679559,66.66666666666667,1.5999999999616004,0.9923664122135918,0.7734315991401672,0.9546421440588693,1
474,258.2861111111111,0.5416666666666288,0.5222222222222399,0.5458333333333769,0.9923664122135918,0.026468121426886062,1.0132772392536804,38.888888888888886,0.9333333333109334,0.9567430025444853,3.4669847288198996e-13,0.9992787456843641,0
475,258.80833333333334,0.5222222222222399,0.5833333333333144,0.5444444444444656,0.9591836734693829,0.04907842449757095,1.878865888506299,94.44444444444444,2.266666666612267,1.071428571428495,0.9934859871864319,0.8582997011730391,1
476,259.39166666666665,0.5833333333333144,0.5277777777777715,0.5444444444444656,1.071428571428495,0.028508221171812526,1.0913782349383003,41.666666666666664,0.9999999999760001,0.9693877551019915,3.13817860586596e-11,0.9955824829069198,0
477,259.9194444444444,0.5277777777777715,0.5472222222222172,0.5430555555555401,0.9718670076726503,0.02709176550442725,1.0371521618058317,38.888888888888886,0.9333333333109334,1.007672634271119,5.642736711913843e-12,0.9986104702971926,0
478,260.46666666666664,0.5472222222222172,0.5444444444444798,0.5444444444444656,1.0051020408162783,0.026402850840724173,1.010778489973975,38.888888888888886,0.9333333333109334,1.0000000000000262,9.495728856001584e-13,0.9977115879187652,0
479,261.0111111111111,0.5444444444444798,0.5638888888888687,0.5444444444444798,1.0,0.02431120503768937,0.9307041601561146,38.888888888888886,0.9333333333109334,1.0357142857141812,5.811066824132696e-14,0.997462708473842,0
480,261.575,0.5638888888888687,0.5416666666666856,0.5444444444444798,1.0357142857141812,0.025051853817254655,0.9590583655230351,36.111111111111114,0.8666666666458669,0.9948979591836437,1.0156731412944847e-13,0.9921667902217788,0
481,262.1166666666667,0.5416666666666856,0.5527777777777487,0.5430555555555827,0.9974424552429517,0.026364214368685027,1.0092993726202757,41.666666666666664,0.9999999999760001,1.0179028132991284,2.1232874399673696e-12,0.9989403114102173,0
482,262.6694444444444,0.5527777777777487,0.5333333333333599,0.5458333333333485,1.0127226463103511,0.025937672042419455,0.9929700826108914,41.666666666666664,0.9999999999760001,0.9770992366412429,5.378022246288472e-13,0.9980693460254317,0
483,263.2027777777778,0.5333333333333599,0.5555555555555429,0.5430555555555827,0.982097186700767,0.024738199035668797,0.9470507414820937,36.111111111111114,0.8666666666458669,1.023017902813225,5.1598319800866266e-14,0.9973889446163103,0
484,263.7583333333333,0.5555555555555429,0.5333333333333599,0.5458333333333485,1.0178117048345543,0.02420071857226004,0.9264744145364875,36.111111111111114,0.8666666666458669,0.9770992366412429,1.5448783203218797e-13,0.9872610916385106,0
485,264.2916666666667,0.5333333333333599,0.5416666666666288,0.5458333333333485,0.9770992366412429,0.024464084641600044,0.936556839327801,36.111111111111114,0.8666666666458669,0.9923664122136435,4.364807872233277e-14,0.9950982011859484,0
486,264.8333333333333,0.5416666666666288,0.5472222222222172,0.5430555555555827,0.9974424552428471,0.02614903488527503,1.001061671524034,38.888888888888886,0.9333333333109334,1.00767263427104,1.0536767855798268e-12,0.9973329534794179,0
487,265.38055555555553,0.5472222222222172,0.5500000000000114,0.5458333333333485,1.0025445292620494,0.026920323801611204,1.030588871101493,41.666666666666664,0.9999999999760001,1.0076335877862523,3.752268461221231e-12,0.9988616761933875,0
488,265.93055555555554,0.5500000000000114,0.5388888888888914,0.5458333333333485,1.0076335877862523,0.024233576686162484,0.9277323194102475,36.111111111111114,0.8666666666458669,0.9872773536895446,3.378631467480797e-14,0.9925812717358063,0
489,266.46944444444443,0.5388888888888914,0.5500000000000114,0.5444444444444514,0.9897959183673389,0.04972132892135764,1.9034781535451326,80.55555555555556,1.9333333332869336,1.010204081632661,0.8988474607467651,0.9228087442368603,1
490,267.01944444444445,0.5500000000000114,0.5166666666666515,0.5444444444444514,1.010204081632661,0.0261293016481228,1.0003062253878818,41.666666666666664,0.9999999999760001,0.9489795918366948,6.672228958573556e-13,0.9973813327369889,0
491,267.5361111111111,0.5166666666666515,0.5416666666666856,0.544444444444423,0.9489795918367443,0.0555009674096447,2.1247396490945287,91.66666666666667,2.1999999999472006,0.9948979591837475,0.9973217844963074,0.8680931685954152,1
492,268.0777777777778,0.5416666666666856,0.5027777777777942,0.5416666666666572,1.0000000000000524,0.02332606642332374,0.892990167563024,38.888888888888886,0.9333333333109334,0.9282051282051748,7.582280648883808e-15,0.9938156582995215,0
493,268.5805555555556,0.5027777777777942,0.5861111111111086,0.5416666666666572,0.9282051282051748,0.04800161577369989,1.8376424955298707,94.44444444444444,2.266666666612267,1.0820512820512964,0.997212827205658,0.8608147248989451,1
494,269.1666666666667,0.5861111111111086,0.5388888888888914,0.5416666666666572,1.0820512820512964,0.024881737351398536,0.9525458087724384,38.888888888888886,0.9333333333109334,0.994871794871817,7.100539130462397e-15,0.9990705512933935,0
495,269.7055555555556,0.5388888888888914,0.533333333333303,0.5416666666666572,0.994871794871817,0.02759421830501516,1.0563875271883494,41.666666666666664,0.9999999999760001,0.9846153846153458,1.9791338706776074e-11,0.9970299056524761,0
496,270.2388888888889,0.533333333333303,0.5694444444444571,0.5402777777777885,0.9871465295629063,0.025643583598643778,0.981711515310277,36.111111111111114,0.8666666666458669,1.053984575835478,7.147588727482446e-13,0.9961520087364122,0
497,270.80833333333334,0.5694444444444571,0.5277777777777715,0.5402777777777885,1.053984575835478,0.02591725054990154,0.992188288042767,38.888888888888886,0.9333333333109334,0.9768637532133365,1.0679955184111911e-13,0.9979876871433278,0
498,271.3361111111111,0.5277777777777715,0.5388888888888914,0.5388888888888914,0.9793814432989527,0.025701627742838334,0.9839336152181517,38.888888888888886,0.9333333333109334,1.0,4.3788272161872366e-13,0.9991067212246731,0
499,271.875,0.5388888888888914,0.5361111111110972,0.5388888888888914,1.0,0.022757711625812964,0.8712318806468506,36.111111111111114,0.8666666666458669,0.9948453608247119,3.424030061761375e-14,0.9875632904458196,0
500,272.4111111111111,0.5361111111110972,0.5444444444444798,0.5374999999999943,0.9974160206718193,0.02516383585923635,0.9633453661950943,38.888888888888886,0.9333333333109334,1.0129198966409034,2.423139813800823e-13,0.9978670410496018,0
501,272.9555555555556,0.5444444444444798,0.5527777777777487,0.5388888888888914,1.0103092783505763,0.02561697958890209,0.9806930358681828,38.888888888888886,0.9333333333109334,1.02577319587623,2.375719250231195e-13,0.9995477707561035,0
502,273.5083333333333,0.5527777777777487,0.5555555555555429,0.5388888888888914,1.02577319587623,0.024990846518094148,0.9567228273610828,38.888888888888886,0.9333333333109334,1.030927835051518,6.842619461495947e-14,0.9992345599521094,0
503,274.06388888888887,0.5555555555555429,0.5416666666666856,0.5416666666666856,1.0256410256409665,0.024371187478549123,0.9330004637395011,38.888888888888886,0.9333333333109334,1.0,1.9255965908165223e-14,0.9979536275986578,0
504,274.60555555555555,0.5416666666666856,0.5583333333333371,0.5402777777777885,1.0025706940874188,0.02527739696878232,0.9676928182001481,38.888888888888886,0.9333333333109334,1.0334190231362332,2.757917592216552e-13,0.9981915381285591,0
505,275.1638888888889,0.5583333333333371,0.533333333333303,0.5430555555555827,1.0281329923273212,0.02516647618843148,0.9634464457327921,38.888888888888886,0.9333333333109334,0.9820971867006624,3.448608586198443e-14,0.9989234321838092,0
506,275.6972222222222,0.533333333333303,0.5388888888888914,0.5430555555555827,0.9820971867006624,0.026059132397810665,0.9976199408915232,41.666666666666664,0.9999999999760001,0.9923273657288553,2.4607510040047798e-12,0.9965628983305292,0
507,276.2361111111111,0.5388888888888914,0.5583333333333371,0.5402777777777885,0.9974293059125813,0.04008721456960489,1.5346560284100215,66.66666666666667,1.5999999999616004,1.0334190231362332,0.6942232847213745,0.9614772128482028,1
508,276.7944444444444,0.5583333333333371,0.49722222222226264,0.5430555555555827,1.0281329923273212,0.02569964672764415,0.9838577761521861,38.888888888888886,0.9333333333109334,0.9156010230179314,2.535976325311086e-14,0.999133576282651,0
509,277.2916666666667,0.49722222222226264,0.5861111111111086,0.5430555555555827,0.9156010230179314,0.047721742003055866,1.8269281075654258,94.44444444444444,2.266666666612267,1.079283887467972,0.9986794590950012,0.8509778430245873,1
510,277.8777777777778,0.5861111111111086,0.5555555555555429,0.5486111111111143,1.068354430379736,0.027244173567085018,1.0429867889967512,41.666666666666664,0.9999999999760001,1.0126582278480725,3.6236124777849765e-12,0.9965785962419447,0
