beat_index,peak_time_s,rr_prev_s,rr_next_s,rr_baseline_s,prematurity_index,aa_ratio,morph_index,qrs_width_ms,width_index,pause_index,pvc_score,morphology_score,is_pvc_candidate
0,0.1638888888888889,,0.8,0.7916666666667425,,0.033153808422250915,0.9269999493273181,86.11111111111111,1.0333333333209334,1.010526315789377,0.0010375002166256309,0.9985507937090223,0
1,0.9638888888888889,0.8,0.8749999999999999,0.7916666666667425,1.010526315789377,0.03618171526187339,1.0116620023605396,97.22222222222223,1.1666666666526668,1.1052631578946308,0.06038486212491989,0.9983712055390386,0
2,1.8388888888888888,0.8749999999999999,0.8722222222222225,0.7916666666667425,1.1052631578946308,0.035964742161669734,1.0055953070858215,91.66666666666667,1.0999999999868,1.1017543859648071,0.0028396579436957836,0.998670976920073,0
3,2.7111111111111112,0.8722222222222225,0.8777777777777778,0.7916666666667425,1.1017543859648071,0.034481790886650786,0.9641311187401221,88.88888888888889,1.0666666666538667,1.1087719298244552,0.0009881043806672096,0.9981535652626979,0
4,3.588888888888889,0.8777777777777778,0.8777777777777778,0.7916666666667425,1.1087719298244552,0.03702633014248393,1.0352779303274031,91.66666666666667,1.0999999999868,1.1087719298244552,0.0031783219892531633,0.9991360077767724,0
5,4.466666666666667,0.8777777777777778,0.8305555555555557,0.8749999999999999,1.0031746031746034,0.03380997107174573,0.9453466422648311,80.55555555555556,0.9666666666550667,0.9492063492063495,1.2715908269456122e-05,0.9985813564068438,0
6,5.2972222222222225,0.8305555555555557,0.6722222222222216,0.8736111111111111,0.9507154213036568,0.036188799835865565,1.0118600912089792,91.66666666666667,1.0999999999868,0.7694753577106511,0.0031275739893317223,0.9986193074010736,0
7,5.969444444444444,0.6722222222222216,0.9194444444444452,0.8722222222222225,0.7707006369426742,0.04507540250276931,1.2603347194324745,102.77777777777777,1.2333333333185332,1.0541401273885356,0.9730865955352783,0.5652920317499821,1
8,6.888888888888889,0.9194444444444452,0.7722222222222221,0.8736111111111111,1.052464228934818,0.034829794071181065,0.973861492105277,80.55555555555556,0.9666666666550667,0.8839427662957073,3.3787753181968583e-06,0.999472827961237,0
9,7.661111111111111,0.7722222222222221,0.8777777777777782,0.8722222222222225,0.8853503184713373,0.03738954443467713,1.0454336151938235,91.66666666666667,1.0999999999868,1.0063694267515926,0.09367731213569641,0.9987791294803268,0
10,8.53888888888889,0.8777777777777782,0.5194444444444439,0.8736111111111111,1.0047694753577112,0.039841843312466624,1.1140013316532276,97.22222222222223,1.1666666666526668,0.594594594594594,0.008999579586088657,0.9966639967095167,0
11,9.058333333333334,0.5194444444444439,1.2055555555555557,0.8736111111111111,0.594594594594594,0.03450519788422933,0.9647855921355422,119.44444444444444,1.4333333333161333,1.3799682034976155,0.9557911157608032,0.16753604499291264,1
12,10.26388888888889,1.2055555555555557,0.7722222222222221,0.8750000000000001,1.3777777777777778,0.03815915722532382,1.066952440688765,97.22222222222223,1.1666666666526668,0.8825396825396823,3.526516229612753e-05,0.9983445803236475,0
13,11.036111111111111,0.7722222222222221,0.719444444444445,0.8541666666666667,0.9040650406504064,0.03460181476586552,0.9674870568734756,83.33333333333333,0.9999999999879999,0.8422764227642282,0.0004924061940982938,0.9994421338093332,0
14,11.755555555555556,0.719444444444445,0.7305555555555543,0.8013888888888889,0.8977469670710578,0.03340766750675019,0.9340979983800831,83.33333333333333,0.9999999999879999,0.911611785095319,0.0005828627618029714,0.9990994818342903,0
15,12.48611111111111,0.7305555555555543,0.7611111111111111,0.7722222222222221,0.9460431654676243,0.03490725871450897,0.9760274490151151,86.11111111111111,1.0333333333209334,0.985611510791367,0.001932333456352353,0.9984154909269467,0
16,13.247222222222222,0.7611111111111111,0.7611111111111111,0.7666666666666666,0.9927536231884059,0.03529251383274492,0.9867994083186843,80.55555555555556,0.9666666666550667,0.9927536231884059,0.0001839963806560263,0.9984056652290199,0
17,14.008333333333333,0.7611111111111111,0.7750000000000004,0.7666666666666666,0.9927536231884059,0.03404775930807161,0.9519953409668718,80.55555555555556,0.9666666666550667,1.0108695652173918,0.00010265164019074291,0.9995216052182672,0
18,14.783333333333333,0.7750000000000004,0.8805555555555564,0.7666666666666666,1.0108695652173918,0.040750621365936275,1.1394112996058308,97.22222222222223,1.1666666666526668,1.1485507246376825,0.19391299784183502,0.9972277336791016,0
19,15.66388888888889,0.8805555555555564,0.8944444444444439,0.7666666666666666,1.1485507246376825,0.040826686060261574,1.1415381131195939,97.22222222222223,1.1666666666526668,1.166666666666666,0.07778031378984451,0.9936441214236293,0
20,16.558333333333334,0.8944444444444439,0.7472222222222236,0.7666666666666666,1.166666666666666,0.04004924104884352,1.1198002941332952,86.11111111111111,1.0333333333209334,0.9746376811594221,0.0003602811193559319,0.9988746821808951,0
21,17.305555555555557,0.7472222222222236,0.7222222222222214,0.7666666666666666,0.9746376811594221,0.033298736908303775,0.9310522348902919,75.0,0.8999999999892,0.9420289855072455,1.5584790162392892e-05,0.9978180528233459,0
22,18.02777777777778,0.7222222222222214,0.7277777777777779,0.7611111111111111,0.9489051094890502,0.03392746577351673,0.9486318631118831,86.11111111111111,1.0333333333209334,0.956204379562044,0.0005557319964282215,0.9996317549754306,0
23,18.755555555555556,0.7277777777777779,0.7833333333333314,0.7541666666666673,0.9650092081031301,0.03461947151169608,0.9679807498538341,80.55555555555556,0.9666666666550667,1.038674033149168,0.0004900908679701388,0.9990756544529369,0
24,19.538888888888888,0.7833333333333314,0.8111111111111136,0.7611111111111111,1.0291970802919683,0.03789447010874814,1.059551633501601,86.11111111111111,1.0333333333209334,1.0656934306569377,0.001968687865883112,0.9987545440696706,0
25,20.35,0.8111111111111136,0.8222222222222193,0.7680555555555557,1.0560578661844515,0.039455401907809884,1.10319620308482,86.11111111111111,1.0333333333209334,1.0705244122965603,0.001621370785869658,0.9990487757172603,0
26,21.17222222222222,0.8222222222222193,0.8027777777777807,0.7791666666666659,1.0552584670231702,0.03609150617970146,1.0091397034578857,83.33333333333333,0.9999999999879999,1.0303030303030352,0.00017994099471252412,0.9995980167343363,0
27,21.975,0.8027777777777807,0.8333333333333321,0.7930555555555561,1.0122591943958,0.03719734335126763,1.0400595600532476,83.33333333333333,0.9999999999879999,1.050788091068299,0.0008654295234009624,0.9991035592870032,0
28,22.808333333333334,0.8333333333333321,0.7666666666666657,0.8069444444444471,1.0327022375215098,0.0351025071332795,0.9814867094415898,88.88888888888889,1.0666666666538667,0.9500860585197891,0.0003610953863244504,0.999440749589161,0
29,23.575,0.7666666666666657,0.7138888888888886,0.7930555555555561,0.9667250437828353,0.035105897124873345,0.9815814955969446,86.11111111111111,1.0333333333209334,0.9001751313485103,0.0003431128279771656,0.9996523523268994,0
30,24.288888888888888,0.7138888888888886,0.7472222222222236,0.7749999999999986,0.9211469534050192,0.033386396522585966,0.9335032491738608,80.55555555555556,0.9666666666550667,0.9641577060931935,0.000233324637520127,0.9994405223155169,0
31,25.03611111111111,0.7472222222222236,0.780555555555555,0.7749999999999986,0.9641577060931935,0.03614526796105574,1.0106429144301043,86.11111111111111,1.0333333333209334,1.0071684587813632,0.0019461356569081545,0.9996970764326898,0
32,25.816666666666666,0.780555555555555,0.8277777777777793,0.7819444444444432,0.9982238010657202,0.03584124653741345,1.002142296922715,83.33333333333333,0.9999999999879999,1.0586145648312646,0.0007599116652272642,0.9997593908410172,0
33,26.644444444444446,0.8277777777777793,0.8583333333333307,0.7930555555555561,1.043782837127847,0.03594011537150417,1.0049067275734826,88.88888888888889,1.0666666666538667,1.0823117338003463,0.003536743111908436,0.9978690652613567,0
34,27.502777777777776,0.8583333333333307,0.8250000000000028,0.8069444444444471,1.0636833046471532,0.03506858366445036,0.9805381893353896,86.11111111111111,1.0333333333209334,1.0223752151462997,0.00023042607062961906,0.998376809616716,0
35,28.32777777777778,0.8250000000000028,0.7666666666666657,0.8125,1.0153846153846189,0.03459849988896129,0.9673943709689451,80.55555555555556,0.9666666666550667,0.9435897435897425,1.981644527404569e-05,0.9996391653511136,0
36,29.094444444444445,0.7666666666666657,0.7749999999999986,0.7916666666666679,0.9684210526315763,0.03903097089460961,1.0913288627564146,88.88888888888889,1.0666666666538667,0.9789473684210493,0.00645562494173646,0.9976508746268153,0
37,29.869444444444444,0.7749999999999986,0.7416666666666671,0.7777777777777768,0.9964285714285709,0.036196367343790926,1.0120716831737395,83.33333333333333,0.9999999999879999,0.9535714285714304,0.00027788468287326396,0.9989314550077044,0
38,30.61111111111111,0.7416666666666671,0.75,0.7708333333333321,0.9621621621621642,0.03507806879251285,0.9808033990850903,83.33333333333333,0.9999999999879999,0.9729729729729745,0.000486189586808905,0.9987775136243439,0
39,31.36111111111111,0.75,0.786111111111115,0.7708333333333321,0.9729729729729745,0.040015598039000046,1.118859615825002,88.88888888888889,1.0666666666538667,1.0198198198198265,0.007905705831944942,0.9986157568755833,0
40,32.147222222222226,0.786111111111115,0.8138888888888829,0.7777777777777768,1.010714285714292,0.03580263166331175,1.0010626023705942,86.11111111111111,1.0333333333209334,1.046428571428565,0.0017485531279817224,0.9985997603810307,0
41,32.96111111111111,0.8138888888888829,0.8388888888888886,0.783333333333335,1.0390070921985717,0.037025202046159916,1.0352463880918361,94.44444444444444,1.1333333333197333,1.0709219858156003,0.013496167957782745,0.9989420236454298,0
42,33.8,0.8388888888888886,0.8277777777777828,0.7999999999999989,1.048611111111112,0.037178762123273965,1.0395400180088108,88.88888888888889,1.0666666666538667,1.0347222222222299,0.0019445375073701143,0.9983657202473857,0
43,34.62777777777778,0.8277777777777828,0.55833333333333,0.7999999999999989,1.0347222222222299,0.034626179225113116,0.9681683014593239,77.77777777777777,0.9333333333221333,0.6979166666666634,5.8886007536784746e-06,0.9993075458645566,0
44,35.18611111111111,0.55833333333333,0.94166666666667,0.7805555555555568,0.7153024911031974,0.04488500953387565,1.2550112202353734,108.33333333333333,1.2999999999843999,1.2064056939501804,0.9903742074966431,0.3760568821118385,1
45,36.12777777777778,0.94166666666667,0.74722222222222,0.7805555555555568,1.2064056939501804,0.03642748162958885,1.0185337743004923,80.55555555555556,0.9666666666550667,0.9572953736654761,9.168833457806613e-06,0.9988337912718455,0
46,36.875,0.74722222222222,0.7833333333333314,0.7805555555555568,0.9572953736654761,0.035630902407089014,0.996260951537936,88.88888888888889,1.0666666666538667,1.003558718861206,0.004835909232497215,0.9987345728248689,0
47,37.65833333333333,0.7833333333333314,0.7861111111111114,0.7847222222222232,0.9982300884955716,0.03797642899179572,1.0618432519927377,88.88888888888889,1.0666666666538667,1.0017699115044238,0.003302161581814289,0.9987743594415659,0
48,38.44444444444444,0.7861111111111114,0.8083333333333371,0.7861111111111132,0.9999999999999978,0.0337567857863658,0.9438595504585378,83.33333333333333,0.9999999999879999,1.028268551236751,0.0001817879528971389,0.9996257129817263,0
49,39.25277777777778,0.8083333333333371,0.8249999999999957,0.797222222222226,1.013937282229965,0.03462657615262774,0.9681793997856838,91.66666666666667,1.0999999999868,1.0348432055749026,0.0038306887727230787,0.998920383328994,0
50,40.077777777777776,0.8249999999999957,0.7972222222222243,0.81111111111111,1.017123287671229,0.03479678402162283,0.9729385117381938,88.88888888888889,1.0666666666538667,0.9828767123287709,0.0006200667703524232,0.9993579014322969,0
51,40.875,0.7972222222222243,0.7749999999999986,0.8027777777777807,0.9930795847750854,0.03860027083530009,1.0792862362180038,88.88888888888889,1.0666666666538667,0.9653979238754272,0.0029982207342982292,0.9990299129656237,0
52,41.65,0.7749999999999986,0.75,0.7916666666666679,0.9789473684210493,0.03579487465312804,1.000845711811427,80.55555555555556,0.9666666666550667,0.9473684210526302,0.00011773627920774743,0.9994556506973357,0
53,42.4,0.75,0.7361111111111143,0.7847222222222214,0.9557522123893815,0.035737055022537566,0.9992290409920491,83.33333333333333,0.9999999999879999,0.9380530973451378,0.0004414761206135154,0.99919456655079,0
54,43.13611111111111,0.7361111111111143,0.8166666666666629,0.7847222222222214,0.9380530973451378,0.03343289031785742,0.9348032429878972,86.11111111111111,1.0333333333209334,1.040707964601766,0.002188789891079068,0.9993990202513618,0
55,43.952777777777776,0.8166666666666629,0.8555555555555543,0.7847222222222214,1.040707964601766,0.03683090632699728,1.0298137657057638,97.22222222222223,1.1666666666526668,1.0902654867256631,0.042647939175367355,0.9973938028590905,0
56,44.80833333333333,0.8555555555555543,0.8444444444444485,0.7916666666666679,1.0807017543859616,0.03574116838366764,0.9993440529843542,97.22222222222223,1.1666666666526668,1.0666666666666702,0.012232768349349499,0.9982468543659613,0
57,45.65277777777778,0.8444444444444485,0.8249999999999957,0.8027777777777807,1.0519031141868525,0.03739471328359271,1.0455781392443277,88.88888888888889,1.0666666666538667,1.0276816608996449,0.0014207581989467144,0.9993901331484945,0
58,46.477777777777774,0.8249999999999957,0.7722222222222257,0.8125,1.0153846153846102,0.034905877992203654,0.9759888432087848,91.66666666666667,1.0999999999868,0.9504273504273547,0.0016211477341130376,0.9980981290278614,0
59,47.25,0.7722222222222257,0.75,0.8069444444444436,0.9569707401032755,0.035391470783280206,0.9895663027569784,83.33333333333333,0.9999999999879999,0.9294320137693641,0.0003065629571210593,0.9994370154701202,0
60,48.0,0.75,0.7277777777777743,0.7861111111111114,0.9540636042402822,0.034518911694875525,0.965169038333101,86.11111111111111,1.0333333333209334,0.9257950530035288,0.0004969299188815057,0.9991621385867249,0
61,48.727777777777774,0.7277777777777743,0.7472222222222271,0.7736111111111121,0.9407540394973013,0.03417044559311737,0.9554257215304588,77.77777777777777,0.9333333333221333,0.9658886894075455,0.00011942946002818644,0.9986102358347377,0
62,49.475,0.7472222222222271,0.7638888888888857,0.7611111111111128,0.9817518248175224,0.038394628486042186,1.0735363553924364,80.55555555555556,0.9666666666550667,1.0036496350364899,0.0005979320267215371,0.9985854912824524,0
63,50.23888888888889,0.7638888888888857,0.8472222222222214,0.7680555555555557,0.9945750452079523,0.03539869110479132,0.98976818718575,86.11111111111111,1.0333333333209334,1.1030741410488234,0.004984360188245773,0.9980210519836487,0
64,51.08611111111111,0.8472222222222214,0.8472222222222214,0.7944444444444443,1.0664335664335656,0.03836015631263005,1.0725724931839307,91.66666666666667,1.0999999999868,1.0664335664335656,0.00533538032323122,0.9978304253070029,0
65,51.93333333333333,0.8472222222222214,0.81666666666667,0.7986111111111107,1.0608695652173907,0.037855836558720254,1.058471416759619,91.66666666666667,1.0999999999868,1.0226086956521785,0.0029775623697787523,0.9988385766559111,0
66,52.75,0.81666666666667,0.7833333333333314,0.7944444444444478,1.0279720279720277,0.035849563729985184,1.0023748505103556,83.33333333333333,0.9999999999879999,0.9860139860139794,0.00012726322165690362,0.9996213792708706,0
67,53.53333333333333,0.7833333333333314,0.75277777777778,0.7777777777777786,1.0071428571428538,0.03614233077821577,1.010560789073369,86.11111111111111,1.0333333333209334,0.9678571428571447,0.00051073357462883,0.9994891048614898,0
68,54.28611111111111,0.75277777777778,0.7916666666666643,0.7680555555555557,0.9801084990958435,0.034442449998449746,0.9630311244075139,83.33333333333333,0.9999999999879999,1.0307414104882426,0.0004788079531863332,0.9996885545269639,0
69,55.077777777777776,0.7916666666666643,0.8083333333333371,0.7736111111111086,1.0233393177737884,0.035322504314171554,0.9876379597879066,91.66666666666667,1.0999999999868,1.0448833034111393,0.005512164440006018,0.9984594928032695,0
70,55.88611111111111,0.8083333333333371,0.80833333333333,0.7874999999999979,1.026455026455034,0.03511748400293935,0.9819054715107597,88.88888888888889,1.0666666666538667,1.026455026455025,0.0013806327478960156,0.9990982810702396,0
71,56.69444444444444,0.80833333333333,0.8277777777777828,0.7999999999999972,1.010416666666666,0.03523068278865596,0.9850705760226379,86.11111111111111,1.0333333333209334,1.0347222222222323,0.0006524722557514906,0.999744532303193,0
72,57.522222222222226,0.8277777777777828,0.8499999999999943,0.8083333333333336,1.0240549828178753,0.03638130706955117,1.0172427064910274,91.66666666666667,1.0999999999868,1.05154639175257,0.0069923438131809235,0.9981451693591255,0
73,58.37222222222222,0.8499999999999943,0.7638888888888928,0.8125000000000036,1.0461538461538347,0.035007743112033994,0.9788370517680637,86.11111111111111,1.0333333333209334,0.9401709401709409,0.00010473875590832904,0.9991360023441167,0
74,59.13611111111111,0.7638888888888928,0.7222222222222214,0.8083333333333336,0.9450171821305888,0.035674922022396006,0.9974917658274824,80.55555555555556,0.9666666666550667,0.8934707903780056,0.00019841259927488863,0.9989789457036764,0
75,59.858333333333334,0.7222222222222214,0.7250000000000014,0.7999999999999972,0.90277777777778,0.0338875938278985,0.9475170201020866,88.88888888888889,1.0666666666538667,0.906250000000005,0.0026879303622990847,0.9989089509473619,0
76,60.583333333333336,0.7250000000000014,0.74722222222222,0.7874999999999979,0.9206349206349249,0.03850088740236865,1.0765074170815092,86.11111111111111,1.0333333333209334,0.9488536155202819,0.004927644971758127,0.9990106215896017,0
77,61.330555555555556,0.74722222222222,0.8194444444444429,0.7777777777777786,0.9607142857142819,0.03515077708587111,0.9828363656571463,83.33333333333333,0.9999999999879999,1.0535714285714255,0.0014939941465854645,0.9994787814409999,0
78,62.15,0.8194444444444429,0.8500000000000014,0.7999999999999972,1.0243055555555571,0.03876928746334847,1.0840120403742215,94.44444444444444,1.1333333333197333,1.0625000000000056,0.026017984375357628,0.9973167609663107,0
79,63.0,0.8500000000000014,0.8305555555555557,0.8083333333333336,1.0515463917525787,0.03792752844070835,1.060475963872992,88.88888888888889,1.0666666666538667,1.0274914089347078,0.001681639696471393,0.9990377361792706,0
80,63.830555555555556,0.8305555555555557,0.7833333333333385,0.8138888888888864,1.020477815699662,0.03607290576552722,1.008619624956575,94.44444444444444,1.1333333333197333,0.9624573378839684,0.005284453276544809,0.9986714185969012,0
81,64.6138888888889,0.7833333333333385,0.7611111111111057,0.8013888888888907,0.9774696707105762,0.035401204207677416,0.9898384550179821,88.88888888888889,1.0666666666538667,0.9497400346620362,0.0015397854149341583,0.9986611927717661,0
82,65.375,0.7611111111111057,0.7166666666666686,0.7736111111111157,0.9838420107719801,0.03563157030533564,0.9962796263650597,77.77777777777777,0.9333333333221333,0.926391382405742,4.596834332915023e-05,0.9993613846601925,0
83,66.09166666666667,0.7166666666666686,0.7000000000000028,0.7624999999999993,0.939890710382517,0.038792329334670826,1.0846563046251392,86.11111111111111,1.0333333333209334,0.9180327868852505,0.0025815351400524378,0.9982193625992388,0
84,66.79166666666667,0.7000000000000028,0.74722222222222,0.7541666666666629,0.9281767955801189,0.03679185858782374,1.0287219679920832,86.11111111111111,1.0333333333209334,0.990791896869247,0.0041638449765741825,0.9984843128085585,0
85,67.53888888888889,0.74722222222222,0.7722222222222257,0.7541666666666629,0.990791896869247,0.03482440629868596,0.9737108468229511,83.33333333333333,0.9999999999879999,1.023941068139973,0.0004989010049030185,0.9992381166235598,0
86,68.31111111111112,0.7722222222222257,0.8499999999999943,0.7666666666666657,1.0072463768116,0.03562992999427249,0.996233762304646,83.33333333333333,0.9999999999879999,1.108695652173907,0.0015073824906721711,0.999309576434378,0
87,69.16111111111111,0.8499999999999943,1.0111111111111057,0.7777777777777821,1.0928571428571294,0.03608563135732256,1.0089754399748436,94.44444444444444,1.1333333333197333,1.2999999999999858,0.10100848972797394,0.9973439556298391,0
88,70.17222222222222,1.0111111111111057,0.7861111111111114,0.7777777777777821,1.2999999999999858,0.03382472259015159,0.9457591033806273,86.11111111111111,1.0333333333209334,1.0107142857142806,5.722002242691815e-06,0.99823021901871,0
89,70.95833333333333,0.7861111111111114,0.7305555555555543,0.7777777777777821,1.0107142857142806,0.03370736947494327,0.9424778413769987,80.55555555555556,0.9666666666550667,0.9392857142857074,2.9080334570608102e-05,0.9990921156024025,0
90,71.68888888888888,0.7305555555555543,0.76111111111112,0.7666666666666657,0.9528985507246372,0.037543995231899795,1.0497521501680103,75.0,0.8999999999892,0.9927536231884185,0.00026660569710657,0.9979658332341556,0
91,72.45,0.76111111111112,0.73888888888888,0.7611111111111128,1.0000000000000093,0.033518090134533315,0.9371854798861549,61.111111111111114,0.7333333333245334,0.9708029197080154,3.036450095805776e-07,0.9969583193608194,0
92,73.18888888888888,0.73888888888888,0.75,0.75416666666667,0.9797421731123228,0.03452930644053008,0.9654596815247465,69.44444444444444,0.8333333333233334,0.9944751381215425,1.2446012078726199e-05,0.997103303523053,0
93,73.93888888888888,0.75,0.7861111111111114,0.75555555555556,0.9926470588235236,0.037533330874206156,1.0494539684654527,94.44444444444444,1.1333333333197333,1.0404411764705825,0.018825078383088112,0.9983624567837427,0
94,74.725,0.7861111111111114,0.8111111111111171,0.7666666666666728,1.0253623188405718,0.0383585718246906,1.0725281899708314,88.88888888888889,1.0666666666538667,1.057971014492753,0.004317290149629116,0.9984227866514639,0
95,75.53611111111111,0.8111111111111171,0.8416666666666686,0.7791666666666686,1.0409982174688108,0.0380794626129898,1.0647241325362176,88.88888888888889,1.0666666666538667,1.0802139037433154,0.004485670942813158,0.9982157130571762,0
96,76.37777777777778,0.8416666666666686,0.7861111111111114,0.7861111111111114,1.0706713780918748,0.03921778662382798,1.0965523402318638,91.66666666666667,1.0999999999868,1.0,0.0038502595853060484,0.9965802504020808,0
97,77.16388888888889,0.7861111111111114,0.7138888888888886,0.7861111111111114,1.0,0.03736088287265617,1.0446322210914423,91.66666666666667,1.0999999999868,0.9081272084805646,0.0054091522470116615,0.9948933093848309,0
98,77.87777777777778,0.7138888888888886,0.4361111111111029,0.7736111111111157,0.9228007181328487,0.03594960589807185,1.005172088268558,69.44444444444444,0.8333333333233334,0.5637342908437921,0.00020093040075153112,0.9890490607093356,0
99,78.31388888888888,0.4361111111111029,1.0611111111111171,0.75555555555556,0.5772058823529269,0.030970550479331206,0.8659547753708708,44.44444444444444,0.5333333333269333,1.404411764705882,0.9416053891181946,0.8703927466503151,1
100,79.375,1.0611111111111171,0.7888888888888914,0.7736111111111157,1.3716337522441648,0.03623750495320238,1.013221914886313,88.88888888888889,1.0666666666538667,1.0197486535008948,0.0003117214946541935,0.9893738956665998,0
101,80.16388888888889,0.7888888888888914,0.6055555555555543,0.7861111111111114,1.0035335689045966,0.033750528271900435,0.9436845866800653,105.55555555555556,1.2666666666514668,0.7703180212014115,0.03177686035633087,0.9944938354109067,0
102,80.76944444444445,0.6055555555555543,1.0,0.7861111111111114,0.7703180212014115,0.03272472568869558,0.9150025441665866,50.0,0.5999999999928,1.2720848056537097,0.992689311504364,0.8196006539508123,1
103,81.76944444444445,1.0,0.7694444444444457,0.7875000000000014,1.2698412698412676,0.037086852232789014,1.0369701635071167,102.77777777777777,1.2333333333185332,0.9770723104056436,0.008003546856343746,0.9947175650773525,0
104,82.53888888888889,0.7694444444444457,0.48611111111111427,0.7875000000000014,0.9770723104056436,0.03968902420673843,1.1097284197312534,91.66666666666667,1.0999999999868,0.6172839506172868,0.0027987330686300993,0.9971768601478658,0
105,83.025,0.48611111111111427,0.9611111111111086,0.7777777777777786,0.6250000000000034,0.038377040907086955,1.0730445963585227,108.33333333333333,1.2999999999843999,1.235714285714281,0.9664998650550842,0.17668594522859976,1
106,83.98611111111111,0.9611111111111086,0.6777777777777771,0.7777777777777786,1.235714285714281,0.037545952076504595,1.049806864692097,77.77777777777777,0.9333333333221333,0.8714285714285698,1.4207180356606841e-05,0.9970589219651707,0
107,84.66388888888889,0.6777777777777771,0.4583333333333286,0.7416666666666671,0.9138576779026203,0.035552453544219584,0.9940674752718447,77.77777777777777,0.9333333333221333,0.6179775280898808,5.771909491159022e-05,0.999052988389179,0
108,85.12222222222222,0.4583333333333286,1.0,0.7236111111111114,0.633397312859878,0.03270176338408597,0.9143605046476738,55.55555555555556,0.6666666666586667,1.3819577735124755,0.8569346070289612,0.9243100681827442,1
109,86.12222222222222,1.0,0.8027777777777771,0.7791666666666686,1.283422459893045,0.038518365665910624,1.0769961195922853,77.77777777777777,0.9333333333221333,1.030303030303027,1.834731847338844e-05,0.9961603781753707,0
110,86.925,0.8027777777777771,0.5333333333333314,0.7791666666666686,1.030303030303027,0.03736681916495854,1.044798203309636,86.11111111111111,1.0333333333209334,0.6844919786096215,0.0004908522241748869,0.996670921042068,0
111,87.45833333333333,0.5333333333333314,1.0,0.7236111111111114,0.7370441458733176,0.03423707340808424,0.9572886743566151,52.77777777777778,0.6333333333257334,1.3819577735124755,0.9582372307777405,0.9272910749852369,1
112,88.45833333333333,1.0,0.6944444444444429,0.7861111111111114,1.2720848056537097,0.03615816518390967,1.0110035283535423,77.77777777777777,0.9333333333221333,0.8833922261484075,2.0159500309091527e-06,0.998403836067963,0
113,89.15277777777777,0.6944444444444429,0.6638888888888914,0.7319444444444443,0.9487666034155579,0.03736317990783207,1.0446964475436358,83.33333333333333,0.9999999999879999,0.9070208728652788,0.0007902232464402914,0.9981557572592855,0
114,89.81666666666666,0.6638888888888914,0.6527777777777857,0.68611111111111,0.9676113360323939,0.037431172512628764,1.046597560694753,83.33333333333333,0.9999999999879999,0.9514170040485961,0.0025880062021315098,0.995468304302231,0
115,90.46944444444445,0.6527777777777857,0.6805555555555571,0.68611111111111,0.9514170040485961,0.03530921954179842,0.987266509752367,80.55555555555556,0.9666666666550667,0.9919028340081011,0.0012338425731286407,0.998072006599465,0
116,91.15,0.6805555555555571,0.7111111111111086,0.6791666666666671,1.0020449897750527,0.03607449174422362,1.0086639698521138,83.33333333333333,0.9999999999879999,1.0470347648261715,0.0031857271678745747,0.9971009081555158,0
117,91.86111111111111,0.7111111111111086,0.7194444444444343,0.6875,1.0343434343434306,0.036131614635544235,1.0102611594324247,80.55555555555556,0.9666666666550667,1.0464646464646317,0.0012387188617140055,0.9980896256004459,0
118,92.58055555555555,0.7194444444444343,0.63333333333334,0.7027777777777757,1.0237154150197514,0.03425415587009482,0.9577663100241834,66.66666666666667,0.7999999999904001,0.9011857707510003,2.2416808860725723e-05,0.9942595914491766,0
119,93.21388888888889,0.63333333333334,1.1138888888888943,0.6875,0.9212121212121308,0.04568991405128261,1.277516823131625,130.55555555555554,1.5666666666478666,1.620202020202028,0.9898325204849243,0.3607313743042809,1
120,94.32777777777778,1.1138888888888943,0.7249999999999943,0.6875,1.620202020202028,0.03783576905318714,1.05791031752253,75.0,0.8999999999892,1.0545454545454462,2.989243330375757e-05,0.9948555893107749,0
121,95.05277777777778,0.7249999999999943,0.7249999999999943,0.7027777777777757,1.0316205533596787,0.033145559161295336,0.9267692951475505,61.111111111111114,0.7333333333245334,1.0316205533596787,6.749364729330409e-06,0.9948935883777442,0
122,95.77777777777777,0.7249999999999943,0.7277777777777885,0.7027777777777757,1.0316205533596787,0.034390934280780563,0.9615907146946786,72.22222222222223,0.8666666666562668,1.0355731225296625,4.9264584959018975e-05,0.9987817064964852,0
123,96.50555555555556,0.7277777777777885,0.7805555555555515,0.7152777777777715,1.017475728155364,0.034644577688243534,0.9686827332908764,83.33333333333333,0.9999999999879999,1.091262135922334,0.0013096043840050697,0.9990816537239122,0
124,97.28611111111111,0.7805555555555515,0.7833333333333314,0.7222222222222143,1.080769230769237,0.0352427461234078,0.9854078739451346,80.55555555555556,0.9666666666550667,1.0846153846153939,0.0004021055647172034,0.9977631257499922,0
125,98.06944444444444,0.7833333333333314,0.8083333333333371,0.7249999999999943,1.0804597701149483,0.037526467248840116,1.049262057470327,61.111111111111114,0.7333333333245334,1.1149425287356463,2.979842247441411e-05,0.9963185500078101,0
126,98.87777777777778,0.8083333333333371,0.7833333333333314,0.7263888888888914,1.1128107074569804,0.03498314397580958,0.9781492454761559,66.66666666666667,0.7999999999904001,1.0783938814531484,4.9869877329911105e-06,0.9972416040319492,0
127,99.66111111111111,0.7833333333333314,0.8138888888888829,0.75416666666667,1.0386740331491642,0.03480594225222859,0.9731945812430706,72.22222222222223,0.8666666666562668,1.0791896869244808,2.9892262318753637e-05,0.9966293058389972,0
128,100.475,0.8138888888888829,0.7805555555555657,0.7819444444444414,1.040852575488451,0.03815638229840178,1.0668748521027613,83.33333333333333,0.9999999999879999,0.9982238010657362,0.0003409405762795359,0.9985420589759035,0
129,101.25555555555556,0.7805555555555657,0.7333333333333343,0.7819444444444485,0.9982238010657271,0.03453287579576401,0.965559482792789,80.55555555555556,0.9666666666550667,0.9378330373001739,4.3496955186128616e-05,0.999704359752873,0
130,101.9888888888889,0.7333333333333343,0.7194444444444343,0.7805555555555586,0.9395017793594282,0.0352210135747689,0.9848002191251986,80.55555555555556,0.9666666666550667,0.9217081850533643,0.0002970205096062273,0.9981973054266475,0
131,102.70833333333333,0.7194444444444343,0.7305555555555543,0.7805555555555586,0.9217081850533643,0.03180638697924598,0.8893252546593651,58.333333333333336,0.6999999999916,0.9359430604982154,7.836256799009789e-08,0.9973235793093655,0
132,103.43888888888888,0.7305555555555543,0.7944444444444514,0.7805555555555586,0.9359430604982154,0.033178756276355456,0.9276975059758995,80.55555555555556,0.9666666666550667,1.0177935943060548,0.00035034571192227304,0.9990523131140415,0
133,104.23333333333333,0.7944444444444514,0.8055555555555571,0.7819444444444485,1.0159857904085292,0.03447807808616526,0.9640273066586227,94.44444444444444,1.1333333333197333,1.0301953818827674,0.008823815733194351,0.9983021519252657,0
134,105.03888888888889,0.8055555555555571,0.7805555555555515,0.7833333333333314,1.0283687943262456,0.03565579840836807,0.9969570583510722,80.55555555555556,0.9666666666550667,0.996453900709217,7.137761713238433e-05,0.99893068016963,0
135,105.81944444444444,0.7805555555555515,0.7388888888888943,0.7819444444444485,0.9982238010657088,0.03488145896907775,0.9753060729848626,88.88888888888889,1.0666666666538667,0.944937833037302,0.0006407152977772057,0.9992734889736936,0
136,106.55833333333334,0.7388888888888943,0.74444444444444,0.7805555555555586,0.9466192170818538,0.03491216431782842,0.9761646125641902,83.33333333333333,0.9999999999879999,0.9537366548042612,0.0003691563324537128,0.9997523879429419,0
137,107.30277777777778,0.74444444444444,0.6888888888888829,0.7624999999999957,0.9763205828779596,0.03667498252996469,1.0254540447920384,83.33333333333333,0.9999999999879999,0.9034608378870645,0.00038788007805123925,0.9991058597229592,0
138,107.99166666666666,0.6888888888888829,0.6916666666666771,0.7416666666666671,0.9288389513108527,0.03290879757307936,0.9201493021294462,61.111111111111114,0.7333333333245334,0.9325842696629348,7.300349125216599e-07,0.9974674438873851,0
139,108.68333333333334,0.6916666666666771,0.7138888888888886,0.7361111111111143,0.9396226415094441,0.03309624782993589,0.925390521370213,75.0,0.8999999999892,0.9698113207547124,6.985364598222077e-05,0.9977877532953392,0
140,109.39722222222223,0.7138888888888886,0.74722222222222,0.7347222222222243,0.9716446124763674,0.03466147671187306,0.9691552399136067,75.0,0.8999999999892,1.0170132325141719,9.596175368642434e-05,0.9984812053985465,0
141,110.14444444444445,0.74722222222222,0.7916666666666714,0.7416666666666671,1.0074906367041163,0.03465556510296239,0.9689899478575377,63.888888888888886,0.7666666666574666,1.0674157303370844,4.027996510558296e-06,0.9984048810721556,0
142,110.93611111111112,0.7916666666666714,0.8611111111111001,0.74583333333333,1.0614525139664914,0.03697047138362922,1.0337160866330586,91.66666666666667,1.0999999999868,1.1545623836126533,0.016864337027072906,0.9977048242884923,0
143,111.79722222222222,0.8611111111111001,0.48611111111111427,0.74583333333333,1.1545623836126533,0.037815789487562874,1.057351677136925,91.66666666666667,1.0999999999868,0.6517690875232846,0.0011176313273608685,0.9980291659281044,0
144,112.28333333333333,0.48611111111111427,1.0916666666666686,0.7416666666666671,0.6554307116104907,0.03712395104234479,1.0380074680043951,113.88888888888889,1.3666666666502667,1.4719101123595522,0.9717469215393066,0.16717479164626137,1
145,113.375,1.0916666666666686,0.74722222222222,0.7416666666666671,1.4719101123595522,0.03565482502481702,0.9969298419754747,83.33333333333333,0.9999999999879999,1.0074906367041163,5.263491402729414e-06,0.9995645660822692,0
146,114.12222222222222,0.74722222222222,0.7750000000000057,0.74583333333333,1.0018621973929251,0.03515624212780084,0.982989171438232,77.77777777777777,0.9333333333221333,1.039106145251409,0.00014673724945168942,0.9987180237344093,0
147,114.89722222222223,0.7750000000000057,0.7833333333333314,0.74722222222222,1.0371747211896019,0.03979638689865716,1.1127303436339537,91.66666666666667,1.0999999999868,1.048327137546469,0.008104728534817696,0.9980363939034722,0
148,115.68055555555556,0.7833333333333314,0.7861111111111114,0.7611111111111128,1.0291970802919659,0.03830922606675412,1.0711484536061868,80.55555555555556,0.9666666666550667,1.0328467153284653,0.00042763364035636187,0.9979113458393889,0
149,116.46666666666667,0.7861111111111114,0.8527777777777743,0.7791666666666686,1.0089126559714774,0.03864834548337104,1.0806304316044917,88.88888888888889,1.0666666666538667,1.0944741532976756,0.0085375951603055,0.9992441474892476,0
150,117.31944444444444,0.8527777777777743,0.50555555555556,0.7847222222222214,1.0867256637168108,0.035813860304844874,1.001376561780616,83.33333333333333,0.9999999999879999,0.6442477876106257,3.192945587215945e-05,0.9992252079796375,0
151,117.825,0.50555555555556,1.24722222222222,0.7847222222222214,0.6442477876106257,0.031242348209992853,0.8735543995027859,122.22222222222223,1.4666666666490669,1.5893805309734501,0.9672356247901917,0.1841848743722525,1
152,119.07222222222222,1.24722222222222,0.7611111111111057,0.7847222222222214,1.5893805309734501,0.03891738360210152,1.08815289536654,86.11111111111111,1.0333333333209334,0.9699115044247729,7.775222911732271e-06,0.9986506787266489,0
153,119.83333333333333,0.7611111111111057,0.75,0.7791666666666686,0.9768270944741441,0.03367412595062701,0.9415483329185993,75.0,0.8999999999892,0.9625668449197837,1.1781160537793767e-05,0.9989477239739135,0
154,120.58333333333333,0.75,0.8333333333333428,0.7791666666666686,0.9625668449197837,0.03441268825312629,0.962198968534036,83.33333333333333,0.9999999999879999,1.0695187165775497,0.0013859655009582639,0.9992708630286553,0
155,121.41666666666667,0.8333333333333428,0.8249999999999886,0.7791666666666686,1.0695187165775497,0.036525770913176395,1.0212820003789154,88.88888888888889,1.0666666666538667,1.0588235294117476,0.0014968813629820943,0.9994067248762241,0
156,122.24166666666666,0.8249999999999886,0.8500000000000085,0.7847222222222214,1.0513274336283052,0.037012204886977235,1.0348829798899701,88.88888888888889,1.0666666666538667,1.0831858407079766,0.0036084363237023354,0.9978997016839644,0
157,123.09166666666667,0.8500000000000085,0.86666666666666,0.80555555555555,1.0551724137931213,0.03653186331167426,1.0214523474179908,94.44444444444444,1.1333333333197333,1.0758620689655163,0.010472632944583893,0.9984516067796508,0
158,123.95833333333333,0.86666666666666,0.49444444444445423,0.8291666666666657,1.0452261306532595,0.037839070543030914,1.05800262911699,91.66666666666667,1.0999999999868,0.5963149078727094,0.0007716840482316911,0.9975487813225208,0
159,124.45277777777778,0.49444444444445423,1.1444444444444457,0.8291666666666657,0.5963149078727094,0.037166501789684725,1.0391972118831552,108.33333333333333,1.2999999999843999,1.3802345058626497,0.9612411260604858,0.1748817377607358,1
160,125.59722222222223,1.1444444444444457,0.75,0.8291666666666657,1.3802345058626497,0.035639273565634316,0.996495014045883,80.55555555555556,0.9666666666550667,0.9045226130653277,1.2858710363161663e-07,0.9994768829922944,0
161,126.34722222222223,0.75,0.7638888888888857,0.8291666666666657,0.9045226130653277,0.03875716951859352,1.0836732155239746,83.33333333333333,0.9999999999879999,0.9212730318257929,0.005958616733551025,0.998291975291136,0
162,127.11111111111111,0.7638888888888857,0.44722222222222285,0.7944444444444372,0.9615384615384663,0.03894688382191611,1.0889777388332387,83.33333333333333,0.9999999999879999,0.5629370629370689,0.00044396353769116104,0.9982160343190942,0
163,127.55833333333334,0.44722222222222285,1.25555555555556,0.7944444444444372,0.5629370629370689,0.03950247161239502,1.1045122996614047,113.88888888888889,1.3666666666502667,1.5804195804196004,0.9673365354537964,0.15976371358080454,1
164,128.8138888888889,1.25555555555556,0.8611111111111143,0.8291666666666657,1.5142378559464058,0.03626746470795086,1.0140596072195733,88.88888888888889,1.0666666666538667,1.0385259631490837,1.8066708662445308e-06,0.9969624381851021,0
165,129.675,0.8611111111111143,0.8444444444444343,0.8374999999999986,1.028192371475959,0.03806554947427141,1.0643351130087273,97.22222222222223,1.1666666666526668,1.0082918739635054,0.027444995939731598,0.9972455966857791,0
166,130.51944444444445,0.8444444444444343,0.46944444444443434,0.8472222222222214,0.9967213114753989,0.035540804264133606,0.9937417545609126,88.88888888888889,1.0666666666538667,0.5540983606557263,0.00013319146819412708,0.998791976600003,0
167,130.98888888888888,0.46944444444443434,1.0527777777777771,0.80416666666666,0.5837651122625138,0.03741058650486483,1.0460219638308583,113.88888888888889,1.3666666666502667,1.309153713298801,0.9608205556869507,0.16967260805243917,1
168,132.04166666666666,1.0527777777777771,0.7583333333333542,0.80416666666666,1.309153713298801,0.03906988506561105,1.0924169258255807,86.11111111111111,1.0333333333209334,0.9430051813471839,4.217982495902106e-05,0.999004787977147,0
169,132.8,0.7583333333333542,0.7666666666666515,0.80416666666666,0.9430051813471839,0.03651390954948937,1.0209503496859758,91.66666666666667,1.0999999999868,0.9533678756476575,0.011368544772267342,0.998045718696748,0
170,133.56666666666666,0.7666666666666515,0.7833333333333314,0.7652777777777686,1.00181488203266,0.038577908695002223,1.0786609776456262,80.55555555555556,0.9666666666550667,1.0235934664246922,0.0005795150646008551,0.9983620352111068,0
171,134.35,0.7833333333333314,0.8111111111111029,0.7749999999999915,1.0107526881720517,0.03784585332996866,1.0581922798221974,83.33333333333333,0.9999999999879999,1.046594982078854,0.0009931845124810934,0.99900465488748,0
172,135.1611111111111,0.8111111111111029,0.8777777777777942,0.7972222222222172,1.0174216027874525,0.03822561410757571,1.0688106141358495,88.88888888888889,1.0666666666538667,1.101045296167275,0.009820234961807728,0.9976764536857523,0
173,136.0388888888889,0.8777777777777942,0.7805555555555657,0.8277777777777686,1.06040268456379,0.034446531057210975,0.9631452332066202,86.11111111111111,1.0333333333209334,0.9429530201342509,4.952936797053553e-05,0.9993316542079884,0
174,136.81944444444446,0.7805555555555657,0.7055555555555486,0.7972222222222172,0.9790940766550712,0.03341427575144393,0.9342827687816676,83.33333333333333,0.9999999999879999,0.8850174216027844,7.395624561468139e-05,0.9989043071542381,0
175,137.525,0.7055555555555486,0.6805555555555429,0.7819444444444485,0.9023090586145512,0.03346635983907647,0.9357390704523898,86.11111111111111,1.0333333333209334,0.8703374777974926,0.0006447502528317273,0.9994705502590044,0
176,138.20555555555555,0.6805555555555429,0.7305555555555543,0.7736111111111086,0.8797127468581553,0.038651210028393744,1.0807105259652081,86.11111111111111,1.0333333333209334,0.944344703770199,0.01376240886747837,0.9977805027953593,0
177,138.9361111111111,0.7305555555555543,0.7527777777777942,0.7736111111111086,0.944344703770199,0.031819584219878946,0.8896942572560564,66.66666666666667,0.7999999999904001,0.9730700179533458,5.622288881568238e-06,0.9933242062284231,0
178,139.6888888888889,0.7527777777777942,0.8194444444444287,0.7625000000000028,0.9872495446266116,0.03062820346164092,0.8563825517515093,69.44444444444444,0.8333333333233334,1.0746812386156401,3.125921284663491e-05,0.9907230228036235,0
179,140.50833333333333,0.8194444444444287,0.830555555555577,0.7736111111111086,1.059245960502676,0.035768162948571505,1.0000988368685853,94.44444444444444,1.1333333333197333,1.0736086175942863,0.057967618107795715,0.9887459015898867,0
180,141.3388888888889,0.830555555555577,0.8222222222221944,0.7819444444444485,1.0621669626998442,0.028659838503018363,0.8013459118077205,94.44444444444444,1.1333333333197333,1.0515097690940975,0.0012415797682479024,0.9944328321113924,0
181,142.1611111111111,0.8222222222221944,0.8194444444444571,0.7958333333333343,1.0331588132634892,0.030704971017348214,0.8585290176821891,94.44444444444444,1.1333333333197333,1.0296684118673793,0.0018180081387981772,0.9970465074012049,0
182,142.98055555555555,0.8194444444444571,0.44999999999998863,0.7999999999999972,1.024305555555575,0.029096625925641183,0.8135587445984903,63.888888888888886,0.7666666666574666,0.5624999999999878,2.1622911794416666e-10,0.9968161685300809,0
183,143.43055555555554,0.44999999999998863,1.0472222222222456,0.7666666666666799,0.5869565217391054,0.04467235609152283,1.2490653051303973,94.44444444444444,1.1333333333197333,1.3659420289855142,0.9788338541984558,0.165453235647521,1
184,144.4777777777778,1.0472222222222456,0.7249999999999943,0.7861111111111114,1.3321554770318313,0.028648221089983786,0.801021082118256,55.55555555555556,0.6666666666586667,0.9222614840989324,2.678140514057411e-15,0.9896687095812318,0
185,145.20277777777778,0.7249999999999943,0.7333333333333201,0.7861111111111114,0.9222614840989324,0.04029328404876301,1.126623879697819,80.55555555555556,0.9666666666550667,0.9328621908127036,0.010467708110809326,0.9907543355286662,0
186,145.9361111111111,0.7333333333333201,0.8027777777777771,0.7861111111111114,0.9328621908127036,0.03822372727605149,1.068757857218603,94.44444444444444,1.1333333333197333,1.0212014134275607,0.5076698064804077,0.9821612665956616,1
187,146.73888888888888,0.8027777777777771,0.8027777777777771,0.8111111111111029,0.9897260273972696,0.0277370847724921,0.7755451757189715,63.888888888888886,0.7666666666574666,0.9897260273972696,1.551353989270865e-06,0.9818396096420376,0
188,147.54166666666666,0.8027777777777771,0.5444444444444514,0.8111111111111029,0.9897260273972696,0.02965429223947806,0.829151422160124,55.55555555555556,0.6666666666586667,0.6712328767123441,2.40491487835115e-10,0.9888931039744571,0
189,148.0861111111111,0.5444444444444514,0.9916666666666742,0.8027777777777771,0.6782006920415317,0.02759739107446945,0.7716392579028624,141.66666666666666,1.6999999999795998,1.2352941176470693,0.9018436670303345,0.18238502071104856,1
190,149.07777777777778,0.9916666666666742,0.7166666666666686,0.8027777777777771,1.2352941176470693,0.038617138235642556,1.0797578586350607,105.55555555555556,1.2666666666514668,0.8927335640138438,0.036612071096897125,0.9862614115158136,0
191,149.79444444444445,0.7166666666666686,0.7249999999999943,0.7680555555555486,0.9330922242314756,0.025641980791151445,0.7169648382867632,44.44444444444444,0.5333333333269333,0.9439421338155527,9.506521958524417e-11,0.9752255622329776,0
192,150.51944444444445,0.7249999999999943,0.6972222222222229,0.7291666666666572,0.9942857142857194,0.030373933697101292,0.8492730198436906,97.22222222222223,1.1666666666526668,0.9561904761904895,0.009218084625899792,0.9935642736060186,0
193,151.21666666666667,0.6972222222222229,0.75,0.7291666666666572,0.9561904761904895,0.03566326291237301,0.9971657702657398,69.44444444444444,0.8333333333233334,1.028571428571442,0.00041055490146391094,0.9919932787989734,0
194,151.96666666666667,0.75,0.7833333333333314,0.7291666666666572,1.028571428571442,0.038709393006278806,1.0823373561882772,88.88888888888889,1.0666666666538667,1.0742857142857256,0.007745467126369476,0.9963371949847606,0
195,152.75,0.7833333333333314,0.8138888888888971,0.74166666666666,1.0561797752809057,0.03234134575662318,0.9042830161691421,111.11111111111111,1.3333333333173334,1.097378277153579,0.33086878061294556,0.9899420392558864,0
196,153.5638888888889,0.8138888888888971,0.8333333333333144,0.7666666666666657,1.0615942028985628,0.03860022316491743,1.0792849033261154,111.11111111111111,1.3333333333173334,1.086956521739107,0.6870303750038147,0.9830269592736536,1
197,154.3972222222222,0.8333333333333144,0.7972222222222456,0.7666666666666657,1.086956521739107,0.03189237265020245,0.8917294645047119,105.55555555555556,1.2666666666514668,1.0398550724637998,0.09401456266641617,0.9904847485585011,0
198,155.19444444444446,0.7972222222222456,0.4388888888888687,0.7666666666666657,1.0398550724637998,0.03422355131865146,0.9569105887967501,105.55555555555556,1.2666666666514668,0.5724637681159164,0.014305932447314262,0.9885891562935607,0
199,155.63333333333333,0.4388888888888687,1.1333333333333542,0.7666666666666657,0.5724637681159164,0.039436696308897484,1.1026731835564723,108.33333333333333,1.2999999999843999,1.4782608695652464,0.9650837182998657,0.15520405090999984,1
200,156.76666666666668,1.1333333333333542,0.7972222222222172,0.7666666666666657,1.4782608695652464,0.04014016932992093,1.1223427022596149,108.33333333333333,1.2999999999843999,1.0398550724637627,0.02716703899204731,0.9902828809238564,0
201,157.5638888888889,0.7972222222222172,0.625,0.7902777777777743,1.0087873462214392,0.0327082696359486,0.9145424232698166,108.33333333333333,1.2999999999843999,0.7908611599297047,0.19384106993675232,0.977700142834802,0
202,158.1888888888889,0.625,1.0972222222222001,0.7902777777777743,0.7908611599297047,0.04784055493674804,1.337650005010956,141.66666666666666,1.6999999999795998,1.388400702987676,0.9860275983810425,0.225439243084313,1
203,159.2861111111111,1.0972222222222001,0.830555555555577,0.7972222222222314,1.3763066202090157,0.03886533487856976,1.0866975824968392,105.55555555555556,1.2666666666514668,1.0418118466899104,0.012957426719367504,0.9938988734023538,0
204,160.11666666666667,0.830555555555577,0.8222222222222229,0.8055555555555713,1.031034482758627,0.040557607885569585,1.1340145293693433,88.88888888888889,1.0666666666538667,1.0206896551723945,0.0062794615514576435,0.9957599712524143,0
205,160.9388888888889,0.8222222222222229,0.44722222222222285,0.81805555555556,1.0050933786078051,0.035979122400099116,1.005997386995483,80.55555555555556,0.9666666666550667,0.5466893039049214,5.003591286367737e-05,0.9963854902147349,0
206,161.38611111111112,0.44722222222222285,0.40833333333333144,0.8097222222222342,0.5523156089193751,0.038482769849157536,1.0760008396562333,77.77777777777777,0.9333333333221333,0.5042881646655133,0.9960327744483948,0.2630937303704949,1
207,161.79444444444445,0.40833333333333144,1.2583333333333258,0.7972222222222314,0.5121951219512112,0.03848559226952346,1.076079756186813,41.666666666666664,0.49999999999399997,1.5783972125435264,0.9148996472358704,0.8525179374786455,1
208,163.05277777777778,1.2583333333333258,0.8111111111111029,0.80972222222222,1.5540308747855867,0.03407156202838624,0.9526608790023363,83.33333333333333,0.9999999999879999,1.0017152658662019,1.0728763299994171e-07,0.9921747165421836,0
209,163.86388888888888,0.8111111111111029,0.8166666666666629,0.8166666666666629,0.9931972789115592,0.03371928876040491,0.9428111115967647,91.66666666666667,1.0999999999868,1.0,0.05011219531297684,0.9853882926176345,0
210,164.68055555555554,0.8166666666666629,0.7888888888888914,0.8138888888888829,1.0034129692832792,0.033175064680313435,0.9275942867830905,100.0,1.1999999999856,0.9692832764505221,0.149026021361351,0.9860455050755196,0
211,165.46944444444443,0.7888888888888914,0.8000000000000114,0.8138888888888829,0.9692832764505221,0.03697444960009386,1.0338273199011696,83.33333333333333,0.9999999999879999,0.9829351535836389,0.004912948235869408,0.9905022995484041,0
212,166.26944444444445,0.8000000000000114,0.7527777777777658,0.8138888888888829,0.9829351535836389,0.03678186767625827,1.0284426162386746,75.0,0.8999999999892,0.9249146757679102,6.058619328541681e-05,0.9964173911487069,0
213,167.0222222222222,0.7527777777777658,0.7333333333333485,0.8055555555555571,0.934482758620673,0.03556271208682936,0.9943543101463881,80.55555555555556,0.9666666666550667,0.9103448275862239,0.0003517899021971971,0.9981070925338554,0
214,167.75555555555556,0.7333333333333485,0.73888888888888,0.7944444444444514,0.9230769230769341,0.04412410381674059,1.2337358496280657,91.66666666666667,1.0999999999868,0.9300699300699108,0.07594199478626251,0.9956359185234975,0
215,168.49444444444444,0.73888888888888,0.47222222222222854,0.7708333333333286,0.958558558558553,0.030535116107632723,0.8537797746783724,58.333333333333336,0.6999999999916,0.6126126126126246,8.939711193534094e-09,0.9922483279420244,0
216,168.96666666666667,0.47222222222222854,1.1388888888888857,0.7708333333333286,0.6126126126126246,0.04883071673604817,1.3653355102804212,97.22222222222223,1.1666666666526668,1.4774774774774824,0.713353157043457,0.9763761044684937,1
217,170.10555555555555,1.1388888888888857,0.8527777777777885,0.7944444444444514,1.433566433566417,0.03500617108110493,0.9787930968602888,66.66666666666667,0.7999999999904001,1.0734265734265775,5.144923931332812e-10,0.9926039430083331,0
218,170.95833333333334,0.8527777777777885,0.88055555555556,0.7944444444444514,1.0734265734265775,0.02956204021905599,0.8265720015045107,66.66666666666667,0.7999999999904001,1.1083916083916043,5.782244443253148e-07,0.9895989948774495,0
219,171.8388888888889,0.88055555555556,0.6555555555555372,0.7944444444444514,1.1083916083916043,0.04684369853314946,1.3097773146746534,94.44444444444444,1.1333333333197333,0.8251748251747949,0.013488374650478363,0.9911820702126004,0
220,172.49444444444444,0.6555555555555372,0.9861111111111143,0.7708333333333286,0.8504504504504319,0.041458019500631355,1.1591905667918134,97.22222222222223,1.1666666666526668,1.2792792792792913,0.9802696108818054,0.9241231220095723,1
221,173.48055555555555,0.9861111111111143,0.74444444444444,0.7763888888888886,1.2701252236136003,0.0386850246513827,1.0816560026778095,91.66666666666667,1.0999999999868,0.9588550983899768,0.0007636430091224611,0.9952686889617031,0
222,174.225,0.74444444444444,0.5722222222222229,0.7486111111111029,0.9944341372912852,0.03527923567798375,0.9864281433154607,69.44444444444444,0.8333333333233334,0.7643784786642022,0.00010717976692831144,0.9895703205232335,0
223,174.79722222222222,0.5722222222222229,1.0277777777777715,0.74166666666666,0.7715355805243523,0.04736713249532752,1.3244128355848126,91.66666666666667,1.0999999999868,1.3857677902621761,0.9941601753234863,0.21468162432002225,1
224,175.825,1.0277777777777715,0.7888888888888914,0.7986111111111143,1.2869565217391175,0.03175432102778293,0.8878694600865903,69.44444444444444,0.8333333333233334,0.987826086956521,7.798927614821594e-10,0.9952000177417304,0
225,176.61388888888888,0.7888888888888914,0.8611111111111143,0.82083333333334,0.9610829103214843,0.035858996672400646,1.0026386011187252,75.0,0.8999999999892,1.0490693739424657,0.00016421879990957677,0.9967316088562092,0
226,177.475,0.8611111111111143,0.8722222222222342,0.8569444444444514,1.0048622366288449,0.036222188674096434,1.0127936627297505,91.66666666666667,1.0999999999868,1.017828200972453,0.029374582692980766,0.9920217177968584,0
227,178.34722222222223,0.8722222222222342,0.7888888888888914,0.8569444444444514,1.017828200972453,0.04429640997832881,1.2385536310734655,102.77777777777777,1.2333333333185332,0.9205834683954573,0.20324857532978058,0.9909854016955688,0
228,179.13611111111112,0.7888888888888914,0.7666666666666515,0.8250000000000028,0.956228956228956,0.041403059639806054,1.1576538568141477,86.11111111111111,1.0333333333209334,0.9292929292929077,0.007418994326144457,0.9963571590439124,0
229,179.90277777777777,0.7666666666666515,0.7583333333333258,0.7888888888888914,0.9718309859154707,0.031073462830250555,0.8688322651262669,69.44444444444444,0.8333333333233334,0.9612676056337901,8.038383043640351e-07,0.9958956391313112,0
230,180.6611111111111,0.7583333333333258,0.8111111111111313,0.7888888888888914,0.9612676056337901,0.03499147672024727,0.9783822339030998,77.77777777777777,0.9333333333221333,1.0281690140845294,0.00023980984406080097,0.997754240775371,0
231,181.47222222222223,0.8111111111111313,0.8527777777777601,0.7888888888888914,1.0281690140845294,0.03598099608994287,1.0060497764636276,83.33333333333333,0.9999999999879999,1.0809859154929318,0.001144945970736444,0.9972834025319128,0
232,182.325,0.8527777777777601,0.8722222222222342,0.8000000000000114,1.065972222222185,0.03831074005370591,1.0711907855702774,75.0,0.8999999999892,1.0902777777777772,0.00011462483962532133,0.9968993237226154,0
233,183.19722222222222,0.8722222222222342,0.9083333333333314,0.8319444444444457,1.0484140233723,0.03625017819927939,1.0135762662875631,88.88888888888889,1.0666666666538667,1.0918196994991614,0.004043688997626305,0.9971144391605395,0
234,184.10555555555555,0.9083333333333314,0.8722222222222342,0.8319444444444457,1.0918196994991614,0.03712894284627537,1.0381470417731689,94.44444444444444,1.1333333333197333,1.0484140233723,0.008254572749137878,0.9954041026412682,0
235,184.9777777777778,0.8722222222222342,0.794444444444423,0.8569444444444372,1.01782820097247,0.03676936577950713,1.0280930558651815,72.22222222222223,0.8666666666562668,0.9270664505672438,5.195734047447331e-06,0.9967390362742743,0
236,185.7722222222222,0.794444444444423,0.7638888888888857,0.8319444444444457,0.9549248747912916,0.03213843445263772,0.8986094969728913,72.22222222222223,0.8666666666562668,0.9181969949916475,2.6361822165199555e-06,0.9966040731576873,0
237,186.5361111111111,0.7638888888888857,0.7833333333333599,0.8027777777777771,0.9515570934256024,0.034465496876940824,0.9636755286618089,83.33333333333333,0.9999999999879999,0.9757785467128366,0.00039381804526783526,0.9990377194707538,0
238,187.31944444444446,0.7833333333333599,0.4805555555555543,0.8027777777777771,0.9757785467128366,0.03533768663322171,0.9880624663426564,94.44444444444444,1.1333333333197333,0.5986159169550161,0.0016782935708761215,0.9962675883111604,0
239,187.8,0.4805555555555543,1.2583333333333258,0.8027777777777771,0.5986159169550161,0.039335098540542436,1.0998324503014147,111.11111111111111,1.3333333333173334,1.5674740484428984,0.9687927961349487,0.15810028188092523,1
240,189.05833333333334,1.2583333333333258,0.8472222222222285,0.8319444444444457,1.5125208681135112,0.03641003452923352,1.018045943130712,69.44444444444444,0.8333333333233334,1.0183639398998392,3.1312428344643095e-11,0.9946390960386331,0
241,189.90555555555557,0.8472222222222285,0.8027777777777771,0.8499999999999943,0.996732026143805,0.03537310365128989,0.989052746962499,91.66666666666667,1.0999999999868,0.94444444444445,0.008107197470963001,0.9943714930138282,0
242,190.70833333333334,0.8027777777777771,0.7833333333333314,0.8250000000000028,0.973063973063969,0.034620683835906454,0.9680146471505571,86.11111111111111,1.0333333333209334,0.949494949494944,0.0008908601594157517,0.9964705373144823,0
243,191.49166666666667,0.7833333333333314,0.7333333333333201,0.7986111111111001,0.9808695652174025,0.03391817325527295,0.948372038845802,77.77777777777777,0.9333333333221333,0.9182608695652135,2.1582820409093983e-05,0.9984636348525084,0
244,192.225,0.7333333333333201,0.44722222222222285,0.7888888888888914,0.9295774647887126,0.03589823359910523,1.003735688626853,75.0,0.8999999999892,0.5669014084507032,3.034584369743243e-05,0.9980869149121181,0
245,192.67222222222222,0.44722222222222285,1.0250000000000057,0.7833333333333456,0.5709219858155946,0.03930499706949404,1.0989907954972018,94.44444444444444,1.1333333333197333,1.308510638297859,0.9621298313140869,0.18576372532817015,1
246,193.69722222222222,1.0250000000000057,0.7750000000000057,0.7833333333333456,1.308510638297859,0.036029714986784984,1.0074119854240202,80.55555555555556,0.9666666666550667,0.9893617021276513,1.9862861790898023e-06,0.9990795662033288,0
247,194.47222222222223,0.7750000000000057,0.7944444444444514,0.7833333333333456,0.9893617021276513,0.03626873700600731,1.0140951814202455,86.11111111111111,1.0333333333209334,1.0141843971631135,0.0021644546650350094,0.9976666842115632,0
248,195.26666666666668,0.7944444444444514,0.799999999999983,0.7888888888888914,1.0070422535211323,0.037233532944940924,1.0410714423406173,100.0,1.1999999999856,1.0140845070422286,0.0641961321234703,0.9956586085609052,0
249,196.06666666666666,0.799999999999983,0.7472222222222342,0.7972222222222172,1.0034843205574762,0.036440308915190685,1.0188924327372988,97.22222222222223,1.1666666666526668,0.9372822299651777,0.07090812921524048,0.9878927899139297,0
250,196.8138888888889,0.7472222222222342,0.6972222222222229,0.7888888888888914,0.9471830985915615,0.03659146745269453,1.0231189141967385,88.88888888888889,1.0666666666538667,0.8838028169014064,0.006536814849823713,0.9936247722379656,0
251,197.51111111111112,0.6972222222222229,0.6916666666666629,0.7791666666666686,0.8948306595365405,0.03655621236472162,1.022133161237435,86.11111111111111,1.0333333333209334,0.8877005347593513,0.005343560129404068,0.9970719287560355,0
252,198.20277777777778,0.6916666666666629,0.44999999999998863,0.76111111111112,0.9087591240875758,0.03985539831856574,1.1143803375824102,80.55555555555556,0.9666666666550667,0.5912408759123869,0.0008526763413101435,0.9976636487015174,0
253,198.65277777777777,0.44999999999998863,0.9638888888889028,0.7402777777777771,0.6078799249530809,0.03277814102517676,0.9164960683367426,50.0,0.5999999999928,1.3020637898686878,0.922059953212738,0.8980630545517492,1
254,199.61666666666667,0.9638888888889028,0.7166666666666686,0.76111111111112,1.2664233576642372,0.03814566129744272,1.0665750866212453,75.0,0.8999999999892,0.9416058394160499,1.7131589629570954e-05,0.995646628221735,0
255,200.33333333333334,0.7166666666666686,0.75,0.76111111111112,0.9416058394160499,0.036020458949242495,1.0071531811797663,83.33333333333333,0.9999999999879999,0.9854014598540032,0.0016716818790882826,0.998072481059892,0
256,201.08333333333334,0.75,0.75555555555556,0.7486111111111171,1.0018552875695652,0.034656035549300135,0.9690031018133578,88.88888888888889,1.0666666666538667,1.0092764378478642,0.0024932767264544964,0.997325525747548,0
257,201.8388888888889,0.75555555555556,0.7333333333333201,0.7486111111111171,1.0092764378478642,0.036586629045009415,1.0229836294770525,77.77777777777777,0.9333333333221333,0.9795918367346683,0.0001064654061337933,0.99878660738669,0
258,202.57222222222222,0.7333333333333201,0.4777777777777885,0.7402777777777771,0.9906191369605833,0.036775127320242205,1.0282541519269504,77.77777777777777,0.9333333333221333,0.6454033771107093,0.0004327308852225542,0.9930485949336298,0
259,203.05,0.4777777777777885,0.8722222222222058,0.7249999999999943,0.6590038314176445,0.03373081916829809,0.9431335085713918,58.333333333333336,0.6999999999916,1.2030651340996037,0.3382306396961212,0.9796485216254485,0
260,203.92222222222222,0.8722222222222058,0.6500000000000057,0.7249999999999943,1.2030651340996037,0.03428426134340467,0.9586080767339765,77.77777777777777,0.9333333333221333,0.8965517241379459,1.3547729395213537e-05,0.9971421689420514,0
261,204.57222222222222,0.6500000000000057,0.7027777777777828,0.7249999999999943,0.8965517241379459,0.034660697519553765,0.9691334532388663,83.33333333333333,0.9999999999879999,0.969348659003846,0.0016333822859451175,0.9995803412493348,0
262,205.275,0.7027777777777828,0.6916666666666629,0.7249999999999943,0.969348659003846,0.034801150074397436,0.9730605891372446,86.11111111111111,1.0333333333209334,0.9540229885057494,0.0012101802276447415,0.9979941517820398,0
263,205.96666666666667,0.6916666666666629,0.7222222222222285,0.7249999999999943,0.9540229885057494,0.035281169292773785,0.9864822083202875,86.11111111111111,1.0333333333209334,0.9961685823754954,0.0033521531149744987,0.9959537399431742,0
264,206.6888888888889,0.7222222222222285,0.7055555555555486,0.7194444444444485,1.003861003861007,0.038766795540869085,1.0839423647585968,83.33333333333333,0.9999999999879999,0.9806949806949654,0.0008724161889404058,0.9989388581545624,0
265,207.39444444444445,0.7055555555555486,0.7305555555555543,0.7138888888888886,0.988326848249018,0.037801918279314124,1.0569638300099846,80.55555555555556,0.9666666666550667,1.023346303501944,0.0008512962376698852,0.9986706271070213,0
266,208.125,0.7305555555555543,0.6916666666666629,0.7138888888888886,1.023346303501944,0.036490113136403796,1.020284988004339,77.77777777777777,0.9333333333221333,0.9688715953307344,0.0001865899539552629,0.9986245487901555,0
267,208.81666666666666,0.6916666666666629,0.6888888888888971,0.7041666666666657,0.9822485207100551,0.042882704188362215,1.1990255871464448,94.44444444444444,1.1333333333197333,0.9783037475345298,0.037817731499671936,0.9944531116466306,0
268,209.50555555555556,0.6888888888888971,0.6555555555555372,0.6972222222222229,0.9880478087649511,0.041867618666310245,1.170643199955188,100.0,1.1999999999856,0.940239043824674,0.111551932990551,0.9892910658516743,0
269,210.1611111111111,0.6555555555555372,1.88611111111112,0.6972222222222229,0.940239043824674,0.0436265893829562,1.2198250539501185,108.33333333333333,1.2999999999843999,2.705179282868536,0.7098642587661743,0.9859670509523717,1
270,212.04722222222222,1.88611111111112,1.1694444444444514,0.6972222222222229,2.705179282868536,0.042939589284627565,1.200616127837392,127.77777777777777,1.5333333333149333,1.677290836653395,0.034645095467567444,0.9581964318474868,0
271,213.21666666666667,1.1694444444444514,0.8055555555555429,0.7041666666666657,1.660749506903365,0.03446468162271947,0.9636527336751136,86.11111111111111,1.0333333333209334,1.1439842209072815,2.7548980142455548e-05,0.9982672899728149,0
272,214.0222222222222,0.8055555555555429,0.8166666666666913,0.7138888888888886,1.1284046692606833,0.038575660242823134,1.0785981096025485,88.88888888888889,1.0666666666538667,1.1439688715953658,0.006691465619951487,0.9986560454555129,0
273,214.8388888888889,0.8166666666666913,0.7666666666666515,0.7263888888888914,1.124282982791617,0.03753096813318889,1.0493879048393562,91.66666666666667,1.0999999999868,1.0554493307839143,0.003873211797326803,0.9980301534538294,0
274,215.60555555555555,0.7666666666666515,0.7472222222222342,0.7486111111111029,1.0241187384044437,0.035781271902156686,1.000465370907584,97.22222222222223,1.1666666666526668,0.9981447124304537,0.01488808635622263,0.9962904584104562,0
275,216.3527777777778,0.7472222222222342,0.75,0.7569444444444429,0.9871559633027702,0.03656328820002485,1.0223310057470008,91.66666666666667,1.0999999999868,0.9908256880733965,0.00508921779692173,0.9982070016776674,0
276,217.1027777777778,0.75,0.6333333333333258,0.7583333333333258,0.9890109890109989,0.03813416317240983,1.0662535922943464,83.33333333333333,0.9999999999879999,0.8351648351648335,0.0004207438323646784,0.9985028836316376,0
277,217.73611111111111,0.6333333333333258,0.924999999999983,0.7583333333333258,0.8351648351648335,0.04603215822382521,1.2870861711402728,147.22222222222223,1.7666666666454667,1.2197802197802095,0.9856294989585876,0.23697736894115407,1
278,218.6611111111111,0.924999999999983,0.8583333333333485,0.7861111111110972,1.176678445229681,0.04282051393009442,1.19728671101105,130.55555555555554,1.5666666666478666,1.0918727915194733,0.5508154630661011,0.9778256389619768,1
279,219.51944444444445,0.8583333333333485,0.8361111111111086,0.8111111111111171,1.0582191780822026,0.038881355953843365,1.087145541168062,94.44444444444444,1.1333333333197333,1.0308219178082085,0.011764807626605034,0.9968273152661913,0
280,220.35555555555555,0.8361111111111086,0.48888888888888005,0.8111111111111171,1.0308219178082085,0.034307377297131375,0.9592544123724164,88.88888888888889,1.0666666666538667,0.6027397260273819,6.441480945795774e-05,0.9988275677999863,0
281,220.84444444444443,0.48888888888888005,1.01111111111112,0.7861111111110972,0.6219081272084803,0.04479471956831979,1.252486659785815,105.55555555555556,1.2666666666514668,1.2862190812721188,0.7950128316879272,0.9727412830304413,1
282,221.85555555555555,1.01111111111112,0.7055555555555486,0.7916666666666714,1.2771929824561439,0.03648035216875631,1.020012065617886,83.33333333333333,0.9999999999879999,0.8912280701754245,6.361788109643385e-06,0.9996099299142993,0
283,222.5611111111111,0.7055555555555486,0.7722222222222399,0.7583333333333258,0.9304029304029305,0.031559340214500894,0.882417682066695,61.111111111111114,0.7333333333245334,1.0183150183150518,4.1280239315710787e-07,0.9980084238506732,0
284,223.33333333333334,0.7722222222222399,0.7777777777777715,0.76111111111112,1.014598540145997,0.03597176571262245,1.005791689694249,80.55555555555556,0.9666666666550667,1.021897810218958,0.00018632628780324012,0.9992939738162145,0
285,224.11111111111111,0.7777777777777715,0.4805555555555543,0.7750000000000057,1.0035842293906654,0.035663194217217274,0.997163849508852,91.66666666666667,1.0999999999868,0.6200716845878075,0.00042387706344015896,0.9988856399956705,0
286,224.59166666666667,0.4805555555555543,1.1333333333333258,0.7750000000000057,0.6200716845878075,0.03651527922513516,1.02098864662122,111.11111111111111,1.3333333333173334,1.462365591397829,0.9659198522567749,0.1715512253461618,1
287,225.725,1.1333333333333258,0.8305555555555486,0.80694444444444,1.4044750430292583,0.03764352536659116,1.0525350711718462,86.11111111111111,1.0333333333209334,1.0292598967297732,1.1999584785371553e-05,0.9968652692904824,0
288,226.55555555555554,0.8305555555555486,0.76111111111112,0.80416666666666,1.0328151986183074,0.038235802395856604,1.0690954846581084,91.66666666666667,1.0999999999868,0.9464594127806751,0.003284915117546916,0.9976171156006801,0
289,227.31666666666666,0.76111111111112,0.7138888888889028,0.7750000000000057,0.9820788530465991,0.03814297006585318,1.066499838205879,91.66666666666667,1.0999999999868,0.9211469534050291,0.004361454397439957,0.9980016312576232,0
290,228.03055555555557,0.7138888888889028,0.7166666666666686,0.7666666666666799,0.9311594202898571,0.03365049725461496,0.9408876607048111,77.77777777777777,0.9333333333221333,0.9347826086956385,0.0001044907548930496,0.9981010285226448,0
291,228.74722222222223,0.7166666666666686,0.46944444444443434,0.7666666666666799,0.9347826086956385,0.03446380454284061,0.9636282100067344,83.33333333333333,0.9999999999879999,0.6123188405796863,6.667677371297032e-05,0.9994754155567446,0
292,229.21666666666667,0.46944444444443434,1.0805555555555486,0.7388888888888943,0.6353383458646433,0.03882865202272916,1.085671908309659,105.55555555555556,1.2666666666514668,1.462406015037574,0.9701471328735352,0.15825259236986156,1
293,230.29722222222222,1.0805555555555486,0.8416666666666686,0.7666666666666799,1.409420289855039,0.035358629043571004,0.9886480284320952,88.88888888888889,1.0666666666538667,1.0978260869565053,4.077358971699141e-05,0.9978996926195756,0
294,231.13888888888889,0.8416666666666686,0.8166666666666629,0.7694444444444457,1.0938628158844772,0.03413550604221051,0.9544487911727856,83.33333333333333,0.9999999999879999,1.061371841155228,9.743078408064321e-05,0.9982923540246529,0
295,231.95555555555555,0.8166666666666629,0.7722222222222399,0.7888888888888914,1.0352112676056258,0.03592006995336579,1.0043462459129187,80.55555555555556,0.9666666666550667,0.978873239436639,6.187795224832371e-05,0.9986039649065144,0
296,232.7277777777778,0.7722222222222399,0.7694444444444457,0.7944444444444514,0.9720279720279857,0.03440045925700783,0.9618570386224629,77.77777777777777,0.9333333333221333,0.9685314685314617,4.942103987559676e-05,0.9983418212517053,0
297,233.49722222222223,0.7694444444444457,0.74444444444444,0.7708333333333428,0.9981981981981876,0.03913577390846537,1.094259216557592,94.44444444444444,1.1333333333197333,0.9657657657657481,0.009870534762740135,0.9980625899203782,0
298,234.24166666666667,0.74444444444444,0.7472222222222058,0.7652777777777828,0.9727767695099696,0.035469521892142,0.9917486575874801,83.33333333333333,0.9999999999879999,0.9764065335752897,0.00047722362796775997,0.999015836353206,0
299,234.98888888888888,0.7472222222222058,0.7694444444444457,0.7583333333333258,0.9853479853479735,0.032841117042586514,0.918256914759095,61.111111111111114,0.7333333333245334,1.0146520146520264,3.372586832028901e-07,0.9978151562705427,0
300,235.75833333333333,0.7694444444444457,0.8222222222222229,0.7694444444444457,1.0,0.03356507170006407,0.9384991120430294,77.77777777777777,0.9333333333221333,1.0685920577617318,8.962915308075026e-05,0.9982331447864508,0
301,236.58055555555555,0.8222222222222229,0.875,0.7708333333333428,1.0666666666666544,0.03986834648676226,1.1147423759675386,86.11111111111111,1.0333333333209334,1.135135135135121,0.0035692828241735697,0.9985478582476741,0
302,237.45555555555555,0.875,0.9000000000000057,0.7944444444444514,1.1013986013985917,0.03533672302645698,0.988035523331745,86.11111111111111,1.0333333333209334,1.13286713286713,0.0006450259243138134,0.9993586315997521,0
303,238.35555555555555,0.9000000000000057,0.8166666666666629,0.7944444444444514,1.13286713286713,0.0368275455397749,1.029719796121782,91.66666666666667,1.0999999999868,1.0279720279720141,0.0015899954596534371,0.9963589697888322,0
304,239.17222222222222,0.8166666666666629,0.45000000000001705,0.7944444444444514,1.0279720279720141,0.03541902626170157,0.990336770112492,91.66666666666667,1.0999999999868,0.5664335664335829,0.0002827707212418318,0.9977610850907709,0
305,239.62222222222223,0.45000000000001705,0.4527777777777544,0.7708333333333428,0.5837837837837987,0.03692898084500465,1.0325559868124683,102.77777777777777,1.2333333333185332,0.5873873873873499,0.9875048995018005,0.17464434813430196,1
306,240.075,0.4527777777777544,1.375,0.7694444444444457,0.5884476534295715,0.049074125108610644,1.3721413512914293,125.0,1.499999999982,1.7870036101083002,0.9823908805847168,0.40804218280229676,1
307,241.45,1.375,0.8222222222222229,0.7930555555555543,1.7338003502626997,0.03544584864138228,0.9910867395967873,83.33333333333333,0.9999999999879999,1.0367775831873929,6.290853393764451e-10,0.9996798569587989,0
308,242.2722222222222,0.8222222222222229,0.8194444444444571,0.8194444444444429,1.0033898305084772,0.03400759943088777,0.9508724472214454,66.66666666666667,0.7999999999904001,1.0000000000000173,5.509721745511342e-07,0.9973795975267146,0
309,243.09166666666667,0.8194444444444571,0.8111111111111029,0.82083333333334,0.9983079526226808,0.03631396480245927,1.0153597771639735,69.44444444444444,0.8333333333233334,0.9881556683586961,4.644165892386809e-05,0.9911755293355828,0
310,243.90277777777777,0.8111111111111029,0.8166666666666629,0.82083333333334,0.9881556683586961,0.035668375432589175,0.9973087193327357,69.44444444444444,0.8333333333233334,0.9949238578680076,4.432510650076438e-06,0.9977511600923853,0
311,244.71944444444443,0.8166666666666629,0.7722222222222399,0.81805555555556,0.99830220713072,0.032663748041487264,0.9132975733483841,77.77777777777777,0.9333333333221333,0.9439728353141082,5.338328719517449e-06,0.9986235945941482,0
312,245.49166666666667,0.7722222222222399,0.73888888888888,0.8166666666666629,0.945578231292543,0.035870024140848715,1.0029469356111724,83.33333333333333,0.9999999999879999,0.9047619047618981,0.0007076362380757928,0.9975559890780601,0
313,246.23055555555555,0.73888888888888,0.7277777777777885,0.8138888888888829,0.9078498293515317,0.0345113271191895,0.9649569691437316,77.77777777777777,0.9333333333221333,0.8941979522184498,0.00020634160318877548,0.9980724259076762,0
314,246.95833333333334,0.7277777777777885,0.8055555555555429,0.7916666666666714,0.9192982456140432,0.0319703713347086,0.8939103535194495,83.33333333333333,0.9999999999879999,1.0175438596491007,0.001150151016190648,0.9966293166924134,0
315,247.76388888888889,0.8055555555555429,0.8083333333333371,0.8083333333333229,0.9965635738831587,0.03265370464564431,0.9130167541037617,91.66666666666667,1.0999999999868,1.0000000000000175,0.001708095776848495,0.9976934642045282,0
316,248.57222222222222,0.8083333333333371,0.8083333333333371,0.80972222222222,0.9982847341337981,0.033779549370499616,0.944496033636271,91.66666666666667,1.0999999999868,0.9982847341337981,0.002126417588442564,0.998492460910164,0
317,249.38055555555556,0.8083333333333371,0.7916666666666572,0.8083333333333371,1.0,0.033982475476005795,0.9501699666917316,77.77777777777777,0.9333333333221333,0.9793814432989527,1.2608797987923026e-05,0.9992556800867884,0
318,250.17222222222222,0.7916666666666572,0.7694444444444457,0.80694444444444,0.9810671256454325,0.03559927488177971,0.9953766273605846,86.11111111111111,1.0333333333209334,0.9535283993115387,0.0007786579080857337,0.99817458198757,0
319,250.94166666666666,0.7694444444444457,0.7194444444444343,0.7986111111111001,0.9634782608695801,0.03220181305810641,0.9003815999937461,91.66666666666667,1.0999999999868,0.9008695652173911,0.0011247167130932212,0.9972320184095231,0
320,251.6611111111111,0.7194444444444343,0.7166666666666686,0.7819444444444485,0.9200710479573535,0.032572575669846976,0.9107483403066116,91.66666666666667,1.0999999999868,0.9165186500888075,0.004272031597793102,0.9963864499827997,0
321,252.37777777777777,0.7166666666666686,0.6972222222222229,0.7708333333333428,0.9297297297297208,0.03503049382750486,0.9794731751304252,94.44444444444444,1.1333333333197333,0.9045045045044942,0.013288834132254124,0.9963094859317057,0
322,253.075,0.6972222222222229,0.45000000000001705,0.7541666666666629,0.924493554327814,0.0346818294225376,0.9697243136536252,88.88888888888889,1.0666666666538667,0.5966850828729537,0.0004636116500478238,0.9976414623019607,0
323,253.525,0.45000000000001705,1.0,0.7486111111111171,0.6011131725417619,0.03950602300152453,1.1046115985866194,100.0,1.1999999999856,1.3358070500927537,0.9705585241317749,0.19612979732217944,1
324,254.525,1.0,0.7916666666666572,0.7805555555555515,1.281138790035594,0.03480326704678092,0.9731197809280404,102.77777777777777,1.2333333333185332,1.0142348754448332,0.005437531508505344,0.995574501506377,0
325,255.31666666666666,0.7916666666666572,0.4805555555555543,0.7805555555555515,1.0142348754448332,0.034297185857020164,0.9589694537231311,91.66666666666667,1.0999999999868,0.6156583629893254,0.00025601472589187324,0.9975950473408279,0
326,255.79722222222222,0.4805555555555543,1.0166666666666515,0.74444444444444,0.6455223880597036,0.039115511291788294,1.0936926618983605,122.22222222222223,1.4666666666490669,1.3656716417910326,0.9783734083175659,0.19417655172838616,1
327,256.81388888888887,1.0166666666666515,0.6916666666666629,0.74444444444444,1.3656716417910326,0.03574576341790298,0.9994725328394909,91.66666666666667,1.0999999999868,0.9291044776119407,0.00011283987987553701,0.9992615708479297,0
328,257.50555555555553,0.6916666666666629,0.41111111111115406,0.7180555555555515,0.963249516441006,0.03309385123794554,0.925323511251034,86.11111111111111,1.0333333333209334,0.5725338491296569,0.00016006828809622675,0.9963825924563762,0
329,257.9166666666667,0.41111111111115406,0.9694444444444343,0.7069444444444457,0.5815324165030067,0.039440152241297564,1.1027698134554857,94.44444444444444,1.1333333333197333,1.3713163064832838,0.9757077097892761,0.3056897500380862,1
330,258.8861111111111,0.9694444444444343,0.7361111111110858,0.7069444444444457,1.3713163064832838,0.03668938779252663,1.0258568243911388,94.44444444444444,1.1333333333197333,1.0412573673869958,0.002378073986619711,0.9977595570126789,0
331,259.6222222222222,0.7361111111110858,0.47777777777781694,0.7166666666666544,1.027131782945719,0.03316782445216603,0.9273918457530803,88.88888888888889,1.0666666666538667,0.6666666666667328,0.0002851795288734138,0.9966302612784662,0
332,260.1,0.47777777777781694,1.0944444444444343,0.7138888888888744,0.6692607003891735,0.03767346795020342,1.0533722833900558,119.44444444444444,1.4333333333161333,1.5330739299611065,0.9759272336959839,0.16192440056718876,1
333,261.19444444444446,1.0944444444444343,0.8527777777777601,0.7638888888888715,1.4327272727272922,0.03607986809639557,1.008814295815499,94.44444444444444,1.1333333333197333,1.1163636363636387,0.0003202253137715161,0.9988262100303587,0
334,262.0472222222222,0.8527777777777601,0.8277777777777828,0.7638888888888715,1.1163636363636387,0.034098538867369736,0.9534151672594263,102.77777777777777,1.2333333333185332,1.0836363636363948,0.03992457315325737,0.9963841219061385,0
335,262.875,0.8277777777777828,0.7277777777777601,0.7819444444444343,1.0586145648312812,0.0350164862551608,0.9790815151833155,94.44444444444444,1.1333333333197333,0.9307282415630445,0.0020749468822032213,0.9974301250188236,0
336,263.60277777777776,0.7277777777777601,0.7444444444444684,0.7819444444444343,0.9307282415630445,0.03861922882672308,1.0798163127891363,88.88888888888889,1.0666666666538667,0.9520426287744658,0.01018784660845995,0.9966191524751598,0
337,264.34722222222223,0.7444444444444684,0.75,0.7402777777777771,1.005628517823673,0.03389375143229643,0.9476891903364125,91.66666666666667,1.0999999999868,1.0131332082551603,0.0029664484318345785,0.9985255612007098,0
338,265.09722222222223,0.75,0.8194444444444571,0.7472222222222342,1.003717472118943,0.034085350885395486,0.9530464235402687,91.66666666666667,1.0999999999868,1.096654275092936,0.011811935342848301,0.9978948474319906,0
339,265.9166666666667,0.8194444444444571,0.86388888888888,0.7847222222222285,1.044247787610627,0.0358523167060335,1.0024518253370416,97.22222222222223,1.1666666666526668,1.1008849557521923,0.03672618791460991,0.9979660823329062,0
340,266.78055555555557,0.86388888888888,0.8583333333333485,0.7847222222222285,1.1008849557521923,0.03436472250069207,0.9608578179334877,97.22222222222223,1.1666666666526668,1.0938053097345237,0.012294704094529152,0.9972834699554483,0
341,267.6388888888889,0.8583333333333485,0.5,0.82361111111112,1.0421585160202433,0.03493604314719037,0.9768322786533044,94.44444444444444,1.1333333333197333,0.6070826306913931,0.00026247944333590567,0.9987449635829551,0
342,268.1388888888889,0.5,1.2333333333332916,0.82361111111112,0.6070826306913931,0.0359687860012541,1.0057083752148899,116.66666666666667,1.3999999999832,1.4974704890387192,0.9674559235572815,0.1861866061176758,1
343,269.3722222222222,1.2333333333332916,0.7833333333333599,0.82361111111112,1.4974704890387192,0.033838481141646455,0.946143800558584,88.88888888888889,1.0666666666538667,0.9510961214165481,3.043680578684871e-07,0.997461020904834,0
344,270.15555555555557,0.7833333333333599,0.7916666666666288,0.8013888888889085,0.9774696707105811,0.03880061237360384,1.0848879032569883,88.88888888888889,1.0666666666538667,0.9878682842286981,0.007962643168866634,0.9965142749746894,0
345,270.9472222222222,0.7916666666666288,0.466666666666697,0.7874999999999943,1.0052910052909645,0.033651822609147425,0.940924718395704,86.11111111111111,1.0333333333209334,0.5925925925926354,5.065311779617332e-05,0.997761145729417,0
346,271.4138888888889,0.466666666666697,1.27222222222224,0.7874999999999943,0.5925925925926354,0.04202499899022935,1.175043646215842,69.44444444444444,0.8333333333233334,1.615520282186983,0.5624653100967407,0.9833660951291915,1
347,272.68611111111113,1.27222222222224,0.8972222222221831,0.8055555555555429,1.5793103448276329,0.03660192984965478,1.023411448958612,91.66666666666667,1.0999999999868,1.1137931034482447,9.807303285924718e-06,0.998196770425922,0
348,273.5833333333333,0.8972222222221831,0.8722222222222626,0.8388888888889028,1.0695364238409952,0.037349721806522206,1.0443201511292572,61.111111111111114,0.7333333333245334,1.0397350993377794,1.8839730842046265e-07,0.9973830128742053,0
349,274.4555555555556,0.8722222222222626,0.8027777777777487,0.8611111111111143,1.012903225806495,0.03433570007948822,0.9600463339964788,86.11111111111111,1.0333333333209334,0.9322580645160918,0.0001214206131407991,0.9983572920350149,0
350,275.2583333333333,0.8027777777777487,0.466666666666697,0.8305555555555486,0.9665551839464614,0.034647813113678705,0.968773197685683,88.88888888888889,1.0666666666538667,0.5618729096990378,0.00016338273417204618,0.9984395997188283,0
351,275.725,0.466666666666697,1.1333333333333258,0.7972222222221887,0.5853658536585992,0.03490555742838231,0.975979880056125,111.11111111111111,1.3333333333173334,1.4216027874564963,0.9593744277954102,0.18658771470450236,1
352,276.85833333333335,1.1333333333333258,0.783333333333303,0.8375000000000057,1.353233830845753,0.034692939388301675,0.9700349548194652,66.66666666666667,0.7999999999904001,0.9353233830845346,1.8258736536602704e-11,0.9971945092518242,0
353,277.64166666666665,0.783333333333303,0.8222222222222513,0.7972222222221887,0.9825783972125468,0.03961127683814157,1.1075545576568966,91.66666666666667,1.0999999999868,1.0313588850175013,0.01639035902917385,0.9984841267738047,0
354,278.4638888888889,0.8222222222222513,0.8333333333333144,0.8125,1.0119658119658477,0.035906685979849716,1.0039720221551776,80.55555555555556,0.9666666666550667,1.0256410256410022,0.00010828204540302977,0.9992616628291993,0
355,279.2972222222222,0.8333333333333144,0.8916666666666515,0.8277777777777828,1.0067114093959442,0.037036203987669866,1.035554008836106,72.22222222222223,0.8666666666562668,1.0771812080536665,3.320190808153711e-05,0.9979523315389245,0
356,280.18888888888887,0.8916666666666515,0.8222222222222513,0.8527777777777885,1.0456026058631613,0.03673700201375238,1.027188145972701,100.0,1.1999999999856,0.9641693811075138,0.026878707110881805,0.9967025431032659,0
357,281.0111111111111,0.8222222222222513,0.7722222222222399,0.8277777777777828,0.9932885906040558,0.03552561625777329,0.9933170889856315,80.55555555555556,0.9666666666550667,0.9328859060402841,5.109937410452403e-05,0.9990319391170577,0
358,281.78333333333336,0.7722222222222399,0.7888888888888346,0.8222222222222513,0.9391891891891775,0.033823754953265554,0.945732047685158,75.0,0.8999999999892,0.9594594594593595,1.9532944861566648e-05,0.9989542769547083,0
359,282.5722222222222,0.7888888888888346,0.8222222222222513,0.8125,0.9709401709401041,0.03484801881849377,0.974371066740571,83.33333333333333,0.9999999999879999,1.0119658119658477,0.00038994033820927143,0.9992635182503693,0
360,283.39444444444445,0.8222222222222513,0.830555555555577,0.8222222222222513,1.0,0.03365206512878253,0.9409314993870939,63.888888888888886,0.7666666666574666,1.0101351351351255,1.0740904343720103e-07,0.998716352822772,0
361,284.225,0.830555555555577,0.8472222222221717,0.8222222222222513,1.0101351351351255,0.03388530463037111,0.9474530127951472,83.33333333333333,0.9999999999879999,1.0304054054053076,0.0001575963688082993,0.9980748165817594,0
362,285.0722222222222,0.8472222222221717,0.8500000000000227,0.8222222222222513,1.0304054054053076,0.03575479613413922,0.9997250928889017,94.44444444444444,1.1333333333197333,1.033783783783775,0.0114201745018363,0.9975078341612518,0
363,285.9222222222222,0.8500000000000227,0.86388888888888,0.8263888888889142,1.0285714285714247,0.03379679715829197,0.9449782919097668,91.66666666666667,1.0999999999868,1.0453781512604616,0.0017013668548315763,0.9991373576060483,0
364,286.7861111111111,0.86388888888888,0.7861111111110972,0.8319444444444457,1.038397328881457,0.03214993933281883,0.8989311801777007,86.11111111111111,1.0333333333209334,0.9449081803004827,3.4106520615750924e-05,0.9979966539230632,0
365,287.5722222222222,0.7861111111110972,0.7111111111111654,0.8263888888889142,0.9512605042016348,0.03256084814264258,0.9104204317603068,72.22222222222223,0.8666666666562668,0.8605042016807117,2.399555569354561e-06,0.9976780268481986,0
366,288.28333333333336,0.7111111111111654,0.7444444444444116,0.8222222222222513,0.8648648648649003,0.03687382584963152,1.0310138207582744,63.888888888888886,0.7666666666574666,0.9054054054053334,5.1563278248067945e-05,0.9972571165711581,0
367,289.02777777777777,0.7444444444444116,0.8138888888888687,0.8055555555555429,0.9241379310344565,0.03398395081350702,0.9502112179944916,86.11111111111111,1.0333333333209334,1.0103448275861977,0.00233933562412858,0.9992921362599061,0
368,289.84166666666664,0.8138888888888687,0.8138888888889255,0.81805555555556,0.99490662139216,0.035254186820852934,0.9857277625629619,88.88888888888889,1.0666666666538667,0.9949066213922295,0.0022683243732899427,0.9977654867475304,0
369,290.65555555555557,0.8138888888889255,0.8444444444444343,0.8180555555555884,0.994906621392195,0.038266647569765944,1.069957933830969,80.55555555555556,0.9666666666550667,1.0322580645160753,0.0005780639476142824,0.9980853407191594,0
370,291.5,0.8444444444444343,0.8472222222222285,0.8222222222222513,1.0270270270269783,0.03733119313842881,1.0438020786904916,91.66666666666667,1.0999999999868,1.0304054054053766,0.006303757894784212,0.9981576436315994,0
371,292.34722222222223,0.8472222222222285,0.7916666666666856,0.8291666666666799,1.021775544388601,0.036492335046175724,1.0203471139061284,91.66666666666667,1.0999999999868,0.9547738693467412,0.0030860984697937965,0.9978545641569723,0
372,293.1388888888889,0.7916666666666856,0.794444444444423,0.8138888888888971,0.9726962457338019,0.03414421700693892,0.9546923548611252,88.88888888888889,1.0666666666538667,0.9761092150170286,0.0014973803190514445,0.9981595424729823,0
373,293.93333333333334,0.794444444444423,0.783333333333303,0.8041666666666458,0.9879101899827277,0.03592396029048123,1.0044550220228288,86.11111111111111,1.0333333333209334,0.9740932642486922,0.0009777266532182693,0.9982546750799189,0
374,294.71666666666664,0.783333333333303,0.7888888888888914,0.7930555555555543,0.9877408056041665,0.03572520078874406,0.9988975896551187,86.11111111111111,1.0333333333209334,0.9947460595446632,0.0008823604439385235,0.9993765330768103,0
375,295.50555555555553,0.7888888888888914,0.49166666666667425,0.7930555555555543,0.9947460595446632,0.03716240488871186,1.03908266012651,83.33333333333333,0.9999999999879999,0.6199649737303082,0.00018867671315092593,0.9979377701609158,0
376,295.9972222222222,0.49166666666667425,0.5944444444444343,0.7930555555555543,0.6199649737303082,0.037247666729659616,1.0414666312598257,61.111111111111114,0.7333333333245334,0.74956217162871,0.6020839810371399,0.9557255350288258,1
377,296.59166666666664,0.5944444444444343,1.4833333333333485,0.7930555555555543,0.74956217162871,0.04620240251470173,1.2918463014699721,102.77777777777777,1.2333333333185332,1.8704028021015984,0.984057605266571,0.15914547326194411,1
378,298.075,1.4833333333333485,0.841666666666697,0.7930555555555543,1.8704028021015984,0.03575130989516724,0.9996276156003439,83.33333333333333,0.9999999999879999,1.0612959719790243,1.517856847155219e-11,0.9994948651026989,0
379,298.9166666666667,0.841666666666697,1.5361111111110972,0.7930555555555543,1.0612959719790243,0.03916550152871069,1.095090418273849,83.33333333333333,0.9999999999879999,1.9369527145358876,0.21235321462154388,0.9983644264010654,0
380,300.4527777777778,1.5361111111110972,0.7916666666666856,0.7930555555555543,1.9369527145358876,0.034268039179194375,0.9581544954980171,83.33333333333333,0.9999999999879999,0.9982486865149116,2.3893932080305824e-13,0.9993199667599271,0
381,301.24444444444447,0.7916666666666856,0.7555555555555316,0.7916666666666856,1.0,0.03546787342344331,0.9917025654347871,83.33333333333333,0.9999999999879999,0.9543859649122275,0.0001776909048203379,0.9988311079400171,0
382,302.0,0.7555555555555316,0.7666666666666515,0.7902777777777885,0.9560632688927511,0.03654288957696777,1.02176064826953,88.88888888888889,1.0666666666538667,0.9701230228470679,0.0038987318985164165,0.9989795777438748,0
383,302.76666666666665,0.7666666666666515,0.8111111111111313,0.7861111111110972,0.9752650176678425,0.03792268760763039,1.060340611337898,91.66666666666667,1.0999999999868,1.0318021201413867,0.014974435791373253,0.9982615176880474,0
384,303.5777777777778,0.8111111111111313,0.8249999999999886,0.7902777777777885,1.026362038664335,0.036537017169888344,1.0215964523196797,94.44444444444444,1.1333333333197333,1.043936731107177,0.012648331001400948,0.9982755947617777,0
385,304.40277777777777,0.8249999999999886,0.7583333333333258,0.8013888888889085,1.0294627383015205,0.037234652352905614,1.0411027416445564,86.11111111111111,1.0333333333209334,0.9462738301559466,0.00044841281487606466,0.9990672909753546,0
386,305.1611111111111,0.7583333333333258,0.6916666666666629,0.8013888888889085,0.9462738301559466,0.03585563870008175,1.0025447102410978,80.55555555555556,0.9666666666550667,0.8630849220103728,0.00018347588775213808,0.9990439257877345,0
387,305.85277777777776,0.6916666666666629,0.7250000000000227,0.8013888888889085,0.8630849220103728,0.037449004459727375,1.0470961524054334,83.33333333333333,0.9999999999879999,0.9046793760831952,0.010208196938037872,0.9975965446289181,0
388,306.5777777777778,0.7250000000000227,0.7527777777777942,0.7791666666666686,0.9304812834224868,0.03998235604310808,1.1179301501022434,88.88888888888889,1.0666666666538667,0.9661319073083966,0.011087886989116669,0.9979479624352762,0
389,307.3305555555556,0.7527777777777942,0.8166666666666629,0.7624999999999886,0.9872495446266301,0.037609990444761945,1.0515974150678942,91.66666666666667,1.0999999999868,1.0710382513661312,0.018590673804283142,0.9980119041853517,0
390,308.14722222222224,0.8166666666666629,0.8583333333332916,0.7624999999999886,1.0710382513661312,0.037860778057249245,1.0586095839598282,91.66666666666667,1.0999999999868,1.1256830601092518,0.009103738702833652,0.9984332717039754,0
391,309.00555555555553,0.8583333333332916,0.8444444444444912,0.7624999999999886,1.1256830601092518,0.03627747645833203,1.014339541638504,102.77777777777777,1.2333333333185332,1.1074681238616444,0.06329791992902756,0.9958898044435296,0
392,309.85,0.8444444444444912,0.8777777777777374,0.7888888888888914,1.0704225352113235,0.03615386827021606,1.01088338412379,94.44444444444444,1.1333333333197333,1.1126760563379734,0.013979103416204453,0.9977518647269985,0
393,310.72777777777776,0.8777777777777374,0.8250000000000455,0.8138888888888971,1.0784982935152978,0.036797279623714145,1.028873543338472,91.66666666666667,1.0999999999868,1.0136518771331515,0.0016681539127603173,0.9988575489989358,0
394,311.5527777777778,0.8250000000000455,0.7638888888888573,0.8208333333333258,1.0050761421320444,0.035327289480323355,0.987771755843061,80.55555555555556,0.9666666666550667,0.9306260575295809,3.476592610240914e-05,0.9992466497145845,0
395,312.31666666666666,0.7638888888888573,0.4611111111111086,0.7902777777777601,0.9666080843585054,0.03907072965817741,1.0924405411296279,83.33333333333333,0.9999999999879999,0.5834797891037006,0.0005680415779352188,0.9972820312982268,0
396,312.77777777777777,0.4611111111111086,1.2527777777777942,0.7902777777777601,0.5834797891037006,0.03751776448640197,1.049018723122839,111.11111111111111,1.3333333333173334,1.5852372583480352,0.9672903418540955,0.1775356706629817,1
397,314.03055555555557,1.2527777777777942,1.4833333333333485,0.8208333333333542,1.526226734348543,0.03884217436650009,1.0860500009809682,97.22222222222223,1.1666666666526668,1.8071065989847441,0.006042109802365303,0.9977470069630294,0
398,315.5138888888889,1.4833333333333485,1.36388888888888,0.8347222222222683,1.7770382695506688,0.04457215090827733,1.2462635093726415,180.55555555555554,2.1666666666406664,1.6339434276205314,0.2452818602323532,0.9499038899510497,0
399,316.8777777777778,1.36388888888888,0.7916666666666288,0.8513888888888914,1.6019575856443569,0.035721289613787253,0.9987882309069291,86.11111111111111,1.0333333333209334,0.9298531810766248,4.302085798713051e-09,0.9980830072842588,0
400,317.6694444444444,0.7916666666666288,0.7944444444444798,0.8513888888888914,0.9298531810766248,0.035114344525526496,0.9818176898789918,83.33333333333333,0.9999999999879999,0.9331158238173308,0.0008728414541110396,0.9979164687081312,0
401,318.4638888888889,0.7944444444444798,0.8527777777777601,0.8347222222222683,0.9517470881863459,0.036471651890615436,1.0197688007328083,91.66666666666667,1.0999999999868,1.0216306156405215,0.028356952592730522,0.997467853881336,0
402,319.31666666666666,0.8527777777777601,0.8916666666666515,0.8388888888889028,1.0165562913906905,0.035220310000300785,0.9847805467699752,86.11111111111111,1.0333333333209334,1.0629139072847325,0.001170584699138999,0.9974682483805324,0
403,320.2083333333333,0.8916666666666515,0.47222222222222854,0.8388888888889028,1.0629139072847325,0.03894032986151965,1.088794486252478,94.44444444444444,1.1333333333197333,0.5629139072847664,0.0012769239256158471,0.9978087575149475,0
404,320.68055555555554,0.47222222222222854,1.25,0.82361111111112,0.5733558178752123,0.03613687642890817,1.010408282264276,111.11111111111111,1.3333333333173334,1.517706576728483,0.9580140709877014,0.16644148555121557,1
405,321.93055555555554,1.25,0.8388888888889028,0.8722222222222058,1.4331210191083072,0.03691210789899047,1.0320842093351739,80.55555555555556,0.9666666666550667,0.96178343949048,1.1975759939275576e-08,0.9982353907638443,0
406,322.76944444444445,0.8388888888889028,0.7972222222222172,0.8722222222222058,0.96178343949048,0.03549629278337512,0.9924971874245498,91.66666666666667,1.0999999999868,0.9140127388535146,0.006384647451341152,0.9973861997089402,0
407,323.56666666666666,0.7972222222222172,0.4444444444444571,0.8458333333333314,0.9425287356321801,0.03572543711720318,0.998904197537593,83.33333333333333,0.9999999999879999,0.5254515599343347,0.0001038605478242971,0.9987414139387516,0
408,324.0111111111111,0.4444444444444571,1.069444444444457,0.81805555555556,0.5432937181663962,0.037567437746063234,1.050407616627997,105.55555555555556,1.2666666666514668,1.3073005093378691,0.9530696272850037,0.17694285676205224,1
409,325.0805555555556,1.069444444444457,0.7861111111110972,0.81805555555556,1.3073005093378691,0.03628762948412823,1.0146234262009872,88.88888888888889,1.0666666666538667,0.960950764006769,1.1063542842748575e-05,0.9987647825493378,0
410,325.8666666666667,0.7861111111110972,0.8416666666666401,0.81805555555556,0.960950764006769,0.036816667668892446,1.0294156444651037,94.44444444444444,1.1333333333197333,1.028862478777551,0.03680657222867012,0.9981931282128698,0
411,326.7083333333333,0.8416666666666401,0.8166666666666629,0.8402777777777715,1.0016528925619594,0.0391570289163945,1.0948535190589006,91.66666666666667,1.0999999999868,0.9719008264462838,0.010163986124098301,0.9973884247667767,0
412,327.525,0.8166666666666629,0.7916666666666856,0.8277777777777828,0.986577181208043,0.037025695477704984,1.0352601847275484,80.55555555555556,0.9666666666550667,0.9563758389261916,0.0001823215716285631,0.9983423994160372,0
413,328.31666666666666,0.7916666666666856,0.7888888888888914,0.80694444444444,0.9810671256454677,0.0405414759197704,1.1335634701339175,86.11111111111111,1.0333333333209334,0.977624784853709,0.002884123707190156,0.9986730188625864,0
414,329.10555555555555,0.7888888888888914,0.7694444444444457,0.80694444444444,0.977624784853709,0.03550378533330101,0.992706683519634,77.77777777777777,0.9333333333221333,0.9535283993115387,7.752361852908507e-05,0.9974334115427554,0
415,329.875,0.7694444444444457,0.7472222222222058,0.7944444444444514,0.9685314685314617,0.03449230521289308,0.964425105475211,83.33333333333333,0.9999999999879999,0.9405594405594117,0.00025065758381970227,0.9982090281651549,0
416,330.6222222222222,0.7472222222222058,0.7777777777777715,0.7902777777777885,0.9455184534270314,0.038500933277745786,1.0765086997839892,86.11111111111111,1.0333333333209334,0.9841827768013847,0.004082137253135443,0.9987061562848807,0
417,331.4,0.7777777777777715,0.4805555555555543,0.7874999999999943,0.9876543209876534,0.036537212188234906,1.021601905147152,88.88888888888889,1.0666666666538667,0.6102292768959464,0.0004426864325068891,0.9980140909440003,0
418,331.88055555555553,0.4805555555555543,1.172222222222274,0.7874999999999943,0.6102292768959464,0.04315897023931529,1.206750148137226,108.33333333333333,1.2999999999843999,1.4885361552028984,0.822738766670227,0.9743468123833554,1
419,333.0527777777778,1.172222222222274,0.8583333333332916,0.7874999999999943,1.4885361552028984,0.03897497923029466,1.0897633029473681,88.88888888888889,1.0666666666538667,1.089947089947045,0.00011472872574813664,0.9959894863052334,0
420,333.9111111111111,0.8583333333332916,0.8388888888889028,0.7902777777777885,1.0861159929700555,0.03699276920070367,1.0343395466903427,86.11111111111111,1.0333333333209334,1.061511423550091,0.0007106970879249275,0.9981523034073371,0
421,334.75,0.8388888888889028,0.7416666666666742,0.7902777777777885,1.061511423550091,0.036115532277042506,1.0098114872461619,83.33333333333333,0.9999999999879999,0.938488576449909,6.804858276154846e-05,0.9990054201802576,0
422,335.4916666666667,0.7416666666666742,0.7555555555555316,0.7833333333333314,0.9468085106383098,0.03518103932913874,0.9836825157470043,83.33333333333333,0.9999999999879999,0.9645390070921703,0.0005839713267050683,0.9989999503456174,0
423,336.2472222222222,0.7555555555555316,0.7694444444444457,0.7736111111111086,0.976660682226184,0.0357646270847255,0.9999999720394129,83.33333333333333,0.9999999999879999,0.9946140035906692,0.0005604067700915039,0.9991616348351069,0
424,337.01666666666665,0.7694444444444457,0.8000000000000114,0.7694444444444457,1.0,0.038627601699180794,1.0800504232190808,83.33333333333333,0.9999999999879999,1.039711191335753,0.0012243703240528703,0.9988712142099276,0
425,337.81666666666666,0.8000000000000114,0.8249999999999886,0.7736111111111086,1.0341113105924777,0.03727075399780244,1.042112164832498,88.88888888888889,1.0666666666538667,1.0664272890484627,0.003213054034858942,0.9991420708721142,0
426,338.64166666666665,0.8249999999999886,0.8249999999999886,0.7888888888888914,1.0457746478873062,0.0359951043454324,1.0064442515705996,97.22222222222223,1.1666666666526668,1.0457746478873062,0.022493939846754074,0.9967016788957063,0
427,339.46666666666664,0.8249999999999886,0.875,0.8125,1.0153846153846013,0.036490349074023355,1.0202915849587095,94.44444444444444,1.1333333333197333,1.0769230769230769,0.022646449506282806,0.9981736625081259,0
428,340.34166666666664,0.875,0.8388888888889028,0.8249999999999886,1.0606060606060752,0.038636283377777,1.0802931680499688,97.22222222222223,1.1666666666526668,1.0168350168350477,0.020012712106108665,0.9968640817770588,0
429,341.18055555555554,0.8388888888889028,0.76111111111112,0.8249999999999886,1.0168350168350477,0.035978187194789936,1.0059712381059442,91.66666666666667,1.0999999999868,0.922558922558946,0.0022961643990129232,0.9975175373040726,0
430,341.94166666666666,0.76111111111112,0.4416666666666629,0.8125,0.9367521367521476,0.034865717429959975,0.9748659303086831,86.11111111111111,1.0333333333209334,0.5435897435897389,0.00020660381414927542,0.9973943172102142,0
431,342.3833333333333,0.4416666666666629,0.4833333333333485,0.7847222222222285,0.5628318584070703,0.040613101871509794,1.1355661737988267,105.55555555555556,1.2666666666514668,0.6159292035398374,0.9869064092636108,0.16422644436427936,1
432,342.8666666666667,0.4833333333333485,0.3333333333333144,0.7847222222222285,0.6159292035398374,0.04798504884612356,1.3416901395548753,122.22222222222223,1.4666666666490669,0.42477876106191936,0.9898380041122437,0.19482113109844978,1
433,343.2,0.3333333333333144,1.4472222222222513,0.7847222222222285,0.42477876106191936,0.04323690017735359,1.208929114960359,152.77777777777777,1.8333333333113333,1.8442477876106416,0.9648804664611816,0.2450180087971136,1
434,344.64722222222224,1.4472222222222513,0.8499999999999659,0.8125,1.781196581196617,0.03775198475421349,1.0555676593303305,94.44444444444444,1.1333333333197333,1.0461538461538042,7.983483669704583e-07,0.9975849615881814,0
435,345.4972222222222,0.8499999999999659,0.8194444444444571,0.8249999999999886,1.0303030303030032,0.03812991304847576,1.066134756333743,94.44444444444444,1.1333333333197333,0.9932659932660223,0.01171603798866272,0.9972447578684701,0
436,346.31666666666666,0.8194444444444571,0.7833333333333599,0.8222222222222229,0.9966216216216363,0.03511031941521104,0.9817051454312787,91.66666666666667,1.0999999999868,0.9527027027027343,0.003362239571288228,0.9972277900949458,0
437,347.1,0.7833333333333599,0.7444444444444116,0.8013888888889085,0.9774696707105811,0.03419868149567848,0.9562152139444221,83.33333333333333,0.9999999999879999,0.9289428076255862,0.0001998175139306113,0.9974607814683283,0
438,347.84444444444443,0.7444444444444116,0.45277777777778283,0.7722222222222399,0.9640287769783527,0.03321821148635545,0.9288006968131293,72.22222222222223,0.8666666666562668,0.5863309352517917,3.4404051802994218e-06,0.9979297568768064,0
439,348.2972222222222,0.45277777777778283,1.0055555555555884,0.7527777777777658,0.6014760147601639,0.042451459707475984,1.1869677382610984,66.66666666666667,0.7999999999904001,1.3357933579336443,0.34887927770614624,0.9853600234873041,0
440,349.3027777777778,1.0055555555555884,0.7694444444443889,0.7638888888888857,1.3163636363636848,0.032646991003287516,0.9128290367216352,77.77777777777777,0.9333333333221333,1.0072727272726587,1.1810961808578213e-07,0.9990383617864147,0
441,350.0722222222222,0.7694444444443889,0.5611111111111313,0.7763888888888744,0.9910554561716822,0.03476077620999695,0.9719317121836009,88.88888888888889,1.0666666666538667,0.7227191413238321,0.00022677984088659286,0.9991871923683997,0
442,350.6333333333333,0.5611111111111313,1.069444444444457,0.7763888888888744,0.7227191413238321,0.04459694456185838,1.2469567544840492,75.0,0.8999999999892,1.377459749552815,0.673439621925354,0.9908991338171964,1
443,351.7027777777778,1.069444444444457,0.7972222222222172,0.8013888888889085,1.3344887348353385,0.03771114777733122,1.0544258334797854,91.66666666666667,1.0999999999868,0.9948006932408706,0.00012417431571520865,0.9977829356801569,0
444,352.5,0.7972222222222172,0.48611111111108585,0.7902777777777885,1.008787346221421,0.03312152184624967,0.9260971977056667,66.66666666666667,0.7999999999904001,0.6151142355008384,2.062421629034361e-07,0.9982883303027429,0
445,352.9861111111111,0.48611111111108585,0.9777777777778169,0.7763888888888744,0.6261180679785122,0.03487732221470633,0.9751904069037944,58.333333333333336,0.6999999999916,1.259391771019752,0.5213946104049683,0.9738339308495723,1
446,353.9638888888889,0.9777777777778169,0.7166666666666401,0.7763888888888744,1.259391771019752,0.034361988011626605,0.9607813600136964,75.0,0.8999999999892,0.9230769230769061,2.3354121481133916e-07,0.9992172483826854,0
447,354.68055555555554,0.7166666666666401,0.7305555555555543,0.7569444444444002,0.9467889908257083,0.03531871924256459,0.9875321269634187,88.88888888888889,1.0666666666538667,0.9651376146789538,0.0027226912789046764,0.9990673033360278,0
448,355.4111111111111,0.7305555555555543,0.716666666666697,0.7499999999999716,0.9740740740741093,0.036254811168741054,1.0137058068339009,88.88888888888889,1.0666666666538667,0.9555555555556322,0.001864348421804607,0.9986268686914199,0
449,356.1277777777778,0.716666666666697,0.7694444444444457,0.7499999999999716,0.9555555555556322,0.036686904202326995,1.0257873817509482,86.11111111111111,1.0333333333209334,1.0259259259259665,0.004061275161802769,0.9980261938254877,0
450,356.89722222222224,0.7694444444444457,0.7638888888888573,0.7499999999999716,1.0259259259259665,0.036838602917203506,1.0300289668868858,88.88888888888889,1.0666666666538667,1.018518518518515,0.001904333010315895,0.9992342050029048,0
451,357.6611111111111,0.7638888888888573,0.5222222222222399,0.7472222222222058,1.022304832713735,0.03525268495410622,0.9856857694869215,88.88888888888889,1.0666666666538667,0.6988847583643513,0.0004124488332308829,0.9978670099157603,0
452,358.18333333333334,0.5222222222222399,1.080555555555577,0.7472222222222058,0.6988847583643513,0.034648695982296474,0.968797883210601,55.55555555555556,0.6666666666586667,1.4460966542751534,0.9287234544754028,0.9368909927021465,1
453,359.2638888888889,1.080555555555577,0.6972222222221944,0.7472222222222058,1.4460966542751534,0.03434827558077182,0.9603979523959154,80.55555555555556,0.9666666666550667,0.9330855018587194,1.1709076943589025e-06,0.9994229319293768,0
454,359.9611111111111,0.6972222222221944,0.42222222222221717,0.7236111111111256,0.9635316698655852,0.03417184430543315,0.9554648303480444,77.77777777777777,0.9333333333221333,0.5834932821496934,2.6845029424293898e-05,0.9988717373147356,0
455,360.3833333333333,0.42222222222221717,1.091666666666697,0.7236111111111256,0.5834932821496934,0.037893556221095026,1.0595260806662423,108.33333333333333,1.2999999999843999,1.5086372360844647,0.9661610126495361,0.1635777846925502,1
456,361.475,1.091666666666697,0.794444444444423,0.7236111111111256,1.5086372360844647,0.03946644044361381,1.103504847027035,97.22222222222223,1.1666666666526668,1.0978886756237487,0.004512970335781574,0.9972109356844809,0
457,362.26944444444445,0.794444444444423,0.8166666666666629,0.7472222222222058,1.0631970260222994,0.034751815394618475,0.9716811625243887,102.77777777777777,1.2333333333185332,1.0929368029739965,0.07925203442573547,0.9971137986622522,0
458,363.0861111111111,0.8166666666666629,0.8055555555555429,0.7666666666666515,1.0652173913043639,0.03885457757410157,1.086396801947893,88.88888888888889,1.0666666666538667,1.0507246376811636,0.002237580483779311,0.9987329003574987,0
459,363.89166666666665,0.8055555555555429,0.8083333333333371,0.7819444444444343,1.030195381882768,0.03634313493868185,1.016175391299635,97.22222222222223,1.1666666666526668,1.0337477797513503,0.02110392227768898,0.9974604465729977,0
460,364.7,0.8083333333333371,0.7888888888888914,0.799999999999983,1.010416666666693,0.035359581371645715,0.9886746560842116,91.66666666666667,1.0999999999868,0.9861111111111353,0.003120935522019863,0.9987111736346974,0
461,365.4888888888889,0.7888888888888914,0.7805555555555657,0.799999999999983,0.9861111111111353,0.036312712910266734,1.0153247735232376,94.44444444444444,1.1333333333197333,0.9756944444444778,0.012300502508878708,0.9975827700203347,0
462,366.26944444444445,0.7805555555555657,0.7749999999999773,0.799999999999983,0.9756944444444778,0.0358643551929056,1.0027884284982316,86.11111111111111,1.0333333333209334,0.9687499999999922,0.0015578328166157007,0.9972983750583614,0
463,367.0444444444444,0.7749999999999773,0.7944444444444798,0.7916666666666572,0.9789473684210356,0.036120109178879,1.0099394601087806,91.66666666666667,1.0999999999868,1.0035087719298812,0.009213007986545563,0.9973834920961766,0
464,367.8388888888889,0.7944444444444798,0.9222222222222172,0.7944444444444514,1.0000000000000357,0.035871559367055106,1.0029898614372919,94.44444444444444,1.1333333333197333,1.1608391608391444,0.09231851249933243,0.9977818566482595,0
465,368.7611111111111,0.9222222222222172,0.9250000000000114,0.8000000000000114,1.152777777777755,0.03637222067279316,1.0169886455027097,100.0,1.1999999999856,1.1562499999999978,0.03960530832409859,0.9956838910973309,0
466,369.68611111111113,0.9250000000000114,0.8805555555555316,0.8000000000000114,1.1562499999999978,0.036228411188302306,1.0129676478804175,100.0,1.1999999999856,1.100694444444399,0.01284677442163229,0.9976157169187344,0
467,370.56666666666666,0.8805555555555316,0.830555555555577,0.80694444444444,1.0912220309810434,0.036400471227131956,1.0177785475889798,94.44444444444444,1.1333333333197333,1.0292598967298086,0.004232157953083515,0.9975555605710996,0
468,371.39722222222224,0.830555555555577,0.7861111111110972,0.80694444444444,1.0292598967298086,0.0386022346562806,1.0793411458056514,83.33333333333333,0.9999999999879999,0.9741824440619502,0.0003429451026022434,0.9985988773023575,0
469,372.18333333333334,0.7861111111110972,0.4416666666666629,0.8013888888889085,0.9809358752165965,0.03223245521904151,0.9012383728046504,63.888888888888886,0.7666666666574666,0.5511265164644532,1.1502067991386866e-06,0.9892779321002121,0
470,372.625,0.4416666666666629,1.2833333333333599,0.7916666666666856,0.5578947368420871,0.039992657674534395,1.1182181897653962,111.11111111111111,1.3333333333173334,1.621052631578942,0.9782111048698425,0.33409876514847225,1
471,373.90833333333336,1.2833333333333599,0.8722222222222058,0.8125000000000284,1.5794871794871568,0.034747737438780756,0.9715671404848457,80.55555555555556,0.9666666666550667,1.0735042735042157,1.4617022037199945e-09,0.9990929128552053,0
472,374.78055555555557,0.8722222222222058,0.9666666666666401,0.8513888888888914,1.024469820554627,0.03229560263558779,0.903004011647495,91.66666666666667,1.0999999999868,1.1353996737356915,0.006394037976861,0.9974770030570215,0
473,375.7472222222222,0.9666666666666401,0.8944444444444457,0.8763888888888687,1.1030110935023723,0.03330987905443656,0.9313637758381355,66.66666666666667,0.7999999999904001,1.0206022187005004,3.708956697323629e-08,0.9910821934206023,0
474,376.64166666666665,0.8944444444444457,0.7805555555555657,0.8874999999999886,1.0078247261345996,0.03400233739397425,0.9507253175798047,66.66666666666667,0.7999999999904001,0.8794992175274092,1.6091256327399606e-07,0.9955488872772249,0
475,377.4222222222222,0.7805555555555657,0.7472222222222058,0.8763888888888687,0.890649762282124,0.031122527502375083,0.8702041421665732,61.111111111111114,0.7333333333245334,0.8526148969889075,2.1197841704179154e-07,0.9943068753185874,0
476,378.1694444444444,0.7472222222222058,0.7361111111111427,0.8513888888888914,0.8776508972267317,0.036644160499908957,1.024592242734913,61.111111111111114,0.7333333333245334,0.8646003262643086,8.440715646429453e-06,0.9976147921007799,0
477,378.90555555555557,0.7361111111111427,0.7666666666666515,0.8083333333333371,0.9106529209622342,0.032440450864614036,0.9070540531768828,63.888888888888886,0.7666666666574666,0.9484536082473994,4.7223562660292373e-07,0.9982818640867535,0
478,379.6722222222222,0.7666666666666515,0.7833333333333599,0.7833333333333314,0.9787234042553021,0.03596075793580803,1.0054839057914402,88.88888888888889,1.0666666666538667,1.0000000000000362,0.0029660577420145273,0.999213426028196,0
479,380.4555555555556,0.7833333333333599,0.7916666666666288,0.7819444444444628,1.001776198934291,0.0360563537489058,1.0081568208535319,66.66666666666667,0.7999999999904001,1.0124333925398923,3.6056849239685107e-06,0.9983513033612794,0
480,381.2472222222222,0.7916666666666288,0.8000000000000114,0.7874999999999943,1.0052910052909645,0.03880138054507621,1.0849093817823778,83.33333333333333,0.9999999999879999,1.0158730158730376,0.0008311340934596956,0.9988327884179815,0
481,382.0472222222222,0.8000000000000114,0.8222222222222513,0.7874999999999943,1.0158730158730376,0.03587262689440637,1.0030197101288185,91.66666666666667,1.0999999999868,1.0440917107584218,0.006775515154004097,0.9985724067244435,0
482,382.86944444444447,0.8222222222222513,0.7305555555555543,0.7874999999999943,1.0440917107584218,0.03130276355296727,0.8752436479644584,80.55555555555556,0.9666666666550667,0.9276895943562661,3.2595107768429443e-06,0.9982747195436648,0
483,383.6,0.7305555555555543,0.6916666666666629,0.7819444444444628,0.9342806394315929,0.03729995255356936,1.0429285735953053,88.88888888888889,1.0666666666538667,0.8845470692717329,0.0035077680367976427,0.9983527679118103,0
484,384.2916666666667,0.6916666666666629,0.7277777777777601,0.7736111111111086,0.8940754039497287,0.03693930661980454,1.0328447015385218,86.11111111111111,1.0333333333209334,0.9407540394972872,0.008360624313354492,0.9968896985789211,0
485,385.01944444444445,0.7277777777777601,0.7527777777777942,0.7569444444444287,0.9614678899082536,0.03318428074908464,0.9278519734770321,91.66666666666667,1.0999999999868,0.9944954128440792,0.004001973196864128,0.9978334510815271,0
486,385.77222222222224,0.7527777777777942,0.8388888888888459,0.7597222222222229,0.9908592321755235,0.03311376619567823,0.9258803451620568,97.22222222222223,1.1666666666526668,1.1042047531992112,0.05280648171901703,0.9979414784264349,0
487,386.6111111111111,0.8388888888888459,0.8666666666666742,0.7750000000000057,1.0824372759855998,0.03289181978859842,0.9196745933070667,100.0,1.1999999999856,1.1182795698924748,0.04684201627969742,0.996640207938187,0
488,387.47777777777776,0.8666666666666742,0.8555555555555543,0.7874999999999943,1.100529100529118,0.03455656063807709,0.9662217248901198,97.22222222222223,1.1666666666526668,1.086419753086426,0.009320437908172607,0.9983959871695398,0
489,388.3333333333333,0.8555555555555543,0.830555555555577,0.7958333333333201,1.0750436300174684,0.03430035184270072,0.9590579765416282,91.66666666666667,1.0999999999868,1.0436300174520514,0.0010632373159751296,0.9989052142011923,0
490,389.1638888888889,0.830555555555577,0.8166666666666629,0.8111111111111313,1.023972602739727,0.03489025014133151,0.9755518793227037,88.88888888888889,1.0666666666538667,1.0068493150684634,0.0009144943323917687,0.9987224601550445,0
491,389.98055555555555,0.8166666666666629,0.44999999999998863,0.8194444444444571,0.9966101694915054,0.03345213261574534,0.9353412689347164,80.55555555555556,0.9666666666550667,0.549152542372859,7.6425785664469e-06,0.9987090920032835,0
492,390.43055555555554,0.44999999999998863,1.1611111111110972,0.7847222222222285,0.5734513274336093,0.037611165590754746,1.051630272839825,108.33333333333333,1.2999999999843999,1.4796460176990853,0.9660511016845703,0.18803093036704144,1
493,391.59166666666664,1.1611111111110972,0.8555555555555543,0.82361111111112,1.4097807757166627,0.03318630344403014,0.9279085292153082,86.11111111111111,1.0333333333209334,1.0387858347386045,2.043366578163841e-07,0.9978632970664645,0
494,392.4472222222222,0.8555555555555543,0.9111111111111541,0.8347222222222115,1.0249584026622414,0.03384092288286398,0.9462120730766637,91.66666666666667,1.0999999999868,1.0915141430949074,0.005573224741965532,0.9974985218981318,0
495,393.35833333333335,0.9111111111111541,0.5722222222221944,0.8472222222222001,1.0754098360656525,0.034937661713070264,0.9768775347056268,97.22222222222223,1.1666666666526668,0.6754098360655586,0.000640787067823112,0.9980653289893234,0
496,393.93055555555554,0.5722222222221944,1.2138888888889028,0.8472222222222001,0.6754098360655586,0.044797049027363006,1.252551792828376,72.22222222222223,0.8666666666562668,1.4327868852459553,0.9728270769119263,0.8880698768391961,1
497,395.14444444444445,1.2138888888889028,0.8222222222221944,0.8555555555555543,1.4188311688311872,0.03512946699304951,0.9822405229499016,77.77777777777777,0.9333333333221333,0.9610389610389299,9.94579973934151e-10,0.9993375125728576,0
498,395.96666666666664,0.8222222222221944,0.8083333333333371,0.8430555555555657,0.9752883031301036,0.04011499150099265,1.121638715379935,91.66666666666667,1.0999999999868,0.9588138385502402,0.01494573149830103,0.9986463081679334,0
499,396.775,0.8083333333333371,0.8222222222222513,0.8263888888888857,0.97815126050421,0.035163467534072915,0.9831911980399055,75.0,0.8999999999892,0.9949579831933163,1.4254653251555283e-05,0.9990666237424941,0
500,397.59722222222223,0.8222222222222513,0.8444444444444343,0.8222222222222229,1.0000000000000346,0.03293915203290965,0.9209980306485399,77.77777777777777,0.9333333333221333,1.0270270270270139,8.26471205073176e-06,0.9993923995068256,0
501,398.44166666666666,0.8444444444444343,0.8694444444444684,0.8333333333333428,1.0133333333333097,0.035476024568649164,0.9919304762405851,88.88888888888889,1.0666666666538667,1.0433333333333503,0.0017859549261629581,0.9993374268032791,0
502,399.31111111111113,0.8694444444444684,0.9111111111110972,0.8499999999999943,1.022875816993499,0.03447872750810339,0.9640454648773129,75.0,0.8999999999892,1.0718954248365922,5.06066817251849e-06,0.9990316756195113,0
503,400.22222222222223,0.9111111111110972,0.8888888888888573,0.8499999999999943,1.0718954248365922,0.03491382520634546,0.9762110519822963,86.11111111111111,1.0333333333209334,1.045751633986898,0.00011574163363547996,0.9990917084553326,0
504,401.1111111111111,0.8888888888888573,0.7861111111111541,0.8569444444444514,1.037277147487799,0.0352040799401886,0.9843267447599631,75.0,0.8999999999892,0.9173419773096051,1.1326618505336228e-06,0.9993075361109729,0
505,401.89722222222224,0.7861111111111541,0.4333333333333371,0.8333333333333428,0.9433333333333741,0.03728030270007588,1.0423791521544636,77.77777777777777,0.9333333333221333,0.5199999999999987,7.455466402461752e-05,0.9982977894399234,0
506,402.3305555555556,0.4333333333333371,1.2444444444444116,0.8333333333333428,0.5199999999999987,0.03941913371394994,1.1021821230900826,102.77777777777777,1.2333333333185332,1.493333333333277,0.9645081162452698,0.3125285375009189,1
507,403.575,1.2444444444444116,0.8722222222222058,0.8333333333333428,1.493333333333277,0.035486831780320756,0.992232652224241,69.44444444444444,0.8333333333233334,1.046666666666635,4.85090873719729e-12,0.9977899741868115,0
508,404.4472222222222,0.8722222222222058,0.8777777777777942,0.8569444444444514,1.01782820097242,0.03613747711761244,1.010425077873134,83.33333333333333,0.9999999999879999,1.0243111831442573,0.00027297111228108406,0.9983904936296952,0
509,405.325,0.8777777777777942,0.8611111111111427,0.8708333333333371,1.0079744816587066,0.0364858317983649,1.0201652792790377,86.11111111111111,1.0333333333209334,0.9888357256778629,0.0005252502742223442,0.9994746575126846,0
510,406.18611111111113,0.8611111111111427,0.8388888888888459,0.8708333333333371,0.9888357256778629,0.03950900812138958,1.1046950642907216,83.33333333333333,0.9999999999879999,0.9633173843699624,0.0012166000669822097,0.9975949181609449,0
511,407.025,0.8388888888888459,0.8027777777778056,0.8708333333333371,0.9633173843699624,0.03494738810585999,0.9771494903587565,80.55555555555556,0.9666666666550667,0.9218500797448445,6.154410220915452e-05,0.9988550989201046,0
512,407.8277777777778,0.8027777777778056,0.7555555555555316,0.8666666666666742,0.9262820512820752,0.03509069580420387,0.9811564577457621,72.22222222222223,0.8666666666562668,0.8717948717948365,1.5579676983179525e-05,0.9977332634772949,0
513,408.5833333333333,0.7555555555555316,0.7861111111111541,0.8499999999999943,0.8888888888888666,0.03349798557337461,0.9366233445520176,80.55555555555556,0.9666666666550667,0.9248366013072462,0.0002697048184927553,0.9995961572774115,0
514,409.36944444444447,0.7861111111111541,0.6027777777777601,0.8208333333333258,0.9576988155668971,0.034645722776117445,0.9687147506201548,80.55555555555556,0.9666666666550667,0.7343485617597145,3.80671517632436e-05,0.999809413369926,0
515,409.97222222222223,0.6027777777777601,1.180555555555543,0.8208333333333258,0.7343485617597145,0.046676598031308726,1.305105086532231,122.22222222222223,1.4666666666490669,1.4382402707275783,0.9884765148162842,0.2858380734467917,1
516,411.15277777777777,1.180555555555543,0.8722222222222058,0.8499999999999943,1.3888888888888833,0.03632413586949286,1.0156441661700466,94.44444444444444,1.1333333333197333,1.0261437908496607,1.83880802069325e-05,0.9983954170590833,0
517,412.025,0.8722222222222058,0.8250000000000455,0.8499999999999943,1.0261437908496607,0.036611506940667414,1.0236792300463935,77.77777777777777,0.9333333333221333,0.9705882352941776,1.2399274964991491e-05,0.9995046780433816,0
518,412.85,0.8250000000000455,0.4916666666666174,0.8319444444444457,0.9916527545910381,0.0334702345479845,0.9358474095884448,83.33333333333333,0.9999999999879999,0.5909849749582037,1.6050769772846252e-05,0.9989281842260693,0
