beat_index,peak_time_s,rr_prev_s,rr_next_s,rr_baseline_s,prematurity_index,aa_ratio,morph_index,qrs_width_ms,width_index,pause_index,pvc_score,morphology_score,is_pvc_candidate
0,0.3472222222222222,,0.525,0.533333333333303,,0.01979711484573545,1.0121496067189866,33.333333333333336,0.9999999999700001,0.984375000000056,1.880191394672069e-24,0.9965700828600945,0
1,0.8722222222222222,0.525,0.5277777777777777,0.533333333333303,0.984375000000056,0.018912774781191147,0.9669367332518625,33.333333333333336,0.9999999999700001,0.9895833333333894,2.232692143632034e-21,0.9948870286789545,0
2,1.4,0.5277777777777777,0.5833333333333335,0.533333333333303,0.9895833333333894,0.020880991488204242,1.0675640105831437,33.333333333333336,0.9999999999700001,1.0937500000000624,1.1212355654973863e-19,0.9975575212715633,0
3,1.9833333333333334,0.5833333333333335,0.5222222222222221,0.533333333333303,1.0937500000000624,0.01964130465260704,1.004183636580075,30.555555555555557,0.9166666666391667,0.9791666666667221,1.9234898396280897e-10,0.8998252044280879,0
4,2.5055555555555555,0.5222222222222221,0.547222222222222,0.533333333333303,0.9791666666667221,0.019970839295271832,1.0210314632241326,30.555555555555557,0.9166666666391667,1.0260416666667247,9.843811988692588e-21,0.995850134830647,0
5,3.0527777777777776,0.547222222222222,0.5444444444444447,0.5277777777777777,1.0368421052631578,0.018621471298579353,0.9520435173636437,30.555555555555557,0.9166666666391667,1.0315789473684218,2.0306408087027672e-22,0.9979648552359772,0
6,3.5972222222222223,0.5444444444444447,0.5194444444444439,0.5361111111111112,1.0155440414507775,0.02116514146569942,1.082091495532947,38.888888888888886,1.1666666666316665,0.9689119170984445,1.3554380557628807e-19,0.9930190385735604,0
7,4.116666666666666,0.5194444444444439,0.5194444444444448,0.5277777777777777,0.9842105263157886,0.019409636139718547,0.9923393251217429,33.333333333333336,0.9999999999700001,0.9842105263157903,2.249465371204499e-21,0.9979449048530684,0
8,4.636111111111111,0.5194444444444448,0.5194444444444448,0.5263888888888888,0.9868073878627978,0.018876494203162664,0.965081848180517,30.555555555555557,0.9166666666391667,0.9868073878627978,2.3350264619186693e-21,0.9937132284318826,0
9,5.155555555555556,0.5194444444444448,0.5194444444444439,0.525,0.9894179894179901,0.01872541359303407,0.9573576832546636,30.555555555555557,0.9166666666391667,0.9894179894179884,6.975304720723542e-21,0.9900451059655067,0
10,5.675,0.5194444444444439,0.4972222222222227,0.523611111111111,0.9920424403183016,0.018120217451062424,0.9264163545884615,27.77777777777778,0.8333333333083334,0.9496021220159161,1.808579114455694e-21,0.987501499217235,0
11,6.1722222222222225,0.4972222222222227,0.5166666666666666,0.5208333333333335,0.9546666666666672,0.018281010141499528,0.9346370604669375,30.555555555555557,0.9166666666391667,0.9919999999999997,2.296721698767642e-21,0.9944172158808393,0
12,6.688888888888889,0.5166666666666666,0.5194444444444439,0.5194444444444448,0.9946524064171115,0.0183766533368711,0.939526925648557,33.333333333333336,0.9999999999700001,0.9999999999999983,7.340906434568476e-21,0.9912942737575934,0
13,7.208333333333333,0.5194444444444439,0.5333333333333332,0.5194444444444444,0.9999999999999991,0.017500052276736636,0.894709717425124,30.555555555555557,0.9166666666391667,1.0267379679144384,7.672128454204175e-22,0.9926944565007836,0
14,7.741666666666666,0.5333333333333332,0.5666666666666673,0.5194444444444444,1.0267379679144384,0.019704671828536132,1.007423354220514,30.555555555555557,0.9166666666391667,1.0909090909090924,1.1940220471851542e-20,0.9969203347397066,0
15,8.308333333333334,0.5666666666666673,0.5805555555555557,0.5194444444444444,1.0909090909090924,0.020868834100225213,1.0669424505448455,33.333333333333336,0.9999999999700001,1.1176470588235299,2.751283884448977e-19,0.992411662356607,0
16,8.88888888888889,0.5805555555555557,0.5555555555555554,0.5194444444444444,1.1176470588235299,0.022437674156057567,1.1471511505442682,38.888888888888886,1.1666666666316665,1.06951871657754,4.194249074452179e-18,0.9892557494769334,0
17,9.444444444444445,0.5555555555555554,0.5722222222222229,0.5194444444444448,1.069518716577539,0.018736313832905853,0.9579149701919439,33.333333333333336,0.9999999999700001,1.1016042780748667,2.1047620783831376e-21,0.9975240171336407,0
18,10.016666666666667,0.5722222222222229,0.5111111111111111,0.526388888888889,1.0870712401055418,0.01890883151241439,0.9667351292316463,33.333333333333336,0.9999999999700001,0.9709762532981527,8.487700946982439e-23,0.9980447936028827,0
19,10.527777777777779,0.5111111111111111,0.5083333333333329,0.5263888888888886,0.9709762532981535,0.017852343429541537,0.9127209960654996,33.333333333333336,0.9999999999700001,0.9656992084432714,6.00666562113338e-22,0.9948028211792224,0
20,11.036111111111111,0.5083333333333329,0.5027777777777782,0.5263888888888886,0.9656992084432714,0.018027436202691774,0.9216728096436041,30.555555555555557,0.9166666666391667,0.9551451187335106,2.5238988972386966e-21,0.9894389032522546,0
21,11.53888888888889,0.5027777777777782,0.5166666666666657,0.5263888888888886,0.9551451187335106,0.017917973315532094,0.9160763972849183,30.555555555555557,0.9166666666391667,0.9815303430079143,6.615907568292127e-22,0.9947830497212493,0
22,12.055555555555555,0.5166666666666657,0.5027777777777782,0.5263888888888886,0.9815303430079143,0.017494319791088887,0.8944166376941074,30.555555555555557,0.9166666666391667,0.9551451187335106,4.009081088341701e-21,0.9846290723704053,0
23,12.558333333333334,0.5027777777777782,0.530555555555555,0.5249999999999995,0.9576719576719595,0.018594340516627086,0.9506564258355628,30.555555555555557,0.9166666666391667,1.0105820105820105,1.223218372413365e-21,0.9976294946741816,0
24,13.088888888888889,0.530555555555555,0.5527777777777789,0.5236111111111104,1.0132625994694964,0.017714337223091552,0.905665274629746,33.333333333333336,0.9999999999700001,1.055702917771887,7.54538241237603e-21,0.9892018275594928,0
25,13.641666666666667,0.5527777777777789,0.5583333333333318,0.5236111111111104,1.055702917771887,0.020361018629155764,1.0409798174372502,33.333333333333336,0.9999999999700001,1.0663129973474788,1.217093681588778e-20,0.9976781717073469,0
26,14.2,0.5583333333333318,0.5472222222222225,0.5236111111111104,1.0663129973474788,0.017644156256977832,0.9020771943561974,30.555555555555557,0.9166666666391667,1.0450928381962885,1.1393338824909407e-22,0.9948547711428259,0
27,14.747222222222222,0.5472222222222225,0.5416666666666679,0.5236111111111104,1.0450928381962885,0.01991722468690138,1.0182903564921972,33.333333333333336,0.9999999999700001,1.0344827586206935,8.75961085018285e-21,0.9955052922206249,0
28,15.28888888888889,0.5416666666666679,0.5166666666666657,0.5236111111111104,1.0344827586206935,0.019458471010016076,0.9948360624064925,36.111111111111114,1.0833333333008335,0.9867374005305036,3.500987012668137e-21,0.9962942164007969,0
29,15.805555555555555,0.5166666666666657,0.5194444444444439,0.5236111111111104,0.9867374005305036,0.019257922789256508,0.9845828106396718,33.333333333333336,0.9999999999700001,0.9920424403183028,3.449907317373281e-20,0.9903249644427057,0
30,16.325,0.5194444444444439,0.5361111111111114,0.5249999999999995,0.9894179894179894,0.01933160351493294,0.9883498200295392,36.111111111111114,1.0833333333008335,1.0211640211640227,5.993808233461205e-20,0.9920853595616187,0
31,16.86111111111111,0.5361111111111114,0.5250000000000021,0.5333333333333332,1.0052083333333341,0.018758507226503657,0.9590496322261249,33.333333333333336,0.9999999999700001,0.9843750000000042,3.8579799190088306e-22,0.9975607489306755,0
32,17.386111111111113,0.5250000000000021,0.47499999999999787,0.5333333333333332,0.9843750000000042,0.016229641192308655,0.8297585318864791,27.77777777777778,0.8333333333083334,0.8906249999999962,2.122330174825478e-21,0.9744036565477985,0
33,17.86111111111111,0.47499999999999787,0.56111111111111,0.5333333333333332,0.8906249999999962,0.05215368630884668,2.6664154599181717,83.33333333333333,2.499999999925,1.0520833333333315,0.9999971389770508,0.759629491175549,1
34,18.42222222222222,0.56111111111111,0.5166666666666693,0.5388888888888896,1.0412371134020584,0.01833799857747412,0.9375506579031638,33.333333333333336,0.9999999999700001,0.9587628865979416,2.6628287001104754e-23,0.9987064302697839,0
35,18.93888888888889,0.5166666666666693,0.5416666666666643,0.5305555555555568,0.9738219895287985,0.02034652191312128,1.0402386566394595,33.333333333333336,0.9999999999700001,1.0209424083769565,4.3886778257339796e-20,0.995809617743378,0
36,19.480555555555554,0.5416666666666643,0.5666666666666664,0.5305555555555568,1.0209424083769565,0.01836365096847208,0.9388621650425781,30.555555555555557,0.9166666666391667,1.068062827225128,2.630783213765353e-22,0.9987062015547865,0
37,20.04722222222222,0.5666666666666664,0.5444444444444443,0.5305555555555568,1.068062827225128,0.019631626809437246,1.0036888460394067,33.333333333333336,0.9999999999700001,1.0261780104712015,1.8845745156984777e-21,0.9953774098003241,0
38,20.591666666666665,0.5444444444444443,0.56666666666667,0.5305555555555568,1.0261780104712015,0.01968819778476369,1.0065811003337592,33.333333333333336,0.9999999999700001,1.0680628272251347,5.110898185062621e-21,0.9978776435017072,0
39,21.158333333333335,0.56666666666667,0.5555555555555536,0.5388888888888879,1.0515463917525856,0.02045786314020558,1.0459311012245984,33.333333333333336,0.9999999999700001,1.0309278350515447,3.651242674571904e-21,0.9970232028732193,0
40,21.71388888888889,0.5555555555555536,0.56111111111111,0.5430555555555543,1.023017902813298,0.020103033092822454,1.0277900187633695,30.555555555555557,0.9166666666391667,1.0332480818414327,7.834053905872832e-21,0.9925128138183101,0
41,22.275,0.56111111111111,0.5194444444444457,0.5499999999999989,1.02020202020202,0.018260727929437934,0.9336001097232813,30.555555555555557,0.9166666666391667,0.9444444444444485,1.887011294412931e-23,0.9960310745462637,0
42,22.794444444444444,0.5194444444444457,0.5138888888888893,0.5499999999999989,0.9444444444444485,0.017939758437389,0.9171901859703713,30.555555555555557,0.9166666666391667,0.9343434343434369,2.8981813122153295e-22,0.991439820565803,0
43,23.308333333333334,0.5138888888888893,0.5,0.5499999999999989,0.9343434343434369,0.018515685582436117,0.9466351044799892,30.555555555555557,0.9166666666391667,0.9090909090909108,4.8597835388480505e-22,0.9920874786478491,0
44,23.808333333333334,0.5,0.5083333333333329,0.5430555555555543,0.9207161125319715,0.01721670329011124,0.8802231840281175,30.555555555555557,0.9166666666391667,0.9360613810741701,2.605376086600974e-22,0.9915519645970061,0
45,24.316666666666666,0.5083333333333329,0.56111111111111,0.5430555555555543,0.9360613810741701,0.01791457449608296,0.9159026288446402,30.555555555555557,0.9166666666391667,1.0332480818414327,1.3927823200510662e-21,0.9937493400629537,0
46,24.877777777777776,0.56111111111111,0.408333333333335,0.5499999999999989,1.02020202020202,0.02056899987034749,1.0516130906751673,30.555555555555557,0.9166666666391667,0.7424242424242469,8.200328749374819e-10,0.8729423215419012,0
47,25.28611111111111,0.408333333333335,0.30833333333333357,0.531944444444445,0.7676240208877307,0.03996811122415155,2.0434143243625194,77.77777777777777,2.333333333263333,0.5796344647519581,0.999248206615448,0.8372911302856321,1
48,25.594444444444445,0.30833333333333357,0.9305555555555536,0.5166666666666675,0.5967741935483866,0.036718133295286795,1.877255573040508,75.0,2.2499999999325,1.8010752688171976,0.9999606609344482,0.837171284095477,1
49,26.525,0.9305555555555536,0.5444444444444443,0.5166666666666675,1.8010752688171976,0.019754106604363903,1.0099507623454962,30.555555555555557,0.9166666666391667,1.053763440860213,6.617780808028798e-28,0.9952991750543125,0
50,27.069444444444443,0.5444444444444443,0.5527777777777807,0.5166666666666675,1.053763440860213,0.019134807822788577,0.978288420479149,27.77777777777778,0.8333333333083334,1.0698924731182835,8.61746357776602e-20,0.984126807730308,0
51,27.622222222222224,0.5527777777777807,0.5333333333333314,0.5166666666666675,1.0698924731182835,0.019485140144067718,0.9961995516700667,30.555555555555557,0.9166666666391667,1.0322580645161237,1.5928113942725808e-21,0.9960404608656457,0
52,28.155555555555555,0.5333333333333314,0.5444444444444443,0.5236111111111104,1.0185676392572922,0.018948285222172657,0.9687522442065608,30.555555555555557,0.9166666666391667,1.0397877984084893,4.0588153226714514e-21,0.9932556557768212,0
53,28.7,0.5444444444444443,0.4194444444444443,0.5388888888888879,1.0103092783505172,0.019392260899194314,0.9914509965445595,30.555555555555557,0.9166666666391667,0.7783505154639188,8.247370564262724e-10,0.8691346034302976,0
54,29.119444444444444,0.4194444444444443,0.38333333333333286,0.5388888888888879,0.7783505154639188,0.05005602927262178,2.5591704011916625,86.11111111111111,2.5833333332558337,0.7113402061855675,0.9999942779541016,0.7651723952143864,1
55,29.502777777777776,0.38333333333333286,0.7083333333333357,0.5388888888888879,0.7113402061855675,0.04289584796000296,2.1930981347995266,80.55555555555556,2.4166666665941667,1.3144329896907285,0.9999958276748657,0.8164936199592238,1
56,30.211111111111112,0.7083333333333357,0.5444444444444443,0.5388888888888879,1.3144329896907285,0.022182938552477247,1.1341275083120423,36.111111111111114,1.0833333333008335,1.0103092783505172,5.860430246838109e-22,0.9931009113452548,0
57,30.755555555555556,0.5444444444444443,0.5055555555555564,0.5444444444444443,1.0,0.018920181954394905,0.9673154332545397,25.0,0.7499999999775,0.9285714285714305,7.013176706038848e-10,0.8624882865836053,0
58,31.261111111111113,0.5055555555555564,0.5666666666666664,0.5444444444444443,0.9285714285714305,0.02041456684727456,1.0437175298934225,33.333333333333336,0.9999999999700001,1.040816326530612,3.5825104441731545e-19,0.9921245456600793,0
59,31.82777777777778,0.5666666666666664,0.5416666666666679,0.5444444444444443,1.040816326530612,0.019816936699959466,1.01316302115405,30.555555555555557,0.9166666666391667,0.994897959183676,1.5409137854582866e-10,0.9056073861988037,0
60,32.36944444444445,0.5416666666666679,0.5277777777777786,0.5430555555555561,0.997442455242968,0.02194798010527555,1.1221149952876142,33.333333333333336,0.9999999999700001,0.9718670076726348,3.272056758873987e-08,0.891427339520167,0
61,32.897222222222226,0.5277777777777786,0.5777777777777757,0.5374999999999996,0.9819121447028445,0.020485666949716253,1.0473526020382677,30.555555555555557,0.9166666666391667,1.0749354005167928,2.1191690039482041e-19,0.9910430588445843,0
62,33.475,0.5777777777777757,0.5527777777777771,0.5430555555555561,1.0639386189258264,0.022189049572078637,1.134439941014201,38.888888888888886,1.1666666666316665,1.0179028132992307,8.784148355260668e-19,0.9893976460704557,0
63,34.02777777777778,0.5527777777777771,0.5194444444444457,0.5430555555555561,1.0179028132992307,0.01760218024250353,0.8999311237356621,27.77777777777778,0.8333333333083334,0.9565217391304363,3.6387962417794933e-22,0.9847349611495523,0
64,34.547222222222224,0.5194444444444457,0.5055555555555529,0.5430555555555561,0.9565217391304363,0.01893582420269056,0.9681151606685603,33.333333333333336,0.9999999999700001,0.9309462915600965,7.274501158552479e-22,0.9954713086312506,0
65,35.05277777777778,0.5055555555555529,0.49722222222222,0.5430555555555561,0.9309462915600965,0.017242590909384722,0.8815467174758305,30.555555555555557,0.9166666666391667,0.9156010230178979,7.263381880103463e-22,0.986840967656708,0
66,35.55,0.49722222222222,0.4972222222222271,0.5347222222222232,0.9298701298701241,0.017695097046890363,0.9046815991332414,30.555555555555557,0.9166666666391667,0.9298701298701373,5.320413179140786e-22,0.9921711805491733,0
67,36.047222222222224,0.4972222222222271,0.5111111111111057,0.5236111111111121,0.9496021220159226,0.016907051689432687,0.8643919001118041,30.555555555555557,0.9166666666391667,0.976127320954895,1.0278472378472546e-21,0.989388404209792,0
68,36.55833333333333,0.5111111111111057,0.5,0.5236111111111121,0.976127320954895,0.019306725601024973,0.9870779088963186,33.333333333333336,0.9999999999700001,0.9549071618037116,1.8657902860410998e-21,0.9978707196631424,0
69,37.05833333333333,0.5,0.5611111111111171,0.5152777777777757,0.9703504043126723,0.018223469155572658,0.9316952132972905,33.333333333333336,0.9999999999700001,1.0889487870620105,1.1138003103897857e-20,0.99683567578032,0
70,37.61944444444445,0.5611111111111171,0.5277777777777786,0.5152777777777757,1.0889487870620105,0.022006918998102382,1.1251283120087614,33.333333333333336,0.9999999999700001,1.0242587601078224,1.969410234892166e-08,0.8986546191527913,0
71,38.147222222222226,0.5277777777777786,0.5694444444444429,0.5152777777777757,1.0242587601078224,0.019177662624015036,0.9804794200538534,30.555555555555557,0.9166666666391667,1.1051212938005404,3.315592572940276e-20,0.9934336851235618,0
72,38.71666666666667,0.5694444444444429,0.55833333333333,0.5152777777777757,1.1051212938005404,0.019371881868494107,0.9904090958398731,33.333333333333336,0.9999999999700001,1.0835579514824776,1.6327693877377205e-20,0.9919026220538855,0
73,39.275,0.55833333333333,0.5388888888888914,0.5152777777777757,1.0835579514824776,0.02183491299619475,1.116334313057868,41.666666666666664,1.2499999999625,1.0458221024258851,1.4251453414645486e-17,0.9862789571720773,0
74,39.81388888888889,0.5388888888888914,0.5138888888888857,0.5194444444444422,1.0374331550802234,0.020459658874391703,1.0460229101404137,36.111111111111114,1.0833333333008335,0.9893048128342229,6.831292414519346e-20,0.9930108246933143,0
75,40.327777777777776,0.5138888888888857,0.5083333333333329,0.5208333333333321,0.9866666666666628,0.018128867369115412,0.9268585913095042,33.333333333333336,0.9999999999700001,0.9760000000000013,2.178095193977658e-21,0.9927988727120711,0
76,40.83611111111111,0.5083333333333329,0.5138888888888928,0.5208333333333321,0.9760000000000013,0.01834718207093307,0.9380201742627552,33.333333333333336,0.9999999999700001,0.9866666666666765,1.6527211012425667e-21,0.9958487825731942,0
77,41.35,0.5138888888888928,0.36944444444444,0.5208333333333357,0.9866666666666698,0.01742762678672461,0.8910068833604979,30.555555555555557,0.9166666666391667,0.7093333333333216,4.632512301846206e-24,0.9929308346096835,0
78,41.71944444444444,0.36944444444444,0.6750000000000043,0.5208333333333357,0.7093333333333216,0.04067714351964624,2.079664392346067,66.66666666666667,1.9999999999400002,1.2960000000000023,0.9999940395355225,0.8548021381779416,1
79,42.394444444444446,0.6750000000000043,0.5388888888888843,0.533333333333335,1.265625000000004,0.019395386007138388,0.9916107711784491,36.111111111111114,1.0833333333008335,1.010416666666655,1.5260976483990933e-23,0.99570879062641,0
80,42.93333333333333,0.5388888888888843,0.5388888888888914,0.5333333333333314,1.0104166666666616,0.01855669070142628,0.9487315369845619,30.555555555555557,0.9166666666391667,1.010416666666675,8.490620237202736e-22,0.9932986457418582,0
81,43.47222222222222,0.5388888888888914,0.5500000000000043,0.5388888888888879,1.0000000000000067,0.017373511982006085,0.8882402035316274,27.77777777777778,0.8333333333083334,1.0206185567010408,4.54045617851144e-22,0.9877992950752681,0
82,44.022222222222226,0.5500000000000043,0.5444444444444443,0.5388888888888879,1.0206185567010408,0.017813654006113205,0.9107429560827894,27.77777777777778,0.8333333333083334,1.0103092783505172,2.2767455697022348e-21,0.9833867363380133,0
83,44.56666666666667,0.5444444444444443,0.55833333333333,0.5388888888888879,1.0103092783505172,0.0198298273714083,1.013822071128703,33.333333333333336,0.9999999999700001,1.0360824742268,2.9937986755315125e-21,0.997828363634413,0
84,45.125,0.55833333333333,0.5361111111111114,0.5388888888888879,1.0360824742268,0.019042149229229796,0.9735511463985344,33.333333333333336,0.9999999999700001,0.9948453608247447,1.3844862296314296e-22,0.9992354929435201,0
85,45.66111111111111,0.5361111111111114,0.5722222222222229,0.5388888888888879,0.9948453608247447,0.019059329197300495,0.9744294914534426,30.555555555555557,0.9166666666391667,1.061855670103096,4.195650706150756e-21,0.99381064136133,0
86,46.233333333333334,0.5722222222222229,0.4638888888888886,0.5416666666666679,1.0564102564102553,0.01773127550300992,0.9065312631079391,27.77777777777778,0.8333333333083334,0.8564102564102539,1.8493000533692516e-11,0.8863828813208854,0
87,46.69722222222222,0.4638888888888886,0.5416666666666643,0.5416666666666679,0.8564102564102539,0.052667300097182346,2.6926745384718016,86.11111111111111,2.5833333332558337,0.9999999999999934,0.9999974966049194,0.7617175454809735,1
88,47.23888888888889,0.5416666666666643,0.48611111111111427,0.5430555555555543,0.9974424552429647,0.017732189806944347,0.9065780079177188,33.333333333333336,0.9999999999700001,0.8951406649616447,1.0836737502847187e-22,0.9909394644903216,0
89,47.725,0.48611111111111427,0.5055555555555529,0.5402777777777779,0.8997429305912653,0.018135454313868718,0.9271953562165873,30.555555555555557,0.9166666666391667,0.935732647814905,1.290788991623878e-21,0.9936699220368763,0
90,48.230555555555554,0.5055555555555529,0.5,0.5402777777777779,0.935732647814905,0.016616764718868686,0.8495506545373112,27.77777777777778,0.8333333333083334,0.9254498714652954,1.93815465520046e-21,0.9800028440834213,0
91,48.730555555555554,0.5,0.5222222222222257,0.5388888888888879,0.9278350515463936,0.017388379495997853,0.8890003217891066,27.77777777777778,0.8333333333083334,0.9690721649484619,3.1763581536387564e-22,0.9916927836936821,0
92,49.25277777777778,0.5222222222222257,0.5472222222222172,0.5291666666666686,0.9868766404199505,0.019266717869477593,0.9850324689386815,33.333333333333336,0.9999999999700001,1.0341207349081232,5.438219369563536e-21,0.9968337387035717,0
93,49.8,0.5472222222222172,0.5611111111111171,0.5291666666666686,1.0341207349081232,0.021270517269540802,1.0874789511923624,36.111111111111114,1.0833333333008335,1.060367454068249,2.306768655490344e-19,0.9945860763353276,0
94,50.361111111111114,0.5611111111111171,0.5499999999999972,0.5291666666666686,1.060367454068249,0.02155966317178958,1.1022618583748476,36.111111111111114,1.0833333333008335,1.0393700787401483,4.509926218415944e-19,0.9912514729960917,0
95,50.91111111111111,0.5499999999999972,0.38888888888888573,0.531944444444445,1.03394255874673,0.021284607584813972,1.0881993342973457,33.333333333333336,0.9999999999700001,0.7310704960835442,1.691281934954316e-21,0.9932179246275928,0
96,51.3,0.38888888888888573,0.69166666666667,0.5138888888888893,0.75675675675675,0.03540154591416695,1.8099435727619075,50.0,1.499999999955,1.3459459459459513,0.9999860525131226,0.8835980290170231,1
97,51.99166666666667,0.69166666666667,0.5111111111111128,0.531944444444445,1.300261096605749,0.0198868666397266,1.016738267425273,33.333333333333336,0.9999999999700001,0.9608355091383834,1.240107092377798e-24,0.9987698260191782,0
98,52.50277777777778,0.5111111111111128,0.5111111111111057,0.5166666666666693,0.9892473118279553,0.017301152293725995,0.8845407336540367,27.77777777777778,0.8333333333083334,0.9892473118279416,3.1079677754190866e-21,0.9853883900836253,0
99,53.013888888888886,0.5111111111111057,0.4972222222222271,0.5166666666666693,0.9892473118279416,0.018543331273204358,0.9480485212963582,30.555555555555557,0.9166666666391667,0.962365591397854,2.2922563673908565e-22,0.9992959150100036,0
100,53.51111111111111,0.4972222222222271,0.49722222222222,0.5166666666666693,0.962365591397854,0.01685976842816286,0.8619744905714964,30.555555555555557,0.9166666666391667,0.9623655913978403,2.5566228165840836e-21,0.9863402425467751,0
101,54.00833333333333,0.49722222222222,0.3083333333333371,0.5166666666666693,0.9623655913978403,0.019064694789456597,0.9747038133449369,33.333333333333336,0.9999999999700001,0.5967741935483915,2.1625862832443216e-23,0.9984127486742569,0
102,54.31666666666667,0.3083333333333371,0.7305555555555543,0.5111111111111093,0.603260869565227,0.03144064231755883,1.6074379526855396,36.111111111111114,1.0833333333008335,1.4293478260869592,0.9997064471244812,0.9137336235108788,1
103,55.047222222222224,0.7305555555555543,0.5388888888888843,0.5111111111111093,1.4293478260869592,0.02173791394243933,1.1113751281020958,33.333333333333336,0.9999999999700001,1.0543478260869512,9.544362459041707e-23,0.9959545014642687,0
104,55.58611111111111,0.5388888888888843,0.5555555555555571,0.5111111111111093,1.0543478260869512,0.018289780808341562,0.9350854706046774,30.555555555555557,0.9166666666391667,1.0869565217391375,1.2441371561817202e-20,0.9899747615403984,0
105,56.141666666666666,0.5555555555555571,0.5333333333333314,0.5111111111111093,1.0869565217391375,0.021347457812680735,1.0914126223907492,36.111111111111114,1.0833333333008335,1.0434782608695652,3.3457186200964277e-19,0.9931985159699775,0
106,56.675,0.5333333333333314,0.5361111111111114,0.5222222222222221,1.0212765957446774,0.01914307667336812,0.97871117470002,33.333333333333336,0.9999999999700001,1.0265957446808518,1.5036549153661283e-21,0.9984047050171962,0
107,57.21111111111111,0.5361111111111114,0.5555555555555571,0.5222222222222221,1.0265957446808518,0.021523717462516457,1.100424093842615,36.111111111111114,1.0833333333008335,1.0638297872340456,3.794871230364186e-19,0.9960605708977036,0
108,57.766666666666666,0.5555555555555571,0.5583333333333371,0.5347222222222214,1.0389610389610435,0.02016439563940077,1.0309272474893976,33.333333333333336,0.9999999999700001,1.0441558441558527,1.0713356527070549e-20,0.9949102263278216,0
109,58.325,0.5583333333333371,0.5111111111111057,0.5374999999999979,1.0387596899224918,0.019942464596435065,1.0195807750560741,33.333333333333336,0.9999999999700001,0.9509043927648516,5.092601761745483e-22,0.9974882945315535,0
110,58.83611111111111,0.5111111111111057,0.5,0.5374999999999979,0.9509043927648516,0.018143524723365927,0.9276079649154969,33.333333333333336,0.9999999999700001,0.9302325581395385,7.545062526123519e-22,0.9930732298561186,0
111,59.33611111111111,0.5,0.49166666666666714,0.5374999999999979,0.9302325581395385,0.019019555376441587,0.9723960104409946,33.333333333333336,0.9999999999700001,0.9147286821705471,8.835012927050711e-22,0.9975363938809404,0
112,59.827777777777776,0.49166666666666714,0.50277777777778,0.5374999999999979,0.9147286821705471,0.016412990320374594,0.8391324608306852,27.77777777777778,0.8333333333083334,0.9354005167958734,1.7402292773756653e-21,0.9818393725410172,0
113,60.330555555555556,0.50277777777778,0.5111111111111128,0.5347222222222214,0.9402597402597458,0.01765361119978123,0.9025605888666894,27.77777777777778,0.8333333333083334,0.9558441558441605,8.968699102065726e-23,0.9957751073512364,0
114,60.84166666666667,0.5111111111111128,0.5444444444444443,0.5222222222222221,0.9787234042553227,0.017793236456784368,0.9096990860701951,27.77777777777778,0.8333333333083334,1.0425531914893615,1.379426745891316e-20,0.9855554283783322,0
115,61.38611111111111,0.5444444444444443,0.5111111111111128,0.5222222222222221,1.0425531914893615,0.018122995259306208,0.9265583731372953,30.555555555555557,0.9166666666391667,0.9787234042553227,3.9350300462145566e-23,0.998668042752688,0
116,61.897222222222226,0.5111111111111128,0.5666666666666629,0.5111111111111128,1.0,0.01983434145527244,1.0140528587077713,36.111111111111114,1.0833333333008335,1.1086956521739018,3.851633139479399e-19,0.9946612098637628,0
117,62.46388888888889,0.5666666666666629,0.5583333333333371,0.5111111111111128,1.1086956521739018,0.01935677825901529,0.9896369069369373,33.333333333333336,0.9999999999700001,1.0923913043478297,1.9773239594165116e-21,0.9990026427514622,0
118,63.022222222222226,0.5583333333333371,0.5749999999999957,0.5111111111111128,1.0923913043478297,0.02207722250867358,1.1287226575045612,38.888888888888886,1.1666666666316665,1.1249999999999878,1.2626857456701539e-17,0.9904066006406286,0
119,63.59722222222222,0.5749999999999957,0.5361111111111185,0.5111111111111128,1.1249999999999878,0.021101580397818818,1.0788418649499407,36.111111111111114,1.0833333333008335,1.0489130434782719,3.7318760629689886e-20,0.9966241993730118,0
120,64.13333333333334,0.5361111111111185,0.5333333333333314,0.5236111111111157,1.023872679045098,0.01988531933774832,1.016659159883543,30.555555555555557,0.9166666666391667,1.018567639257282,6.2627439568684444e-21,0.9950299762035044,0
121,64.66666666666667,0.5333333333333314,0.5,0.534722222222225,0.9974025974025887,0.017447182733946257,0.8920067030030895,27.77777777777778,0.8333333333083334,0.9350649350649303,3.844495168560306e-21,0.9791332197494114,0
122,65.16666666666667,0.5,0.49722222222222,0.534722222222225,0.9350649350649303,0.017905691753066794,0.9154484886873266,30.555555555555557,0.9166666666391667,0.929870129870121,2.9938086719769034e-22,0.9944056034611743,0
123,65.66388888888889,0.49722222222222,0.5111111111111057,0.534722222222225,0.929870129870121,0.019018627948691875,0.9723485946615011,36.111111111111114,1.0833333333008335,0.9558441558441408,4.5453131988914184e-20,0.9906873240970722,0
124,66.175,0.5111111111111057,0.5333333333333314,0.534722222222225,0.9558441558441408,0.020790199156964742,1.0629221512479206,38.888888888888886,1.1666666666316665,0.9974025974025887,1.1305129130550514e-18,0.9906341701618535,0
125,66.70833333333333,0.5333333333333314,0.5277777777777857,0.5333333333333314,1.0,0.01975199400092535,1.0098427531352578,36.111111111111114,1.0833333333008335,0.9895833333333517,5.447877430229303e-20,0.9902706690827809,0
126,67.23611111111111,0.5277777777777857,0.5611111111111029,0.5333333333333314,0.9895833333333517,0.02132942604083969,1.0904907279167528,38.888888888888886,1.1666666666316665,1.0520833333333217,9.213301444376908e-18,0.9866936918937557,0
127,67.79722222222222,0.5611111111111029,0.5416666666666714,0.5333333333333314,1.0520833333333217,0.019640097488879675,1.0041219189863035,36.111111111111114,1.0833333333008335,1.0156250000000124,3.9977816719272556e-20,0.9885293504192987,0
128,68.33888888888889,0.5416666666666714,0.5527777777777771,0.5333333333333314,1.0156250000000124,0.018862073299399422,0.9643445633697638,33.333333333333336,0.9999999999700001,1.036458333333336,5.770849474360618e-22,0.9986978205933441,0
129,68.89166666666667,0.5527777777777771,0.6027777777777743,0.5333333333333314,1.036458333333336,0.019558521369166915,0.9999512487584284,33.333333333333336,0.9999999999700001,1.1302083333333308,2.6630457820098177e-20,0.9952011814131392,0
130,69.49444444444444,0.6027777777777743,0.5388888888888914,0.5333333333333314,1.1302083333333308,0.021388228200383465,1.0934970539960944,30.555555555555557,0.9166666666391667,1.010416666666675,1.7278280139976232e-08,0.8549585639576709,0
131,70.03333333333333,0.5388888888888914,0.50555555555556,0.5361111111111114,1.005181347150263,0.01872280177614379,0.9572241511991636,27.77777777777778,0.8333333333083334,0.9430051813471579,7.675015067931668e-10,0.8824598175716998,0
132,70.53888888888889,0.50555555555556,0.50277777777778,0.5361111111111114,0.9430051813471579,0.019791754136320644,1.011875534463094,36.111111111111114,1.0833333333008335,0.9378238341968947,1.7039106362676888e-20,0.994911881346722,0
133,71.04166666666667,0.50277777777778,0.5138888888888857,0.5361111111111114,0.9378238341968947,0.01929609637060293,0.9865344776198307,36.111111111111114,1.0833333333008335,0.958549222797921,1.9721346127630917e-20,0.9936502703666763,0
134,71.55555555555556,0.5138888888888857,0.49722222222222,0.5361111111111114,0.958549222797921,0.018281945018802585,0.9346848571131657,30.555555555555557,0.9166666666391667,0.9274611398963684,1.2369617935081551e-22,0.9966870456560368,0
135,72.05277777777778,0.49722222222222,0.37777777777778,0.5333333333333385,0.9322916666666534,0.01849263343362808,0.945456537626592,30.555555555555557,0.9166666666391667,0.7083333333333306,6.367961722691287e-24,0.9981223974442,0
136,72.43055555555556,0.37777777777778,0.6499999999999915,0.5263888888888886,0.7176781002638569,0.042632231965365766,2.179620472656533,69.44444444444444,2.0833333332708333,1.234828496042201,0.9999957084655762,0.8324758504904916,1
137,73.08055555555555,0.6499999999999915,0.5333333333333456,0.5263888888888886,1.234828496042201,0.01922369432827984,0.982832842344489,33.333333333333336,0.9999999999700001,1.0131926121372272,9.438525882325817e-24,0.9980306379251365,0
138,73.6138888888889,0.5333333333333456,0.5666666666666629,0.5236111111111157,1.018567639257309,0.018878551727948365,0.9651870414331142,33.333333333333336,0.9999999999700001,1.0822281167108587,2.150487233240134e-21,0.9993612445148639,0
139,74.18055555555556,0.5666666666666629,0.6027777777777743,0.5236111111111157,1.0822281167108587,0.021559761542484256,1.1022668876864772,36.111111111111114,1.0833333333008335,1.151193633952238,1.6182610986202864e-18,0.9928114107581383,0
140,74.78333333333333,0.6027777777777743,0.5666666666666629,0.5236111111111157,1.151193633952238,0.01922385953657743,0.9828412888032148,30.555555555555557,0.9166666666391667,1.0822281167108587,1.885235063644299e-22,0.9973941994590518,0
141,75.35,0.5666666666666629,0.5638888888888971,0.5236111111111157,1.0822281167108587,0.019513023319781723,0.9976251101695207,33.333333333333336,0.9999999999700001,1.076923076923083,1.7688413255169038e-21,0.9983533148184413,0
142,75.91388888888889,0.5638888888888971,0.5083333333333258,0.5486111111111214,1.0278481012658185,0.020435515581345667,1.0447885573192142,33.333333333333336,0.9999999999700001,0.9265822784809815,7.419675798920153e-22,0.9960725449467251,0
143,76.42222222222222,0.5083333333333258,0.3916666666666657,0.5486111111111214,0.9265822784809815,0.020203899905242642,1.0329469472005495,36.111111111111114,1.0833333333008335,0.7139240506328963,2.9044677132145996e-22,0.9984836984641274,0
144,76.81388888888888,0.3916666666666657,0.3111111111111171,0.5486111111111214,0.7139240506328963,0.0426605299333574,2.1810672378744376,75.0,2.2499999999325,0.5670886075949371,0.9999713897705078,0.7934130590526496,1
145,77.125,0.3111111111111171,0.8111111111111171,0.5486111111111214,0.5670886075949371,0.04104236517077691,2.0983367571546587,86.11111111111111,2.5833333332558337,1.478481012658211,0.9999849796295166,0.8105511255750166,1
146,77.93611111111112,0.8111111111111171,0.5166666666666657,0.56527777777778,1.4348894348894399,0.019534011019288346,0.9986981297467215,33.333333333333336,0.9999999999700001,0.9140049140049088,2.1022199418467215e-27,0.9969371330613052,0
147,78.45277777777778,0.5166666666666657,0.5194444444444457,0.5486111111111214,0.9417721518987149,0.020350002744106917,1.0404166180111352,33.333333333333336,0.9999999999700001,0.9468354430379593,4.193540749353892e-20,0.991285816352958,0
148,78.97222222222223,0.5194444444444457,0.5499999999999972,0.5416666666666714,0.9589743589743529,0.02087924127226427,1.0674745288384995,36.111111111111114,1.0833333333008335,1.0153846153846013,1.1214537343839472e-19,0.9960831142375663,0
149,79.52222222222223,0.5499999999999972,0.5444444444444372,0.5347222222222214,1.0285714285714247,0.019208117227732684,0.9820364456818701,33.333333333333336,0.9999999999700001,1.018181818181806,4.262454426343649e-21,0.9925135658002626,0
150,80.06666666666666,0.5444444444444372,0.5499999999999972,0.5319444444444414,1.0234986945169633,0.02060063801019792,1.0532306259097943,36.111111111111114,1.0833333333008335,1.0339425587467368,7.160444382360389e-20,0.994253021296568,0
151,80.61666666666666,0.5499999999999972,0.5305555555555657,0.5319444444444414,1.0339425587467368,0.02027400662527468,1.036531231560251,33.333333333333336,0.9999999999700001,0.9973890339425834,2.0684426698712725e-21,0.9986371839654586,0
152,81.14722222222223,0.5305555555555657,0.5194444444444457,0.5250000000000057,1.010582010582019,0.02014208797256867,1.0297867431084882,36.111111111111114,1.0833333333008335,0.9894179894179811,1.7583606078825588e-20,0.9961957648767881,0
153,81.66666666666667,0.5194444444444457,0.5277777777777715,0.5250000000000057,0.9894179894179811,0.019865666951735528,1.0156544097000473,36.111111111111114,1.0833333333008335,1.0052910052909825,1.4868470698003518e-19,0.9910295497602433,0
154,82.19444444444444,0.5277777777777715,0.5222222222222257,0.5291666666666686,0.997375328083974,0.020465098128274066,1.0463009980699316,36.111111111111114,1.0833333333008335,0.9868766404199505,1.6075117831625832e-19,0.9912616294044366,0
155,82.71666666666667,0.5222222222222257,0.5,0.5291666666666686,0.9868766404199505,0.019516953734957505,0.9978260570350317,33.333333333333336,0.9999999999700001,0.9448818897637762,1.053435351160308e-20,0.9915486059571541,0
156,83.21666666666667,0.5,0.50277777777778,0.5249999999999986,0.952380952380955,0.01864645331513384,0.9533207508609337,33.333333333333336,0.9999999999700001,0.9576719576719644,8.487188124285173e-22,0.998610944193355,0
157,83.71944444444445,0.50277777777778,0.48888888888888005,0.5249999999999986,0.9576719576719644,0.020427875581572445,1.0443979537981427,33.333333333333336,0.9999999999700001,0.9312169312169168,1.919093433128976e-20,0.9961513766775769,0
158,84.20833333333333,0.48888888888888005,0.49166666666667425,0.5249999999999986,0.9312169312169168,0.01749961433810426,0.8946873273234358,30.555555555555557,0.9166666666391667,0.9365079365079535,4.740981338957256e-22,0.9935848525374166,0
159,84.7,0.49166666666667425,0.5083333333333258,0.5208333333333357,0.9440000000000103,0.0189567193666477,0.9691834492624462,33.333333333333336,0.9999999999700001,0.975999999999981,3.087277354892107e-21,0.9987210323942377,0
160,85.20833333333333,0.5083333333333258,0.4166666666666714,0.5138888888888857,0.9891891891891805,0.01921543746495798,0.9824107009855548,33.333333333333336,0.9999999999700001,0.8108108108108251,8.602871231265596e-22,0.9936745182170035,0
161,85.625,0.4166666666666714,0.6694444444444514,0.5055555555555529,0.8241758241758379,0.03889945324548881,1.9887779916822752,69.44444444444444,2.0833333332708333,1.324175824175845,0.9999938011169434,0.8350448544126415,1
162,86.29444444444445,0.6694444444444514,0.5583333333333229,0.5055555555555529,1.324175824175845,0.020950956417369746,1.0711410457264356,33.333333333333336,0.9999999999700001,1.1043956043955896,1.3442116113803057e-21,0.9953701913770725,0
163,86.85277777777777,0.5583333333333229,0.5611111111111171,0.5055555555555529,1.1043956043955896,0.01904229370680016,0.9735585329756775,33.333333333333336,0.9999999999700001,1.1098901098901277,2.507671697727809e-20,0.9927657762764245,0
164,87.41388888888889,0.5611111111111171,0.5611111111111029,0.5055555555555529,1.1098901098901277,0.022080602074789384,1.12889544159667,36.111111111111114,1.0833333333008335,1.1098901098900995,8.816076906519756e-18,0.989415962573873,0
165,87.975,0.5611111111111029,0.5166666666666657,0.5055555555555529,1.1098901098900995,0.01962835031321018,1.0035213315104723,36.111111111111114,1.0833333333008335,1.0219780219780255,7.39100740717762e-21,0.9953050533323227,0
166,88.49166666666666,0.5166666666666657,0.51111111111112,0.5124999999999957,1.0081300813008196,0.019966283035424574,1.0207985193508236,33.333333333333336,0.9999999999700001,0.9972899728997545,6.67747624091055e-20,0.9925976246588772,0
167,89.00277777777778,0.51111111111112,0.48888888888888005,0.5138888888888928,0.9945945945946042,0.019177575001301062,0.9804749402447408,30.555555555555557,0.9166666666391667,0.9513513513513269,8.577672110944706e-22,0.9980541812973116,0
168,89.49166666666666,0.48888888888888005,0.5,0.5138888888888928,0.9513513513513269,0.019263121936270174,0.9848486228373663,33.333333333333336,0.9999999999700001,0.9729729729729655,1.47859406910906e-20,0.9961611773182895,0
169,89.99166666666666,0.5,0.5222222222222257,0.5138888888888928,0.9729729729729655,0.019126782616033292,0.9778781228209046,33.333333333333336,0.9999999999700001,1.0162162162162152,2.392782449875302e-20,0.9947318500645341,0
170,90.51388888888889,0.5222222222222257,0.5499999999999972,0.5194444444444457,1.005347593582892,0.01991743222439091,1.0183009670781358,36.111111111111114,1.0833333333008335,1.0588235294117567,2.364320522090545e-19,0.9921311029361357,0
171,91.06388888888888,0.5499999999999972,0.5444444444444514,0.5361111111111114,1.0259067357512894,0.02136495576067379,1.092307224524321,36.111111111111114,1.0833333333008335,1.0155440414507895,4.795922364242505e-19,0.9900290151258893,0
172,91.60833333333333,0.5444444444444514,0.5611111111111171,0.5333333333333385,1.0208333333333364,0.021940630756845513,1.1217392516410742,38.888888888888886,1.1666666666316665,1.0520833333333344,2.448743299190743e-18,0.9911996155252292,0
173,92.16944444444445,0.5611111111111171,0.5388888888888772,0.5333333333333385,1.0520833333333344,0.019667098499139595,1.0055023757916788,36.111111111111114,1.0833333333008335,1.010416666666635,2.775251337684537e-21,0.9960868064929953,0
174,92.70833333333333,0.5388888888888772,0.5527777777777771,0.5305555555555515,1.0157068062827084,0.020426440407589334,1.044324578925395,36.111111111111114,1.0833333333008335,1.0418848167539336,2.701952383679963e-19,0.9905795472747603,0
175,93.2611111111111,0.5527777777777771,0.5527777777777771,0.5305555555555515,1.0418848167539336,0.020546770791687433,1.0504766042023241,33.333333333333336,0.9999999999700001,1.0418848167539336,8.895993061471097e-21,0.9976780560392637,0
176,93.81388888888888,0.5527777777777771,0.5222222222222257,0.5416666666666643,1.0205128205128238,0.02093650865871374,1.0704023879292972,36.111111111111114,1.0833333333008335,0.9641025641025748,1.060423120943563e-19,0.989518957849546,0
177,94.33611111111111,0.5222222222222257,0.5166666666666657,0.5416666666666643,0.9641025641025748,0.018898414691656637,0.966202557636473,33.333333333333336,0.9999999999700001,0.9538461538461562,5.495649857102368e-22,0.9969721455657847,0
178,94.85277777777777,0.5166666666666657,0.50555555555556,0.5416666666666643,0.9538461538461562,0.019309936215027874,0.9872420551229625,36.111111111111114,1.0833333333008335,0.9333333333333456,1.4394188679999696e-21,0.9976688467899102,0
179,95.35833333333333,0.50555555555556,0.5222222222222257,0.5416666666666643,0.9333333333333456,0.018273530410939848,0.9342546508884036,33.333333333333336,0.9999999999700001,0.9641025641025748,7.020254191807878e-22,0.9962278683340396,0
180,95.88055555555556,0.5222222222222257,0.5194444444444457,0.5416666666666643,0.9641025641025748,0.019487148899878206,0.9963022515543388,33.333333333333336,0.9999999999700001,0.9589743589743654,1.0027051679470299e-21,0.9982049521289944,0
181,96.4,0.5194444444444457,0.3944444444444457,0.5305555555555515,0.9790575916230466,0.018905029360055062,0.9665407399458757,33.333333333333336,0.9999999999700001,0.7434554973822071,5.375840944478766e-23,0.9950626686487225,0
182,96.79444444444445,0.3944444444444457,0.6611111111110972,0.5222222222222257,0.7553191489361676,0.03782198070272443,1.9336910045678677,69.44444444444444,2.0833333332708333,1.2659574468084756,0.9999890327453613,0.8500850165679998,1
183,97.45555555555555,0.6611111111110972,0.5444444444444514,0.5222222222222257,1.2659574468084756,0.019471480755122703,0.9955012001548863,36.111111111111114,1.0833333333008335,1.042553191489368,3.980913982994556e-23,0.9974318355042624,0
184,98.0,0.5444444444444514,0.5722222222222229,0.5222222222222257,1.042553191489368,0.019397898883620604,0.991739244795086,33.333333333333336,0.9999999999700001,1.0957446808510578,2.848238434904656e-20,0.9938799723961382,0
185,98.57222222222222,0.5722222222222229,0.6055555555555543,0.5222222222222257,1.0957446808510578,0.02270939891719288,1.1610433824306816,38.888888888888886,1.1666666666316665,1.1595744680850963,8.874082946975037e-17,0.9866931947109069,0
186,99.17777777777778,0.6055555555555543,0.5583333333333371,0.5222222222222257,1.1595744680850963,0.021827963905854647,1.1159790330532007,36.111111111111114,1.0833333333008335,1.069148936170213,5.272456979231241e-19,0.9887104357392705,0
187,99.73611111111111,0.5583333333333371,0.42222222222221717,0.5333333333333385,1.046874999999997,0.02039013918403198,1.0424686383283281,36.111111111111114,1.0833333333008335,0.7916666666666494,1.7217667515063237e-21,0.9919024841865887,0
188,100.15833333333333,0.42222222222221717,0.62777777777778,0.5333333333333385,0.7916666666666494,0.03829137835661102,1.9576894838653935,66.66666666666667,1.9999999999400002,1.177083333333326,0.9999845027923584,0.849479169088907,1
189,100.78611111111111,0.62777777777778,0.50277777777778,0.5513888888888943,1.1385390428211517,0.01995465164257332,1.020203851400886,33.333333333333336,0.9999999999700001,0.911838790931985,1.053080241321746e-23,0.9975953536702112,0
190,101.28888888888889,0.50277777777778,0.5083333333333258,0.5513888888888943,0.911838790931985,0.018661488506674626,0.9540894418203757,33.333333333333336,0.9999999999700001,0.9219143576825969,1.3645987054228969e-21,0.9940705399229097,0
191,101.79722222222222,0.5083333333333258,0.50555555555556,0.5513888888888943,0.9219143576825969,0.019437258689566014,0.9937515588326926,30.555555555555557,0.9166666666391667,0.9168765743073038,4.227394519463947e-22,0.9980103279310164,0
192,102.30277777777778,0.50555555555556,0.5250000000000057,0.5513888888888943,0.9168765743073038,0.017871070191024442,0.9136784226611293,30.555555555555557,0.9166666666391667,0.9521410579345099,1.5307453328627296e-22,0.9958126263090645,0
193,102.82777777777778,0.5250000000000057,0.5333333333333314,0.5347222222222285,0.9818181818181808,0.020412534666600653,1.0436136323868461,33.333333333333336,0.9999999999700001,0.9974025974025821,2.3161052304723373e-20,0.9953438719991458,0
194,103.36111111111111,0.5333333333333314,0.5666666666666629,0.5291666666666686,1.0078740157480244,0.019501628675119852,0.9970425462351756,36.111111111111114,1.0833333333008335,1.0708661417322725,9.040227187788776e-20,0.992051579167365,0
195,103.92777777777778,0.5666666666666629,0.5472222222222172,0.5291666666666686,1.0708661417322725,0.023595934115991847,1.2063684845881915,41.666666666666664,1.2499999999625,1.0341207349081232,3.2036625714839957e-16,0.9827766112331833,0
196,104.475,0.5472222222222172,0.5583333333333371,0.5291666666666686,1.0341207349081232,0.02046063297057666,1.0460727118957802,33.333333333333336,0.9999999999700001,1.055118110236224,2.1872884906146824e-20,0.9961623181630981,0
197,105.03333333333333,0.5583333333333371,0.5416666666666714,0.5291666666666686,1.055118110236224,0.020581591190048747,1.052256835957397,33.333333333333336,0.9999999999700001,1.0236220472440998,1.6475413471377544e-20,0.9945190473135639,0
198,105.575,0.5416666666666714,0.5277777777777715,0.5375000000000014,1.0077519379845024,0.019011976321871713,0.9720085228115104,33.333333333333336,0.9999999999700001,0.9819121447028281,3.374823945359838e-22,0.9980313598545394,0
199,106.10277777777777,0.5277777777777715,0.44722222222222285,0.5305555555555515,0.994764397905755,0.018800673000369014,0.9612054045074591,33.333333333333336,0.9999999999700001,0.8429319371727826,7.55315005434159e-23,0.9968875312103922,0
200,106.55,0.44722222222222285,0.5888888888888886,0.5305555555555515,0.8429319371727826,0.03922234068765719,2.005285972777087,63.888888888888886,1.9166666666091667,1.1099476439790656,0.9999731779098511,0.8476087712788656,1
201,107.13888888888889,0.5888888888888886,0.48888888888889426,0.5375000000000014,1.0956072351421153,0.018788859911245626,0.9606014471326828,33.333333333333336,0.9999999999700001,0.9095607235142195,1.2088047761142662e-23,0.9975044488646937,0
202,107.62777777777778,0.48888888888889426,0.5138888888888857,0.5375000000000014,0.9095607235142195,0.017712947875189344,0.9055942426665649,30.555555555555557,0.9166666666391667,0.9560723514211802,1.141853668305285e-21,0.9926332529143269,0
203,108.14166666666667,0.5138888888888857,0.49722222222222,0.5375000000000014,0.9560723514211802,0.018575344663586565,0.9496852416335174,33.333333333333336,0.9999999999700001,0.9250645994831975,5.444321846065032e-21,0.9887195413401577,0
204,108.63888888888889,0.49722222222222,0.5194444444444457,0.5347222222222214,0.9298701298701271,0.018465297646903172,0.9440589650005521,30.555555555555557,0.9166666666391667,0.9714285714285752,6.663931905589044e-22,0.9972914454607249,0
205,109.15833333333333,0.5194444444444457,0.50277777777778,0.5236111111111086,0.9920424403183096,0.019144690535808466,0.9787936852197106,36.111111111111114,1.0833333333008335,0.9602122015915208,1.1149615297981423e-19,0.9862901343951591,0
206,109.66111111111111,0.50277777777778,0.5555555555555571,0.5166666666666657,0.9731182795698985,0.020052117827733577,1.025186918971442,36.111111111111114,1.0833333333008335,1.0752688172043061,1.9917789503143985e-18,0.9897303430346908,0
207,110.21666666666667,0.5555555555555571,0.5361111111111114,0.5166666666666657,1.0752688172043061,0.02037156694115932,1.04151911166922,36.111111111111114,1.0833333333008335,1.037634408602153,1.7702741735900818e-19,0.990324856357197,0
208,110.75277777777778,0.5361111111111114,0.5694444444444429,0.5166666666666657,1.037634408602153,0.02037387823019796,1.0416372789026629,33.333333333333336,0.9999999999700001,1.1021505376344076,6.138592628756688e-20,0.9975992686738855,0
209,111.32222222222222,0.5694444444444429,0.5555555555555571,0.5166666666666657,1.1021505376344076,0.019317935704593236,0.9876510379611501,30.555555555555557,0.9166666666391667,1.0752688172043061,5.319520062378331e-22,0.9988047515366582,0
210,111.87777777777778,0.5555555555555571,0.5305555555555515,0.5277777777777786,1.05263157894737,0.020421385255821378,1.0440661286454571,33.333333333333336,0.9999999999700001,1.0052631578947275,1.423681393339043e-20,0.993722855378735,0
211,112.40833333333333,0.5305555555555515,0.5,0.5249999999999986,1.0105820105820056,0.01856562536826729,0.9491883318054114,30.555555555555557,0.9166666666391667,0.952380952380955,2.388038217672109e-22,0.9958597832794628,0
212,112.90833333333333,0.5,0.50277777777778,0.5249999999999986,0.952380952380955,0.019079498085820087,0.9754606484044496,36.111111111111114,1.0833333333008335,0.9576719576719644,9.043982458522796e-21,0.9957085592810782,0
213,113.41111111111111,0.50277777777778,0.5,0.5249999999999986,0.9576719576719644,0.018677109196050545,0.9548880670105468,33.333333333333336,0.9999999999700001,0.952380952380955,1.5200161682194507e-21,0.9964338258814159,0
214,113.91111111111111,0.5,0.5138888888888857,0.5249999999999986,0.952380952380955,0.019482206299454026,0.9960495555875536,33.333333333333336,0.9999999999700001,0.9788359788359755,6.986861823285843e-21,0.997531704197455,0
215,114.425,0.5138888888888857,0.5277777777777857,0.5222222222222186,0.9840425531914901,0.019006024604975653,0.9717042346380775,33.333333333333336,0.9999999999700001,1.0106382978723625,4.910136442075886e-21,0.9961512631275389,0
216,114.95277777777778,0.5277777777777857,0.5472222222222172,0.5291666666666686,0.9973753280840009,0.02287733351147729,1.1696292261197228,36.111111111111114,1.0833333333008335,1.0341207349081232,4.37841752911466e-17,0.9867716630470935,0
217,115.5,0.5472222222222172,0.5499999999999972,0.5291666666666686,1.0341207349081232,0.020379258020816207,1.041912326706392,36.111111111111114,1.0833333333008335,1.0393700787401483,2.2695160596161353e-19,0.9899013860504309,0
218,116.05,0.5499999999999972,0.5583333333333371,0.5291666666666686,1.0393700787401483,0.022176730873060106,1.1338101337688498,38.888888888888886,1.1666666666316665,1.055118110236224,1.1751669762937771e-17,0.9871606575004439,0
219,116.60833333333333,0.5583333333333371,0.5444444444444372,0.5291666666666686,1.055118110236224,0.019759992428904548,1.0102516816986673,30.555555555555557,0.9166666666391667,1.028871391076098,2.261847432947044e-21,0.9947510821779941,0
220,117.15277777777777,0.5444444444444372,0.5416666666666714,0.5291666666666686,1.028871391076098,0.0204358195656758,1.0448040988575944,33.333333333333336,0.9999999999700001,1.0236220472440998,1.36550555467599e-20,0.9960982166297275,0
221,117.69444444444444,0.5416666666666714,0.5333333333333314,0.5347222222222285,1.0129870129870098,0.01925755717926378,0.9845641184204653,33.333333333333336,0.9999999999700001,0.9974025974025821,1.003711678731445e-21,0.9969416441454831,0
222,118.22777777777777,0.5333333333333314,0.50277777777778,0.5375000000000014,0.9922480620154978,0.019816155608219737,1.013123086966501,36.111111111111114,1.0833333333008335,0.9354005167958672,1.282886205794568e-20,0.9918137760704405,0
223,118.73055555555555,0.50277777777778,0.5194444444444457,0.5375000000000014,0.9354005167958672,0.019209606360948595,0.9821125792806586,33.333333333333336,0.9999999999700001,0.9664082687338499,1.3714724026375956e-20,0.9927271032253502,0
224,119.25,0.5194444444444457,0.5166666666666657,0.5375000000000014,0.9664082687338499,0.019542654054505778,0.9991400145751093,33.333333333333336,0.9999999999700001,0.9612403100775151,1.5368377624317367e-20,0.9912641200205181,0
225,119.76666666666667,0.5166666666666657,0.5333333333333314,0.5375000000000014,0.9612403100775151,0.02137451375031647,1.0927958874195582,36.111111111111114,1.0833333333008335,0.9922480620154978,6.018647821021319e-19,0.9926512658744451,0
226,120.3,0.5333333333333314,0.51111111111112,0.5375000000000014,0.9922480620154978,0.0189703517536313,0.9698804202721923,33.333333333333336,0.9999999999700001,0.9509043927648718,3.1378796643837376e-22,0.997586050561216,0
227,120.81111111111112,0.51111111111112,0.5416666666666572,0.5333333333333314,0.9583333333333534,0.019405176446861794,0.9921113183436733,33.333333333333336,0.9999999999700001,1.0156249999999858,7.726026056577967e-21,0.996874736232991,0
228,121.35277777777777,0.5416666666666572,0.5333333333333314,0.5333333333333314,1.0156249999999858,0.018521834145962302,0.9469494566572337,33.333333333333336,0.9999999999700001,1.0,1.971854389174718e-22,0.9984114448814978,0
229,121.8861111111111,0.5333333333333314,0.5472222222222314,0.5333333333333314,1.0,0.019179949026971763,0.9805963149585648,33.333333333333336,0.9999999999700001,1.0260416666666874,1.1151219616395057e-21,0.9988713778066692,0
230,122.43333333333334,0.5472222222222314,0.5722222222222229,0.5333333333333314,1.0260416666666874,0.020524206829988578,1.0493229964601112,36.111111111111114,1.0833333333008335,1.0729166666666716,4.647037608801202e-19,0.9897590409350578,0
231,123.00555555555556,0.5722222222222229,0.5861111111111086,0.5333333333333314,1.0729166666666716,0.023185669366357055,1.1853932410625942,33.333333333333336,0.9999999999700001,1.0989583333333326,7.156600396505672e-18,0.9898116565245823,0
232,123.59166666666667,0.5861111111111086,0.5361111111111114,0.5333333333333314,1.0989583333333326,0.019338222985052562,0.988688247832301,33.333333333333336,0.9999999999700001,1.0052083333333375,3.1921245170171208e-22,0.9955783568677938,0
233,124.12777777777778,0.5361111111111114,0.5277777777777715,0.5347222222222214,1.0025974025974047,0.019278201435591273,0.9856195790815616,33.333333333333336,0.9999999999700001,0.9870129870129767,1.1589198220199639e-21,0.9968233226997861,0
234,124.65555555555555,0.5277777777777715,0.49722222222222,0.5347222222222214,0.9870129870129767,0.018476143159860604,0.9446134539632149,30.555555555555557,0.9166666666391667,0.9298701298701271,6.862048579027911e-23,0.9977056540323093,0
235,125.15277777777777,0.49722222222222,0.5,0.5347222222222214,0.9298701298701271,0.019007088931422576,0.9717586495163599,33.333333333333336,0.9999999999700001,0.9350649350649365,1.0680304037691806e-20,0.9918375760180755,0
236,125.65277777777777,0.5,0.51111111111112,0.5347222222222214,0.9350649350649365,0.01838231552686132,0.9398164114355734,30.555555555555557,0.9166666666391667,0.9558441558441738,1.7629199967227956e-21,0.992852298014365,0
237,126.16388888888889,0.51111111111112,0.5083333333333258,0.5347222222222214,0.9558441558441738,0.01960148030622223,1.0021475723936863,30.555555555555557,0.9166666666391667,0.9506493506493379,9.164912386668927e-21,0.9918999678167747,0
238,126.67222222222222,0.5083333333333258,0.5277777777777857,0.5305555555555515,0.9581151832460665,0.01810193955899096,0.9254818769428075,30.555555555555557,0.9166666666391667,0.9947643979057817,9.888822044294445e-22,0.9941546568595552,0
239,127.2,0.5277777777777857,0.5388888888888914,0.5277777777777786,1.0000000000000135,0.023012855572258354,1.176557942833757,38.888888888888886,1.1666666666316665,1.0210526315789505,1.196116930037071e-16,0.9852828172424076,0
240,127.7388888888889,0.5388888888888914,0.48611111111110006,0.5277777777777786,1.0210526315789505,0.021757559173556908,1.112379512483583,38.888888888888886,1.1666666666316665,0.921052631578925,6.866225673504139e-19,0.9909442923276133,0
241,128.225,0.48611111111110006,0.6444444444444457,0.5194444444444457,0.935828877005324,0.04111558913150943,2.102080413926635,75.0,2.2499999999325,1.240641711229946,0.9999641180038452,0.7977775176434798,1
242,128.86944444444444,0.6444444444444457,0.5555555555555713,0.5194444444444457,1.240641711229946,0.018921472543866065,0.9673814160826362,33.333333333333336,0.9999999999700001,1.069518716577568,5.951784504848282e-23,0.9957039676168157,0
243,129.425,0.5555555555555713,0.5361111111110972,0.5194444444444457,1.069518716577568,0.019181924590341088,0.9806973178422118,30.555555555555557,0.9166666666391667,1.032085561497297,6.693791994791214e-22,0.9966085801081019,0
244,129.9611111111111,0.5361111111110972,0.5083333333333258,0.5194444444444528,1.0320855614972828,0.019919040041451785,1.0183831685210492,33.333333333333336,0.9999999999700001,0.9786096256684188,7.606070327473573e-21,0.994813067722936,0
245,130.46944444444443,0.5083333333333258,0.5083333333333542,0.5194444444444528,0.9786096256684188,0.018952892326081466,0.9689877875393015,36.111111111111114,1.0833333333008335,0.9786096256684735,5.942671104043739e-21,0.9965265279632605,0
246,130.9777777777778,0.5083333333333542,0.5111111111110915,0.5194444444444528,0.9786096256684735,0.02038008291270583,1.041954500225522,36.111111111111114,1.0833333333008335,0.9839572192512833,1.8787909641751478e-19,0.9933591393794992,0
247,131.48888888888888,0.5111111111110915,0.5083333333333542,0.5194444444444386,0.9839572192513103,0.01800522840445456,0.9205374111561456,30.555555555555557,0.9166666666391667,0.9786096256685003,2.48834421679924e-22,0.9971497606903068,0
248,131.99722222222223,0.5083333333333542,0.5222222222222115,0.5194444444444386,0.9786096256685003,0.01800384833951745,0.9204668537949228,30.555555555555557,0.9166666666391667,1.0053475935828784,6.9204943116191e-21,0.989177742299409,0
249,132.51944444444445,0.5222222222222115,0.5166666666666515,0.5166666666666515,1.0107526881720519,0.018314904301806007,0.9363699372669962,30.555555555555557,0.9166666666391667,1.0,2.796056262949631e-22,0.9979512875013945,0
250,133.0361111111111,0.5166666666666515,0.5222222222222399,0.5138888888888715,1.0054054054054098,0.018712651933807826,0.9567052291739769,33.333333333333336,0.9999999999700001,1.0162162162162849,1.135239050682345e-21,0.9993066581466713,0
251,133.55833333333334,0.5222222222222399,0.5250000000000057,0.5194444444444315,1.0053475935829468,0.020536723780204272,1.0499629395193326,36.111111111111114,1.0833333333008335,1.0106951871658116,6.069949562611858e-19,0.9899114595413036,0
252,134.08333333333334,0.5250000000000057,0.5638888888888687,0.5194444444444315,1.0106951871658116,0.020686155781097445,1.0576028174567906,36.111111111111114,1.0833333333008335,1.0855614973261913,4.96173278598029e-19,0.9942189458106356,0
253,134.6472222222222,0.5638888888888687,0.5361111111111256,0.5194444444444315,1.0855614973261913,0.019956048677028215,1.020275276347658,33.333333333333336,0.9999999999700001,1.0320855614973798,1.6332233879171835e-21,0.9985441057519792,0
254,135.18333333333334,0.5361111111111256,0.5472222222222172,0.5194444444444315,1.0320855614973798,0.020176024110472465,1.031521766060092,33.333333333333336,0.9999999999700001,1.0534759358288934,1.3210620450923108e-20,0.9981478136886285,0
255,135.73055555555555,0.5472222222222172,0.5222222222222115,0.5222222222222257,1.0478723404255152,0.021341863472526305,1.0911266055023652,38.888888888888886,1.1666666666316665,0.9999999999999728,2.0625510759583636e-19,0.9942694119295515,0
256,136.25277777777777,0.5222222222222115,0.5194444444444457,0.5222222222222257,0.9999999999999728,0.02031229497786269,1.0384887663483173,36.111111111111114,1.0833333333008335,0.9946808510638256,5.463819397831702e-20,0.9952084237613088,0
257,136.7722222222222,0.5194444444444457,0.5,0.5222222222222257,0.9946808510638256,0.0178962856336688,0.9149675903279638,30.555555555555557,0.9166666666391667,0.9574468085106319,9.515206791073463e-23,0.9972195385825946,0
258,137.2722222222222,0.5,0.5,0.5222222222222257,0.9574468085106319,0.01872010779687572,0.957086418500337,30.555555555555557,0.9166666666391667,0.9574468085106319,1.1939349468437982e-21,0.996259074939577,0
259,137.7722222222222,0.5,0.48888888888890847,0.5222222222222257,0.9574468085106319,0.01899381229258949,0.971079866528123,36.111111111111114,1.0833333333008335,0.9361702127659887,3.046657051481428e-21,0.9974473947881317,0
260,138.26111111111112,0.48888888888890847,0.4972222222222058,0.5222222222222257,0.9361702127659887,0.020117984834106324,1.0285544432352258,33.333333333333336,0.9999999999700001,0.9521276595744304,1.0282247278590243e-19,0.9931507643004945,0
261,138.75833333333333,0.4972222222222058,0.5333333333333314,0.5208333333333286,0.9546666666666438,0.020020076279226702,1.023548759018711,33.333333333333336,0.9999999999700001,1.0240000000000056,3.6903548273930944e-20,0.9983361798285896,0
262,139.29166666666666,0.5333333333333314,0.5638888888888971,0.5208333333333286,1.0240000000000056,0.021140331685571653,1.0808230678153339,38.888888888888886,1.1666666666316665,1.0826666666666922,7.008361358930044e-18,0.9882586614757567,0
263,139.85555555555555,0.5638888888888971,0.5583333333333371,0.5208333333333286,1.0826666666666922,0.02055816429244554,1.051059109653312,36.111111111111114,1.0833333333008335,1.072000000000017,8.68518382053997e-20,0.9938060079172069,0
264,140.4138888888889,0.5583333333333371,0.5666666666666629,0.5208333333333286,1.072000000000017,0.020791134939600307,1.0629699941802842,36.111111111111114,1.0833333333008335,1.0880000000000025,6.468604605940844e-19,0.9901895258091145,0
265,140.98055555555555,0.5666666666666629,0.5444444444444514,0.5208333333333286,1.0880000000000025,0.022736796712157507,1.1624441252972306,38.888888888888886,1.1666666666316665,1.045333333333356,9.875346200981687e-18,0.9883301321153082,0
266,141.525,0.5444444444444514,0.5305555555555372,0.5263888888888886,1.0343007915567421,0.020928306833295194,1.0699830604446388,36.111111111111114,1.0833333333008335,1.0079155672822877,6.164593888089556e-20,0.9952397285430147,0
267,142.05555555555554,0.5305555555555372,0.5305555555555657,0.5319444444444343,0.9973890339425433,0.04790766343254701,2.4493327982346544,83.33333333333333,2.499999999925,0.9973890339425967,0.9996755123138428,0.7775351611613723,1
268,142.5861111111111,0.5305555555555657,0.50555555555556,0.5319444444444485,0.9973890339425701,0.01947231080380535,0.9955436373208191,33.333333333333336,0.9999999999700001,0.9503916449086172,5.496260952935763e-21,0.992259711275376,0
269,143.09166666666667,0.50555555555556,0.49444444444444,0.5319444444444485,0.9503916449086172,0.017963024574221286,0.918379693200499,30.555555555555557,0.9166666666391667,0.9295039164490707,1.491264043624994e-22,0.9960980567989548,0
270,143.5861111111111,0.49444444444444,0.5138888888888857,0.5319444444444485,0.9295039164490707,0.018987853591030345,0.9707752212559891,33.333333333333336,0.9999999999700001,0.9660574412532503,1.459896232973667e-21,0.9996536493898862,0
271,144.1,0.5138888888888857,0.5305555555555657,0.5319444444444485,0.9660574412532503,0.01757181594843106,0.8983787152891166,30.555555555555557,0.9166666666391667,0.9973890339425701,1.8088196854773501e-22,0.9958816456191226,0
272,144.63055555555556,0.5305555555555657,0.5444444444444514,0.5305555555555657,1.0,0.019208310093410567,0.9820463061550522,30.555555555555557,0.9166666666391667,1.0261780104711977,7.891337374982479e-22,0.9985488390732482,0
273,145.175,0.5444444444444514,0.5388888888888914,0.5305555555555657,1.0261780104711977,0.02071188600034455,1.0589183036523642,33.333333333333336,0.9999999999700001,1.015706806282708,1.0298455171834881e-20,0.9977113996806994,0
274,145.7138888888889,0.5388888888888914,0.5611111111111029,0.5305555555555657,1.015706806282708,0.020735505376746902,1.0601258706500238,33.333333333333336,0.9999999999700001,1.0575916230366136,4.2826174384507693e-20,0.9966839766149698,0
275,146.275,0.5611111111111029,0.5444444444444514,0.5305555555555657,1.0575916230366136,0.020990704929096757,1.073173232781249,33.333333333333336,0.9999999999700001,1.0261780104711977,1.1938216336011948e-20,0.9970181120584505,0
276,146.81944444444446,0.5444444444444514,0.5638888888888687,0.5305555555555657,1.0261780104711977,0.01992392405077274,1.018632868952245,33.333333333333336,0.9999999999700001,1.0628272251308317,3.985934571474421e-20,0.992729029263957,0
277,147.38333333333333,0.5638888888888687,0.5611111111111313,0.5347222222222285,1.0545454545454043,0.020329707012674305,1.0393789760745367,33.333333333333336,0.9999999999700001,1.0493506493506748,1.0547462385607484e-20,0.9949284748724918,0
278,147.94444444444446,0.5611111111111313,0.538888888888863,0.5416666666666714,1.0358974358974642,0.02141128663503259,1.0946759422201375,36.111111111111114,1.0833333333008335,0.9948717948717384,3.8651872046744195e-20,0.9950893267472157,0
279,148.48333333333332,0.538888888888863,0.51111111111112,0.5416666666666714,0.9948717948717384,0.01916603131981774,0.9798847566364484,33.333333333333336,0.9999999999700001,0.9435897435897517,4.518598294331832e-22,0.9961056372327416,0
280,148.99444444444444,0.51111111111112,0.5083333333333258,0.5416666666666714,0.9435897435897517,0.018230802625011564,0.9320701451126744,30.555555555555557,0.9166666666391667,0.9384615384615163,1.3664473157573045e-22,0.9967440237017104,0
281,149.50277777777777,0.5083333333333258,0.4833333333333485,0.5416666666666714,0.9384615384615163,0.017961874829927112,0.9183209112393776,33.333333333333336,0.9999999999700001,0.8923076923077125,2.0403234767800672e-22,0.9942539018228479,0
282,149.98611111111111,0.4833333333333485,0.50555555555556,0.5416666666666714,0.8923076923077125,0.01843754136033838,0.9426398938505665,36.111111111111114,1.0833333333008335,0.9333333333333333,2.337637856572215e-21,0.9975628350174692,0
283,150.49166666666667,0.50555555555556,0.5250000000000057,0.5388888888888772,0.9381443298969357,0.01906456640884117,0.9746972497425925,33.333333333333336,0.9999999999700001,0.974226804123743,1.1726121249280957e-21,0.999097184346097,0
284,151.01666666666668,0.5250000000000057,0.5361111111110972,0.5319444444444343,0.9869451697128232,0.019369472271189923,0.9902859024865595,33.333333333333336,0.9999999999700001,1.0078328981723168,1.51125706062466e-21,0.9991362803307591,0
285,151.55277777777778,0.5361111111110972,0.5472222222222172,0.5305555555555515,1.0104712041884634,0.019903989658338485,1.0176137008754957,33.333333333333336,0.9999999999700001,1.0314136125654434,2.787719833338745e-20,0.9930336450287439,0
286,152.1,0.5472222222222172,0.5444444444444514,0.5305555555555515,1.0314136125654434,0.022568915512843343,1.153861011485677,38.888888888888886,1.1666666666316665,1.0261780104712253,1.0998442240433312e-16,0.9811302787706313,0
287,152.64444444444445,0.5444444444444514,0.5777777777777828,0.5305555555555515,1.0261780104712253,0.020231248152777954,1.034345156899438,36.111111111111114,1.0833333333008335,1.0890052356021123,4.778428011274891e-19,0.9897563611294125,0
288,153.22222222222223,0.5777777777777828,0.5583333333333371,0.5305555555555515,1.0890052356021123,0.021766532061396577,1.1128382613956755,36.111111111111114,1.0833333333008335,1.0523560209424236,1.4209373702909148e-18,0.9872005854780919,0
289,153.78055555555557,0.5583333333333371,0.5361111111110972,0.5305555555555515,1.0523560209424236,0.019266108153906805,0.9850012965491696,33.333333333333336,0.9999999999700001,1.0104712041884634,1.1913507142489411e-21,0.9953069760545972,0
290,154.31666666666666,0.5361111111110972,0.49444444444444,0.5361111111110972,1.0,0.019416329384850686,0.9926815247544145,33.333333333333336,0.9999999999700001,0.9222797927461297,2.654564151505273e-22,0.9984243699620348,0
291,154.8111111111111,0.49444444444444,0.48888888888890847,0.5361111111110972,0.9222797927461297,0.018038944012976205,0.9222611592967906,33.333333333333336,0.9999999999700001,0.911917098445656,3.7967042331171385e-22,0.996125524018485,0
292,155.3,0.48888888888890847,0.5027777777777658,0.5361111111110972,0.911917098445656,0.018926331901929407,0.9676298561907551,36.111111111111114,1.0833333333008335,0.9378238341968931,4.054033588651913e-21,0.9977112321653313,0
293,155.80277777777778,0.5027777777777658,0.5305555555555657,0.5361111111110972,0.9378238341968931,0.01918978483284207,0.9810991815187161,30.555555555555557,0.9166666666391667,0.9896373056995263,5.426159415505811e-21,0.9946586547050906,0
294,156.33333333333334,0.5305555555555657,0.5222222222222115,0.5361111111110972,0.9896373056995263,0.019912125881933015,1.0180296743936348,33.333333333333336,0.9999999999700001,0.9740932642487099,2.465028517666783e-21,0.9975603368396316,0
295,156.85555555555555,0.5222222222222115,0.5277777777777715,0.5333333333333314,0.97916666666665,0.020588183812256876,1.0525938911306987,38.888888888888886,1.1666666666316665,0.989583333333325,9.152026463689e-20,0.99549150026752,0
296,157.38333333333333,0.5277777777777715,0.5361111111111256,0.5291666666666686,0.997375328083974,0.02190286135196289,1.1198082486340277,36.111111111111114,1.0833333333008335,1.0131233595800764,7.864641358252075e-17,0.9798259574186006,0
297,157.91944444444445,0.5361111111111256,0.5472222222222172,0.5291666666666686,1.0131233595800764,0.018150075087673478,0.9279428596064362,33.333333333333336,0.9999999999700001,1.0341207349081232,1.6641402730533116e-21,0.993168783051012,0
298,158.46666666666667,0.5472222222222172,0.5305555555555657,0.5291666666666686,1.0341207349081232,0.019310089390726363,0.9872498864016207,33.333333333333336,0.9999999999700001,1.0026246719160261,2.147912795142276e-21,0.9948994595007278,0
299,158.99722222222223,0.5305555555555657,0.4305555555555429,0.5291666666666686,1.0026246719160261,0.019680167851300914,1.0061705610173155,33.333333333333336,0.9999999999700001,0.8136482939632278,3.174020348568916e-22,0.9950896673550358,0
300,159.42777777777778,0.4305555555555429,0.6388888888888857,0.5249999999999915,0.8201058201058093,0.03926961029341435,2.007702684164059,102.77777777777777,3.0833333332408333,1.2169312169312307,0.9999651908874512,0.6447864962095641,1
301,160.06666666666666,0.6388888888888857,0.5250000000000057,0.5291666666666686,1.207349081364819,0.01927069454695646,0.9852357810161053,30.555555555555557,0.9166666666391667,0.9921259842519757,1.5805651806888022e-23,0.995209985201329,0
302,160.59166666666667,0.5250000000000057,0.4972222222222342,0.5291666666666686,0.9921259842519757,0.01823827548889929,0.9324522036249356,27.77777777777778,0.8333333333083334,0.9396325459317778,1.7760014057459242e-21,0.9865623546767133,0
303,161.0888888888889,0.4972222222222342,0.49444444444444,0.5291666666666686,0.9396325459317778,0.019278587380682704,0.9856393109554002,36.111111111111114,1.0833333333008335,0.9343832020997258,9.80468731507111e-21,0.9954650680921953,0
304,161.58333333333334,0.49444444444444,0.48333333333332007,0.5263888888888886,0.9393139841688576,0.01849803244970559,0.9457325683533976,33.333333333333336,0.9999999999700001,0.9182058047493157,7.770653520951679e-22,0.9969142358112704,0
305,162.06666666666666,0.48333333333332007,0.4444444444444571,0.5263888888888886,0.9182058047493157,0.018556371615820633,0.9487152233766053,33.333333333333336,0.9999999999700001,0.8443271767810271,2.9609733780934737e-22,0.9979615666314146,0
306,162.51111111111112,0.4444444444444571,0.5749999999999886,0.51111111111112,0.869565217391314,0.041639632208298666,2.128872701500311,83.33333333333333,2.499999999925,1.1249999999999583,0.9999310970306396,0.8085318754455664,1
307,163.0861111111111,0.5749999999999886,0.5277777777777715,0.51111111111112,1.1249999999999583,0.01942667076669733,0.9932102394510042,30.555555555555557,0.9166666666391667,1.0326086956521436,4.1400659764252983e-22,0.9973334663012112,0
308,163.61388888888888,0.5277777777777715,0.38055555555556,0.51111111111112,1.0326086956521436,0.01852299135036932,0.9470086200249559,30.555555555555557,0.9166666666391667,0.7445652173913001,9.28482501241346e-24,0.9963863329027359,0
309,163.99444444444444,0.38055555555556,0.73888888888888,0.4958333333333371,0.7675070028011235,0.03704349909068742,1.8938902627122456,61.111111111111114,1.8333333332783335,1.4901960784313433,0.9999943971633911,0.8125042595043306,1
310,164.73333333333332,0.73888888888888,0.5444444444444514,0.51111111111112,1.4456521739130013,0.023055881742044978,1.1787577038174912,38.888888888888886,1.1666666666316665,1.065217391304343,1.3195920546709245e-19,0.9857985303662999,0
311,165.27777777777777,0.5444444444444514,0.5555555555555713,0.51111111111112,1.065217391304343,0.019569970984315458,1.0005366231202981,30.555555555555557,0.9166666666391667,1.0869565217391426,2.25020462348729e-20,0.9933394218163377,0
312,165.83333333333334,0.5555555555555713,0.49444444444444,0.5125000000000028,1.0840108401084259,0.018160055922681734,0.9284531409432397,33.333333333333336,0.9999999999700001,0.964769647696463,1.0065024540439507e-22,0.9967599669889131,0
313,166.32777777777778,0.49444444444444,0.5027777777777658,0.5111111111111057,0.9673913043478276,0.01838412823159659,0.939909087989667,33.333333333333336,0.9999999999700001,0.9836956521738999,2.4737042205757864e-21,0.9970600191305191,0
314,166.83055555555555,0.5027777777777658,0.38611111111111995,0.5152777777777686,0.9757412398921773,0.01876643367345241,0.9594548806789615,33.333333333333336,0.9999999999700001,0.7493261455525911,7.671334039718181e-23,0.9965794677588482,0
315,167.21666666666667,0.38611111111111995,0.61944444444444,0.5152777777777686,0.7493261455525911,0.0381596209273681,1.950953238143242,66.66666666666667,1.9999999999400002,1.2021563342318187,0.9999864101409912,0.856218883242411,1
316,167.8361111111111,0.61944444444444,0.48611111111111427,0.5361111111111114,1.155440414507763,0.018341780350281556,0.9377440052615832,30.555555555555557,0.9166666666391667,0.9067357512953421,1.691743962897895e-24,0.9956576826896347,0
317,168.32222222222222,0.48611111111111427,0.51111111111112,0.5152777777777686,0.9433962264151172,0.019532735768266144,0.9986329311139587,36.111111111111114,1.0833333333008335,0.9919137466307626,1.3720180122621053e-18,0.9872955881749621,0
318,168.83333333333334,0.51111111111112,0.5277777777777715,0.5069444444444429,1.0082191780822123,0.019415792946024944,0.9926540987203315,36.111111111111114,1.0833333333008335,1.0410958904109497,7.209120084000013e-20,0.9948168449156802,0
319,169.36111111111111,0.5277777777777715,0.5527777777777771,0.5194444444444457,1.0160427807486485,0.021104559290166473,1.078994164148164,33.333333333333336,0.9999999999700001,1.0641711229946487,2.0642904816901978e-19,0.9959816931664937,0
320,169.9138888888889,0.5527777777777771,0.5500000000000114,0.5194444444444457,1.0641711229946487,0.01997314193138979,1.021149188067342,36.111111111111114,1.0833333333008335,1.058823529411784,3.4177364538935035e-20,0.9947570791681577,0
321,170.4638888888889,0.5500000000000114,0.5527777777777771,0.5194444444444457,1.058823529411784,0.020815531263621793,1.064217283492699,33.333333333333336,0.9999999999700001,1.0641711229946487,5.191603628645877e-20,0.9960109143409869,0
322,171.01666666666668,0.5527777777777771,0.5249999999999773,0.5194444444444457,1.0641711229946487,0.01926237035403538,0.9848101973562146,36.111111111111114,1.0833333333008335,1.0106951871657293,3.597365267037286e-21,0.9953591920800627,0
323,171.54166666666666,0.5249999999999773,0.5305555555555657,0.5263888888888744,0.9973614775725437,0.02070034495253189,1.0583282546934258,36.111111111111114,1.0833333333008335,1.007915567282369,1.4043608776105053e-19,0.9942245389416999,0
324,172.07222222222222,0.5305555555555657,0.5250000000000057,0.5291666666666686,1.0026246719160261,0.019854145951698852,1.0150653857060463,33.333333333333336,0.9999999999700001,0.9921259842519757,2.7362615655887392e-21,0.9982992876008527,0
325,172.59722222222223,0.5250000000000057,0.5027777777777658,0.5291666666666686,0.9921259842519757,0.01939695504032955,0.991690989752708,33.333333333333336,0.9999999999700001,0.9501312335957744,1.0218929914652933e-21,0.9976619583285524,0
326,173.1,0.5027777777777658,0.5222222222222399,0.5263888888888886,0.9551451187334871,0.04916516962653786,2.513624206836989,83.33333333333333,2.499999999925,0.9920844327177123,0.9999388456344604,0.773014796555533,1
327,173.62222222222223,0.5222222222222399,0.5027777777777658,0.5263888888888886,0.9920844327177123,0.020129798436053902,1.0291584268287115,33.333333333333336,0.9999999999700001,0.9551451187334871,4.803167610147288e-21,0.9973350182581207,0
328,174.125,0.5027777777777658,0.5027777777777658,0.5263888888888886,0.9551451187334871,0.020107302632415013,1.0280083037434362,36.111111111111114,1.0833333333008335,0.9551451187334871,8.658521462951913e-20,0.9933850710098354,0
329,174.62777777777777,0.5027777777777658,0.5333333333333314,0.5249999999999915,0.9576719576719503,0.019816973626672157,1.0131649090734776,33.333333333333336,0.9999999999700001,1.0158730158730287,1.49849632545277e-20,0.9985118957380403,0
330,175.1611111111111,0.5333333333333314,0.5527777777778056,0.5249999999999915,1.0158730158730287,0.019116875580865486,0.9773716145833669,33.333333333333336,0.9999999999700001,1.052910052910123,1.0489522584224693e-20,0.9939634774282107,0
331,175.7138888888889,0.5527777777778056,0.5305555555555372,0.5249999999999915,1.052910052910123,0.022643813437159356,1.1576902515154106,36.111111111111114,1.0833333333008335,1.010582010581992,4.6645541922477784e-17,0.9817796702180079,0
332,176.24444444444444,0.5305555555555372,0.5555555555555713,0.5249999999999915,1.010582010581992,0.020328661286443395,1.0393255121530713,36.111111111111114,1.0833333333008335,1.0582010582011054,4.791862458398518e-19,0.9904477840905008,0
333,176.8,0.5555555555555713,0.5611111111111029,0.5277777777777715,1.052631578947411,0.021511059381315444,1.0997769353041484,38.888888888888886,1.1666666666316665,1.0631578947368392,8.182355848064558e-19,0.9922747465895843,0
334,177.36111111111111,0.5611111111111029,0.5833333333333428,0.5277777777777715,1.0631578947368392,0.021594464934683505,1.1040411373708372,36.111111111111114,1.0833333333008335,1.105263157894768,1.5240304409970472e-18,0.9911308332387618,0
335,177.94444444444446,0.5833333333333428,0.5027777777777658,0.5319444444444343,1.096605744125365,0.021405713442664523,1.0943910065359501,38.888888888888886,1.1666666666316665,0.9451697127937291,1.6168657741738802e-19,0.9888836547353551,0
336,178.44722222222222,0.5027777777777658,0.5027777777777658,0.5319444444444343,0.9451697127937291,0.018721458387719703,0.957155468965631,36.111111111111114,1.0833333333008335,0.9451697127937291,2.0280871208021602e-21,0.9970137821768833,0
337,178.95,0.5027777777777658,0.375,0.5319444444444343,0.9451697127937291,0.019281136705086185,0.9857696480127184,36.111111111111114,1.0833333333008335,0.7049608355091518,2.362000001783553e-22,0.9958454221371917,0
338,179.325,0.375,0.3194444444444571,0.5319444444444343,0.7049608355091518,0.03567917523849511,1.8241376820360142,58.333333333333336,1.7499999999475002,0.6005221932115234,0.9995726943016052,0.8722177270215644,1
339,179.64444444444445,0.3194444444444571,0.3555555555555543,0.5319444444444343,0.6005221932115234,0.03797631216003356,1.9415813726865057,77.77777777777777,2.333333333263333,0.6684073107049712,0.9996076226234436,0.8361034451632592,1
340,180.0,0.3555555555555543,0.48333333333332007,0.5166666666666515,0.6881720430107704,0.03474459875070188,1.7763564153241882,80.55555555555556,2.4166666665941667,0.9354838709677437,0.9996789693832397,0.690560594302368,1
341,180.48333333333332,0.48333333333332007,0.5583333333333371,0.5027777777777658,0.9613259668508253,0.019808125299648552,1.012712528472221,30.555555555555557,0.9166666666391667,1.110497237569095,2.1480544094324973e-19,0.9977240282169133,0
342,181.04166666666666,0.5583333333333371,0.32222222222222285,0.5027777777777658,1.110497237569095,0.020269468753232288,1.0362992277840017,30.555555555555557,0.9166666666391667,0.6408839779005691,2.898512332927261e-11,0.8956796248976834,0
343,181.36388888888888,0.32222222222222285,0.7666666666666799,0.4930555555555429,0.6535211267605814,0.03442966291691214,1.760254969088417,61.111111111111114,1.8333333332783335,1.5549295774648555,0.9999644756317139,0.8413521159627273,1
344,182.13055555555556,0.7666666666666799,0.5444444444444514,0.4930555555555429,1.5549295774648555,0.021542945515770687,1.101407149539917,36.111111111111114,1.0833333333008335,1.1042253521127183,7.647029803208173e-22,0.9906091726669227,0
345,182.675,0.5444444444444514,0.549999999999983,0.4930555555555429,1.1042253521127183,0.017220780616257845,0.8804316418810879,25.0,0.7499999999775,1.115492957746473,2.4490397788168578e-20,0.9814494001797586,0
346,183.225,0.549999999999983,0.5666666666666629,0.4930555555555429,1.115492957746473,0.020464908041763007,1.0462912796847574,33.333333333333336,0.9999999999700001,1.149295774647909,1.1461497285596007e-18,0.991496258787435,0
347,183.79166666666666,0.5666666666666629,0.5083333333333542,0.5138888888888857,1.102702702702702,0.02282718042537012,1.1670650935794677,30.555555555555557,0.9166666666391667,0.9891891891892358,1.3812706356475246e-07,0.8642521099608578,0
348,184.3,0.5083333333333542,0.4916666666666458,0.5263888888889028,0.9656992084432858,0.017498978098532385,0.8946547988647453,27.77777777777778,0.8333333333083334,0.93403693931392,6.914658911865676e-22,0.9879552684578592,0
349,184.79166666666666,0.4916666666666458,0.49444444444444,0.5263888888889028,0.93403693931392,0.019663024657488627,1.0052940960874395,36.111111111111114,1.0833333333008335,0.9393139841688323,1.0705967316196264e-19,0.9915581609151661,0
350,185.2861111111111,0.49444444444444,0.49166666666667425,0.5263888888889028,0.9393139841688323,0.01898178562361552,0.9704649896449511,33.333333333333336,0.9999999999700001,0.9340369393139739,5.4466276928018804e-21,0.9943685988119817,0
351,185.77777777777777,0.49166666666667425,0.5083333333333258,0.5263888888889028,0.9340369393139739,0.01996217424881407,1.0205884530465,36.111111111111114,1.0833333333008335,0.9656992084432319,6.608776306098607e-20,0.9957335262293192,0
352,186.2861111111111,0.5083333333333258,0.5,0.50833333333334,0.999999999999972,0.01885369459016694,0.9639161925025667,33.333333333333336,0.9999999999700001,0.9836065573770364,1.410190109860046e-20,0.9925587761201848,0
353,186.7861111111111,0.5,0.5416666666666856,0.50833333333334,0.9836065573770364,0.018200867038705156,0.9305396548294673,30.555555555555557,0.9166666666391667,1.0655737704918267,5.0706409848602846e-21,0.9958780717593252,0
354,187.32777777777778,0.5416666666666856,0.5222222222222115,0.50833333333334,1.0655737704918267,0.019093633101474015,0.9761833168663225,33.333333333333336,0.9999999999700001,1.02732240437155,4.30518912941581e-20,0.9883598065195897,0
355,187.85,0.5222222222222115,0.5416666666666856,0.50833333333334,1.02732240437155,0.022269392459965606,1.1385475608876585,36.111111111111114,1.0833333333008335,1.0655737704918267,4.399660843978914e-11,0.9412483940695363,0
356,188.39166666666668,0.5416666666666856,0.61388888888888,0.50833333333334,1.0655737704918267,0.025895293874276398,1.3239258202498827,38.888888888888886,1.1666666666316665,1.2076502732240106,2.5872301263191178e-12,0.9752265134069085,0
357,189.00555555555556,0.61388888888888,0.5555555555555429,0.50833333333334,1.2076502732240106,0.028929852633179796,1.4790710259186448,38.888888888888886,1.1666666666316665,1.0928961748633488,0.0008157541742548347,0.8249464942389932,0
358,189.5611111111111,0.5555555555555429,0.5444444444444514,0.5152777777777686,1.0781671159029595,0.02737180910967575,1.3994143106925176,55.55555555555556,1.6666666666166667,1.0566037735849378,1.0394845872951919e-07,0.9446524426139318,0
359,190.10555555555555,0.5444444444444514,0.51111111111112,0.5319444444444485,1.0234986945169764,0.02815408538503004,1.4394090589482715,33.333333333333336,0.9999999999700001,0.9608355091383904,6.052832124403551e-10,0.9491943023924636,0
360,190.61666666666667,0.51111111111112,0.4916666666666458,0.5319444444444485,0.9608355091383904,0.02413419917775786,1.2338878870275019,33.333333333333336,0.9999999999700001,0.9242819843341573,5.148516297537667e-14,0.9669678627083753,0
361,191.10833333333332,0.4916666666666458,0.47500000000002274,0.5319444444444485,0.9242819843341573,0.02217320419838035,1.133629828587112,36.111111111111114,1.0833333333008335,0.8929503916449445,8.294782953015734e-16,0.97500422532586,0
362,191.58333333333334,0.47500000000002274,0.49444444444444,0.5319444444444485,0.8929503916449445,0.020374448195273353,1.0416664190037028,33.333333333333336,0.9999999999700001,0.9295039164490707,1.0995122102890647e-17,0.982044681937905,0
363,192.07777777777778,0.49444444444444,0.50555555555556,0.5319444444444485,0.9295039164490707,0.024807009040201618,1.26828604266662,36.111111111111114,1.0833333333008335,0.9503916449086172,1.7252870207246258e-14,0.9793453764519215,0
364,192.58333333333334,0.50555555555556,0.5305555555555372,0.5166666666666657,0.9784946236559243,0.021409595633504242,1.0945894878784208,27.77777777777778,0.8333333333083334,1.026881720430074,3.508079264410046e-17,0.9801212580572286,0
365,193.11388888888888,0.5305555555555372,0.5333333333333314,0.5208333333333286,1.0186666666666409,0.021725067626510098,1.1107183458529208,38.888888888888886,1.1666666666316665,1.0240000000000056,4.4188894912534097e-17,0.9826572507318958,0
366,193.6472222222222,0.5333333333333314,0.5611111111111313,0.5208333333333286,1.0240000000000056,0.022414854382624753,1.1459844641414556,36.111111111111114,1.0833333333008335,1.0773333333333819,1.9677950469767705e-16,0.9818353734685595,0
367,194.20833333333334,0.5611111111111313,0.549999999999983,0.5208333333333286,1.0773333333333819,0.0241639108803241,1.2354069310044504,41.666666666666664,1.2499999999625,1.055999999999977,8.073082031709051e-15,0.9777660481765915,0
368,194.75833333333333,0.549999999999983,0.5638888888888971,0.5208333333333286,1.055999999999977,0.021298667744553926,1.0889181756670148,38.888888888888886,1.1666666666316665,1.0826666666666922,1.2535042269864531e-18,0.9922545613420607,0
369,195.32222222222222,0.5638888888888971,0.5305555555555657,0.5208333333333286,1.0826666666666922,0.02136186109669906,1.0921490063723653,38.888888888888886,1.1666666666316665,1.0186666666666953,5.144255668211674e-18,0.983542532979846,0
370,195.8527777777778,0.5305555555555657,0.5,0.5305555555555515,1.0000000000000269,0.021915431189982848,1.1204508956413095,30.555555555555557,0.9166666666391667,0.9424083769633581,2.4959969854854158e-11,0.9289268581891592,0
371,196.3527777777778,0.5,0.5083333333333258,0.5305555555555515,0.9424083769633581,0.028499659651306863,1.4570769292632046,38.888888888888886,1.1666666666316665,0.9581151832460665,4.767894097312819e-07,0.9439170064863389,0
372,196.86111111111111,0.5083333333333258,0.5083333333333258,0.5305555555555515,0.9581151832460665,0.02156717408866829,1.102645862388772,36.111111111111114,1.0833333333008335,0.9581151832460665,8.253962185356283e-18,0.9855346527421177,0
373,197.36944444444444,0.5083333333333258,0.49444444444444,0.5305555555555515,0.9581151832460665,0.018741665031606944,0.9581885562019757,36.111111111111114,1.0833333333008335,0.931937172774868,3.05518933064262e-20,0.9878091036256389,0
374,197.86388888888888,0.49444444444444,0.5305555555555657,0.5305555555555515,0.931937172774868,0.020836204824985324,1.0652742424064918,36.111111111111114,1.0833333333008335,1.0000000000000269,4.2466530342089444e-18,0.9882758204586768,0
375,198.39444444444445,0.5305555555555657,0.34444444444443434,0.5305555555555657,1.0,0.02227972045014431,1.1390755909202683,36.111111111111114,1.0833333333008335,0.6492146596858325,3.8731572191233386e-20,0.9923475236599971,0
376,198.73888888888888,0.34444444444443434,0.3777777777777942,0.5194444444444457,0.6631016042780538,0.03437087166578459,1.7572492007140377,58.333333333333336,1.7499999999475002,0.7272727272727572,0.9997263550758362,0.8370677359677926,1
377,199.11666666666667,0.3777777777777942,0.8583333333333201,0.5083333333333258,0.7431693989071472,0.037997600422578694,1.9426697588847313,55.55555555555556,1.6666666666166667,1.6885245901639334,0.9999953508377075,0.8887972859920528,1
378,199.975,0.8583333333333201,0.575000000000017,0.5083333333333258,1.6885245901639334,0.022148744764799933,1.1323793127280135,38.888888888888886,1.1666666666316665,1.1311475409836569,4.175675990724091e-21,0.9805010042598792,0
379,200.55,0.575000000000017,0.5361111111110972,0.5083333333333258,1.1311475409836569,0.02034154311873488,1.0399841102159328,33.333333333333336,0.9999999999700001,1.0546448087431577,8.625220657830692e-21,0.9959941332864528,0
380,201.0861111111111,0.5361111111110972,0.5500000000000114,0.5083333333333258,1.0546448087431577,0.02441717515107936,1.2483553497027502,41.666666666666664,1.2499999999625,1.0819672131147926,3.50327216238136e-13,0.9722734806671925,0
381,201.63611111111112,0.5500000000000114,0.544444444444423,0.5194444444444457,1.058823529411784,0.021402882776511076,1.0942462855674508,38.888888888888886,1.1666666666316665,1.0481283422459453,3.0984314250100515e-18,0.9882432140223699,0
382,202.18055555555554,0.544444444444423,0.40833333333335986,0.5333333333333314,1.0208333333332966,0.019524928772926123,0.9982337897580271,33.333333333333336,0.9999999999700001,0.7656250000000525,2.236107961838739e-23,0.9982557970712096,0
383,202.5888888888889,0.40833333333335986,0.5888888888888744,0.5333333333333314,0.7656250000000525,0.03388156749426141,1.7322329784699249,55.55555555555556,1.6666666666166667,1.1041666666666434,0.9999343156814575,0.8883635884044945,1
384,203.17777777777778,0.5888888888888744,0.48611111111111427,0.5402777777777601,1.0899742930591347,0.020250915493686152,1.0353506716686636,36.111111111111114,1.0833333333008335,0.899742930591295,4.365300279906553e-21,0.9883057096864729,0
385,203.6638888888889,0.48611111111111427,0.49166666666667425,0.5402777777777601,0.899742930591295,0.01907282800379386,0.9751196330114372,36.111111111111114,1.0833333333008335,0.9100257069409179,1.8162889385966996e-20,0.9930531224818391,0
386,204.15555555555557,0.49166666666667425,0.5111111111110915,0.5402777777777601,0.9100257069409179,0.01902783789768697,0.9728194635899245,30.555555555555557,0.9166666666391667,0.9460154241645191,1.2807243886507063e-21,0.9974417741415079,0
387,204.66666666666666,0.5111111111110915,0.5333333333333314,0.5402777777777601,0.9460154241645191,0.02284948280891006,1.168205327846165,36.111111111111114,1.0833333333008335,0.9871465295630109,6.902602595302383e-18,0.9921819228541714,0
388,205.2,0.5333333333333314,0.5444444444444514,0.5347222222222143,0.9974025974026086,0.02648675452504921,1.3541649065881838,44.44444444444444,1.3333333332933333,1.0181818181818463,3.1145530599019366e-11,0.9660667556678748,0
389,205.74444444444444,0.5444444444444514,0.5333333333333314,0.5347222222222143,1.0181818181818463,0.028072415860858586,1.4352336133131278,44.44444444444444,1.3333333332933333,0.9974025974026086,1.331966648088212e-09,0.9587869044446506,0
390,206.27777777777777,0.5333333333333314,0.5611111111111313,0.5333333333333314,1.0,0.030360417910146268,1.5522102734175984,47.22222222222222,1.4166666666241667,1.052083333333375,1.7447029676986858e-05,0.9488990927534275,0
391,206.8388888888889,0.5611111111111313,0.5222222222222115,0.5333333333333314,1.052083333333375,0.026908794512546803,1.375742172300586,41.666666666666664,1.2499999999625,0.97916666666665,3.2397576375103876e-12,0.9671695747314206,0
392,207.36111111111111,0.5222222222222115,0.5361111111110972,0.5277777777777715,0.9894736842105178,0.02700882863623597,1.3808565285964114,41.666666666666664,1.2499999999625,1.0157894736841964,2.690982853215118e-11,0.9686306280361877,0
393,207.8972222222222,0.5361111111110972,0.5166666666666799,0.5333333333333314,1.0052083333333108,0.024229446337505973,1.2387575044455632,36.111111111111114,1.0833333333008335,0.9687500000000283,1.6257248940439596e-16,0.9854846749328234,0
394,208.4138888888889,0.5166666666666799,0.5027777777777658,0.5277777777777715,0.9789473684210894,0.024613276831699712,1.2583812671388748,36.111111111111114,1.0833333333008335,0.9526315789473571,7.451751177646026e-16,0.9850200357496414,0
395,208.91666666666666,0.5027777777777658,0.51111111111112,0.5277777777777715,0.9526315789473571,0.023557558735238474,1.2044065003879743,33.333333333333336,0.9999999999700001,0.9684210526316073,3.6225751563450227e-16,0.9828599501758457,0
396,209.42777777777778,0.51111111111112,0.49166666666667425,0.5277777777777715,0.9684210526316073,0.026763165440156708,1.3682967233301147,41.666666666666664,1.2499999999625,0.9315789473684466,3.494203353309605e-13,0.9804641190924283,0
397,209.91944444444445,0.49166666666667425,0.5333333333333314,0.5277777777777715,0.9315789473684466,0.02649710730567349,1.3546942040600107,36.111111111111114,1.0833333333008335,1.0105263157894822,6.795984348190176e-12,0.9713398822708156,0
398,210.45277777777778,0.5333333333333314,0.5,0.5277777777777715,1.0105263157894822,0.02450469012317944,1.2528296503916811,36.111111111111114,1.0833333333008335,0.947368421052643,1.0594138856330053e-16,0.9882665230429091,0
399,210.95277777777778,0.5,0.5444444444444514,0.5194444444444457,0.9625668449197837,0.025690239914724702,1.3134422075551204,38.888888888888886,1.1666666666316665,1.0481283422460002,1.8065868354240344e-13,0.9815354277608976,0
400,211.49722222222223,0.5444444444444514,0.5222222222222115,0.5194444444444457,1.0481283422460002,0.028260737864203675,1.4448617860598918,41.666666666666664,1.2499999999625,1.0053475935828646,6.507025387264553e-12,0.9756574463131893,0
401,212.01944444444445,0.5222222222222115,0.5416666666666572,0.5194444444444457,1.0053475935828646,0.023778949063859117,1.2157253281965144,36.111111111111114,1.0833333333008335,1.042780748663081,2.9133647928230417e-16,0.9865213057055737,0
402,212.5611111111111,0.5416666666666572,0.5555555555555713,0.5194444444444457,1.042780748663081,0.02290100173605981,1.1708392905351492,36.111111111111114,1.0833333333008335,1.069518716577568,5.1974169945372933e-17,0.986698570695706,0
403,213.11666666666667,0.5555555555555713,0.5555555555555429,0.5194444444444457,1.069518716577568,0.02369044773962831,1.2112005991533015,38.888888888888886,1.1666666666316665,1.0695187165775133,2.7939443175071773e-15,0.9780146481306355,0
404,213.67222222222222,0.5555555555555429,0.5194444444444457,0.5277777777777715,1.052631578947357,0.02445048432423967,1.2500583183816234,38.888888888888886,1.1666666666316665,0.9842105263158036,9.432162489204574e-15,0.9744306946843801,0
405,214.19166666666666,0.5194444444444457,0.5222222222222399,0.5277777777777715,0.9842105263158036,0.01953208860229379,0.9985998440308406,36.111111111111114,1.0833333333008335,0.9894736842105717,1.0814494705032928e-19,0.9893959431619439,0
406,214.7138888888889,0.5222222222222399,0.48888888888888005,0.5277777777777857,0.989473684210545,0.019366085108311094,0.9901127300014567,33.333333333333336,0.9999999999700001,0.9263157894736536,1.740142843464002e-21,0.9952231404172065,0
407,215.20277777777778,0.48888888888888005,0.49166666666667425,0.5277777777777857,0.9263157894736536,0.017595349861845983,0.8995819128960955,30.555555555555557,0.9166666666391667,0.9315789473684215,8.423100307038549e-22,0.9920044030875557,0
408,215.69444444444446,0.49166666666667425,0.48611111111108585,0.5222222222222257,0.9414893617021359,0.01919553126896418,0.9813929744833148,36.111111111111114,1.0833333333008335,0.9308510638297327,1.7673314785609244e-20,0.9943015565413615,0
409,216.18055555555554,0.48611111111108585,0.5138888888889142,0.5222222222222257,0.9308510638297327,0.018875151892016804,0.9650132210240366,33.333333333333336,0.9999999999700001,0.9840425531915312,4.808887596394835e-21,0.9982779205563138,0
410,216.69444444444446,0.5138888888889142,0.5111111111110915,0.5208333333333286,0.9866666666667242,0.018911034060719915,0.9668477369736627,33.333333333333336,0.9999999999700001,0.9813333333333046,1.4759727385946408e-21,0.9978436682984984,0
411,217.20555555555555,0.5111111111110915,0.5472222222222172,0.5166666666666799,0.9892473118278937,0.02027118508245124,1.0363869770321879,36.111111111111114,1.0833333333008335,1.0591397849461996,1.553519507382745e-19,0.9964796490131285,0
412,217.75277777777777,0.5472222222222172,0.5527777777777771,0.5166666666666799,1.0591397849461996,0.0202729492560397,1.036477172377199,36.111111111111114,1.0833333333008335,1.0698924731182509,6.790919667525194e-19,0.9884274535538178,0
413,218.30555555555554,0.5527777777777771,0.5555555555555713,0.5166666666666799,1.0698924731182509,0.022832590219906655,1.1673416753670287,38.888888888888886,1.1666666666316665,1.0752688172043041,1.0766228157943545e-16,0.9846013071824808,0
414,218.86111111111111,0.5555555555555713,0.5555555555555429,0.5166666666666799,1.0752688172043041,0.020108733290303854,1.0280814477258207,36.111111111111114,1.0833333333008335,1.075268817204249,1.3292925568106987e-19,0.9920042976004009,0
415,219.41666666666666,0.5555555555555429,0.5388888888888914,0.518055555555577,1.0723860589811645,0.020531014940418993,1.0496710687094435,36.111111111111114,1.0833333333008335,1.040214477211758,1.6790183159435247e-19,0.9912151297491401,0
416,219.95555555555555,0.5388888888888914,0.4972222222222342,0.5263888888889028,1.0237467018469435,0.01969852017821511,1.007108844227436,36.111111111111114,1.0833333333008335,0.9445910290237446,7.796876014747694e-21,0.9931221227831621,0
417,220.45277777777778,0.4972222222222342,0.50555555555556,0.5263888888889028,0.9445910290237446,0.018413964068352214,0.941434478465686,36.111111111111114,1.0833333333008335,0.9604221635883735,1.0667355914607224e-20,0.9926133268257091,0
418,220.95833333333334,0.50555555555556,0.5138888888888857,0.5263888888889028,0.9604221635883735,0.0193367803728119,0.9886144926703286,36.111111111111114,1.0833333333008335,0.9762532981530025,3.1152712713179827e-19,0.9867207915219676,0
419,221.47222222222223,0.5138888888888857,0.5138888888888857,0.5263888888889028,0.9762532981530025,0.01849525011422674,0.9455903183446148,33.333333333333336,0.9999999999700001,0.9762532981530025,7.62672389241906e-22,0.997261433432333,0
420,221.98611111111111,0.5138888888888857,0.5305555555555657,0.5263888888888886,0.9762532981530289,0.018623594646375603,0.952152075891169,30.555555555555557,0.9166666666391667,1.0079155672823417,7.415092075298712e-22,0.9975453320347761,0
421,222.51666666666668,0.5305555555555657,0.5305555555555372,0.5347222222222285,0.9922077922077994,0.019626212385531607,1.0034120275701799,30.555555555555557,0.9166666666391667,0.9922077922077462,2.6671112050838668e-21,0.9951427161030018,0
422,223.04722222222222,0.5305555555555372,0.5194444444444457,0.5305555555555515,0.9999999999999732,0.019959900919007675,1.0204722265211998,36.111111111111114,1.0833333333008335,0.9790575916230466,5.330718605571104e-20,0.9912928565254009,0
423,223.56666666666666,0.5194444444444457,0.5333333333333314,0.5249999999999915,0.9894179894180078,0.022432334867961822,1.146878173477237,38.888888888888886,1.1666666666316665,1.0158730158730287,4.2980410507373725e-17,0.9867114413330422,0
424,224.1,0.5333333333333314,0.5500000000000114,0.5249999999999915,1.0158730158730287,0.020574679509782756,1.0519034685845499,36.111111111111114,1.0833333333008335,1.0476190476190863,8.359188968452496e-19,0.9890275382702804,0
425,224.65,0.5500000000000114,0.5250000000000057,0.5249999999999915,1.0476190476190863,0.021648973351380222,1.1068279410516948,38.888888888888886,1.1666666666316665,1.000000000000027,3.7411873637058595e-18,0.9863199576103352,0
426,225.175,0.5250000000000057,0.5583333333333087,0.5222222222222257,1.0053191489361744,0.020218472551509655,1.0336919900162802,33.333333333333336,0.9999999999700001,1.0691489361701585,5.297493733045175e-20,0.9965744109762297,0
427,225.73333333333332,0.5583333333333087,0.5222222222222399,0.5277777777777715,1.0578947368420712,0.020592974403949575,1.0528388154813175,38.888888888888886,1.1666666666316665,0.9894736842105717,3.518755886201542e-20,0.9944239339804058,0
428,226.25555555555556,0.5222222222222399,0.5222222222222115,0.5277777777777715,0.9894736842105717,0.020175600848605924,1.0315001263244488,36.111111111111114,1.0833333333008335,0.9894736842105178,1.150099645231512e-19,0.9918299992702376,0
429,226.77777777777777,0.5222222222222115,0.49444444444444,0.5277777777777715,0.9894736842105178,0.01861938470025736,0.951936837694033,30.555555555555557,0.9166666666391667,0.9368421052631607,2.8621663409040074e-22,0.9957042366544839,0
430,227.2722222222222,0.49444444444444,0.50555555555556,0.5277777777777715,0.9368421052631607,0.01976491177149033,1.010503188582489,33.333333333333336,0.9999999999700001,0.9578947368421251,1.1087558011229193e-20,0.9971759010144565,0
431,227.77777777777777,0.50555555555556,0.5027777777777942,0.5236111111111228,0.9655172413792973,0.017712607333085665,0.9055768320711828,30.555555555555557,0.9166666666391667,0.9602122015915219,1.1581111196852547e-21,0.9909917163547519,0
432,228.28055555555557,0.5027777777777942,0.46666666666666856,0.5222222222222257,0.9627659574468336,0.019538121455499057,0.998908280388698,33.333333333333336,0.9999999999700001,0.8936170212765935,2.2725632185093702e-21,0.9964542074545939,0
433,228.74722222222223,0.46666666666666856,0.5722222222222229,0.5222222222222257,0.8936170212765935,0.03472174545284307,1.775188014947655,47.22222222222222,1.4166666666241667,1.0957446808510578,0.9997031092643738,0.90565524484173,1
434,229.31944444444446,0.5722222222222229,0.5722222222222229,0.5222222222222257,1.0957446808510578,0.023113006940064747,1.1816782933660186,38.888888888888886,1.1666666666316665,1.0957446808510578,8.993564885119136e-17,0.9850231350750296,0
435,229.89166666666668,0.5722222222222229,0.5611111111111029,0.5222222222222257,1.0957446808510578,0.023708042853398958,1.2121001689957713,38.888888888888886,1.1666666666316665,1.0744680851063602,4.00018509120895e-16,0.9822049863170732,0
436,230.45277777777778,0.5611111111111029,0.5694444444444287,0.5222222222222257,1.0744680851063602,0.020662425112205323,1.0563895605062954,38.888888888888886,1.1666666666316665,1.0904255319148561,1.9508482182982906e-19,0.9942937176824062,0
437,231.0222222222222,0.5694444444444287,0.5361111111111256,0.5222222222222257,1.0904255319148561,0.02040273164212238,1.0431124418119742,33.333333333333336,0.9999999999700001,1.026595744680872,5.7347967387000415e-21,0.9958934250462579,0
438,231.55833333333334,0.5361111111111256,0.5305555555555657,0.5291666666666686,1.0131233595800764,0.022110629512885494,1.1304306279052094,36.111111111111114,1.0833333333008335,1.0026246719160261,2.2188474730857176e-18,0.9901407347054649,0
439,232.0888888888889,0.5305555555555657,0.5,0.5333333333333456,0.9947916666666626,0.02002030581321546,1.023560494200239,36.111111111111114,1.0833333333008335,0.9374999999999784,2.8224643271228134e-20,0.9911764804981164,0
440,232.5888888888889,0.5,0.4972222222222058,0.5333333333333456,0.9374999999999784,0.01974662834935542,1.0095684282061652,36.111111111111114,1.0833333333008335,0.9322916666666143,3.89541290124499e-20,0.992972801311654,0
441,233.0861111111111,0.4972222222222058,0.48888888888888005,0.5333333333333456,0.9322916666666143,0.018343286234341692,0.9378209952659908,33.333333333333336,0.9999999999700001,0.9166666666666289,2.7460067871803796e-21,0.9917543077465498,0
442,233.575,0.48888888888888005,0.46666666666666856,0.5333333333333456,0.9166666666666289,0.01927856500125847,0.9856381667823421,33.333333333333336,0.9999999999700001,0.8749999999999833,7.032131382571081e-21,0.9926943241335473,0
443,234.04166666666666,0.46666666666666856,0.5666666666666629,0.5333333333333456,0.8749999999999833,0.05158628556693866,2.6374064632916774,86.11111111111111,2.5833333332558337,1.0624999999999685,0.9999959468841553,0.7671393160882231,1
444,234.60833333333332,0.5666666666666629,0.5333333333333599,0.5333333333333456,1.0624999999999685,0.02105163553472176,1.0762883780436296,38.888888888888886,1.1666666666316665,1.0000000000000266,5.057024897275194e-20,0.994395395703048,0
445,235.14166666666668,0.5333333333333599,0.544444444444423,0.5319444444444628,1.0026109660574567,0.018490217203128285,0.9453330051437445,33.333333333333336,0.9999999999700001,1.0234986945168956,4.886161028034724e-22,0.9979445329109122,0
446,235.6861111111111,0.544444444444423,0.580555555555577,0.5319444444444628,1.0234986945168956,0.01961436895327518,1.0028065188688386,33.333333333333336,0.9999999999700001,1.0913838120104467,8.041950889436403e-21,0.9976396730630877,0
447,236.26666666666668,0.580555555555577,0.5277777777777715,0.5319444444444628,1.0913838120104467,0.021823669865524666,1.1157594954455698,27.77777777777778,0.8333333333083334,0.9921671018276302,4.5006103732703195e-08,0.8152698281683972,0
448,236.79444444444445,0.5277777777777715,0.5361111111110972,0.5291666666666686,0.997375328083974,0.018851345207905875,0.9637960777105831,30.555555555555557,0.9166666666391667,1.0131233595800226,1.1593089765708403e-21,0.9955997442353834,0
449,237.33055555555555,0.5361111111110972,0.5500000000000114,0.5305555555555657,1.0104712041884363,0.019694510772594022,1.006903858887189,36.111111111111114,1.0833333333008335,1.0366492146596875,3.6449684611580754e-20,0.9935064285270228,0
450,237.88055555555556,0.5500000000000114,0.5250000000000057,0.5347222222222285,1.0285714285714376,0.02229134168203766,1.139669739379885,41.666666666666664,1.2499999999625,0.9818181818181808,1.0211941708661152e-16,0.9797633972964546,0
451,238.40555555555557,0.5250000000000057,0.5,0.5347222222222285,0.9818181818181808,0.01927592361287547,0.9855031228512502,36.111111111111114,1.0833333333008335,0.935064935064924,4.523585005968983e-21,0.9935661297597929,0
452,238.90555555555557,0.5,0.4972222222222058,0.5347222222222285,0.935064935064924,0.018999919410179696,0.971392099735602,33.333333333333336,0.9999999999700001,0.9298701298700882,1.0028090703945784e-20,0.9912948228448331,0
453,239.40277777777777,0.4972222222222058,0.48888888888890847,0.5347222222222285,0.9298701298700882,0.018734453948749143,0.9578198815372372,27.77777777777778,0.8333333333083334,0.9142857142857401,1.1387832651521612e-20,0.9854568527586582,0
454,239.89166666666668,0.48888888888890847,0.5027777777777658,0.5305555555555657,0.9214659685864068,0.017388199371210566,0.8889911127081859,27.77777777777778,0.8333333333083334,0.9476439790575509,6.451738671939668e-22,0.9905942676339223,0
455,240.39444444444445,0.5027777777777658,0.5,0.5263888888888886,0.9551451187334871,0.016796780150321197,0.8587541445189464,27.77777777777778,0.8333333333083334,0.9498680738786285,2.8615891219133263e-21,0.9820547605736056,0
456,240.89444444444445,0.5,0.5027777777777658,0.5138888888888857,0.9729729729729789,0.022584380022116154,1.1546516517936487,38.888888888888886,1.1666666666316665,0.9783783783783611,9.845372318869093e-17,0.9870087253488462,0
457,241.3972222222222,0.5027777777777658,0.5305555555555657,0.5027777777777658,1.0,0.020650308181703395,1.0557700689016989,33.333333333333336,0.9999999999700001,1.0552486187845758,3.178085609276458e-18,0.9892755900947006,0
458,241.92777777777778,0.5305555555555657,0.5444444444444514,0.5027777777777658,1.0552486187845758,0.019862823912325,1.015509056134961,36.111111111111114,1.0833333333008335,1.0828729281768352,1.6391740856620052e-18,0.9873908042126678,0
459,242.47222222222223,0.5444444444444514,0.5611111111111029,0.5027777777777658,1.0828729281768352,0.021065288876132147,1.076986420371848,36.111111111111114,1.0833333333008335,1.116022099447524,1.0700751683940176e-17,0.986973130180212,0
460,243.03333333333333,0.5611111111111029,0.5500000000000114,0.5027777777777658,1.116022099447524,0.023976766497470214,1.2258389654205144,41.666666666666664,1.2499999999625,1.0939226519337504,1.2658079845526051e-14,0.978585574004999,0
461,243.58333333333334,0.5500000000000114,0.5361111111110972,0.5027777777777658,1.0939226519337504,0.01917736976512665,0.9804644473161078,33.333333333333336,0.9999999999700001,1.0662983425414343,5.680495239542776e-21,0.9960426100110987,0
462,244.11944444444444,0.5361111111110972,0.50555555555556,0.5166666666666657,1.0376344086021256,0.018668203879010453,0.9544327727310484,30.555555555555557,0.9166666666391667,0.9784946236559243,2.1832954054545533e-20,0.9844317653342207,0
463,244.625,0.50555555555556,0.48888888888888005,0.5180555555555628,0.9758713136729171,0.018775227199394177,0.9599044595137051,30.555555555555557,0.9166666666391667,0.9436997319034549,3.8026655981799085e-20,0.9853318884794068,0
464,245.11388888888888,0.48888888888888005,0.48611111111111427,0.5180555555555628,0.9436997319034549,0.019156230645580485,0.9793836862202734,33.333333333333336,0.9999999999700001,0.938337801608572,2.8707652125473746e-19,0.9850933660127661,0
465,245.6,0.48611111111111427,0.50555555555556,0.5180555555555628,0.938337801608572,0.020146681253811676,1.0300215797420018,36.111111111111114,1.0833333333008335,0.9758713136729171,1.5406371257698149e-18,0.9888282623900214,0
466,246.10555555555555,0.50555555555556,0.5250000000000057,0.5180555555555628,0.9758713136729171,0.021368740025666293,1.0925006992984854,38.888888888888886,1.1666666666316665,1.013404825737262,1.601576017804964e-17,0.9872305135595509,0
467,246.63055555555556,0.5250000000000057,0.5277777777777715,0.5277777777777857,0.994736842105259,0.01828994161797341,0.9350936921767043,33.333333333333336,0.9999999999700001,0.999999999999973,1.1086710635777466e-20,0.9881646329319799,0
468,247.15833333333333,0.5277777777777715,0.5444444444444514,0.5263888888888886,1.0026385224274292,0.020405281780138698,1.0432428204661572,36.111111111111114,1.0833333333008335,1.0343007915567421,1.868856188976262e-18,0.9858616382651857,0
469,247.70277777777778,0.5444444444444514,0.5305555555555372,0.5263888888888886,1.0343007915567421,0.019449578000255575,0.9943813973504084,30.555555555555557,0.9166666666391667,1.0079155672822877,3.919872405775984e-21,0.9926331847662209,0
470,248.23333333333332,0.5305555555555372,0.5500000000000114,0.5263888888888886,1.0079155672822877,0.021445473144822685,1.096423765714054,33.333333333333336,0.9999999999700001,1.044854881266513,1.8522199324965956e-18,0.9892378507877344,0
471,248.78333333333333,0.5500000000000114,0.5555555555555713,0.5263888888888886,1.044854881266513,0.01885378068043191,0.9639205939635124,33.333333333333336,0.9999999999700001,1.055408970976284,7.222883593911071e-20,0.9853206714167982,0
472,249.3388888888889,0.5555555555555713,0.5249999999999773,0.5263888888888886,1.055408970976284,0.02307204115153551,1.1795838716751867,36.111111111111114,1.0833333333008335,0.9973614775725168,3.6749212630897464e-17,0.9835707210116479,0
473,249.86388888888888,0.5249999999999773,0.50555555555556,0.5263888888888886,0.9973614775725168,0.021388941411939245,1.0935335177334276,38.888888888888886,1.1666666666316665,0.9604221635883995,3.516342457517448e-19,0.9938097666599569,0
474,250.36944444444444,0.50555555555556,0.4972222222222342,0.5263888888888886,0.9604221635883995,0.02137089886614029,1.0926110724288,38.888888888888886,1.1666666666316665,0.94459102902377,8.876278284320752e-18,0.9860668404902423,0
475,250.86666666666667,0.4972222222222342,0.50555555555556,0.5263888888888886,0.94459102902377,0.019487213665120972,0.9963055627497077,36.111111111111114,1.0833333333008335,0.9604221635883995,1.0041996417836367e-18,0.9844888417343679,0
476,251.37222222222223,0.50555555555556,0.48888888888888005,0.5263888888888886,0.9604221635883995,0.02078404852204876,1.0626076931685593,38.888888888888886,1.1666666666316665,0.9287598944590867,4.963455389605932e-19,0.9914861212260313,0
477,251.86111111111111,0.48888888888888005,0.51111111111112,0.5263888888888744,0.9287598944591118,0.018954159682801664,0.9690525825670576,30.555555555555557,0.9166666666391667,0.9709762532981966,2.2786494583601705e-20,0.9909398423843998,0
478,252.37222222222223,0.51111111111112,0.5055555555555316,0.5180555555555486,0.9865951742627649,0.019903199865734997,1.0175733218465697,36.111111111111114,1.0833333333008335,0.975871313672889,7.494868980371603e-20,0.9931479815614249,0
479,252.87777777777777,0.5055555555555316,0.5277777777777999,0.50833333333334,0.9945355191256229,0.0198472838439174,1.014714552781836,36.111111111111114,1.0833333333008335,1.0382513661202486,2.4109802294810127e-19,0.9935560109696953,0
480,253.40555555555557,0.5277777777777999,0.5611111111111029,0.50833333333334,1.0382513661202486,0.022549997751227686,1.1528938197949439,33.333333333333336,0.9999999999700001,1.1038251366119913,1.0118643676499051e-16,0.9859724662465088,0
481,253.96666666666667,0.5611111111111029,0.5916666666666686,0.50833333333334,1.1038251366119913,0.020292139614234466,1.0374583008724867,33.333333333333336,0.9999999999700001,1.1639344262294968,3.8807020756621025e-19,0.9926524569779757,0
482,254.55833333333334,0.5916666666666686,0.5611111111111029,0.50833333333334,1.1639344262294968,0.022808261662717738,1.1660978507096138,36.111111111111114,1.0833333333008335,1.1038251366119913,9.864464640023552e-18,0.9882066358408563,0
483,255.11944444444444,0.5611111111111029,0.5388888888888914,0.50833333333334,1.1038251366119913,0.022364389091833404,1.143404369788039,41.666666666666664,1.2499999999625,1.0601092896174775,5.684170102505142e-17,0.9853076616420858,0
484,255.65833333333333,0.5388888888888914,0.5194444444444741,0.5194444444444599,1.0374331550801879,0.023552136535189776,1.204129284354749,44.44444444444444,1.3333333332933333,1.0000000000000273,1.0685594221254962e-14,0.9762983803032976,0
485,256.1777777777778,0.5194444444444741,0.5055555555555316,0.523611111111137,0.99204244031831,0.021165423706855927,1.082105925427292,36.111111111111114,1.0833333333008335,0.9655172413792168,3.584453181239312e-18,0.9854767618349305,0
486,256.68333333333334,0.5055555555555316,0.5055555555555316,0.523611111111137,0.9655172413792168,0.019529127584539917,0.9984484586911876,33.333333333333336,0.9999999999700001,0.9655172413792168,8.05958017624144e-21,0.9959133127970753,0
487,257.18888888888887,0.5055555555555316,0.51111111111112,0.523611111111137,0.9655172413792168,0.018400155895861237,0.9407285202255508,30.555555555555557,0.9166666666391667,0.9761273209548758,1.3399111203782753e-21,0.994545115545461,0
488,257.7,0.51111111111112,0.4833333333333485,0.523611111111137,0.9761273209548758,0.021476375195386886,1.0980036675618279,36.111111111111114,1.0833333333008335,0.9230769230769064,1.067257791227662e-18,0.9897456817449353,0
489,258.18333333333334,0.4833333333333485,0.5138888888888573,0.523611111111137,0.9230769230769064,0.019286784459897295,0.9860583957850809,36.111111111111114,1.0833333333008335,0.9814323607425968,6.809544672992591e-19,0.9881149754085354,0
490,258.6972222222222,0.5138888888888573,0.5277777777778283,0.5166666666666657,0.9946236559139192,0.021155676543231354,1.081607590800953,38.888888888888886,1.1666666666316665,1.0215053763441857,1.543990722768258e-18,0.9926509532767487,0
491,259.225,0.5277777777778283,0.5722222222221944,0.5166666666666657,1.0215053763441857,0.022696615846638284,1.1603898336719198,36.111111111111114,1.0833333333008335,1.1075268817203783,1.0598752803612425e-15,0.9804615073645384,0
492,259.7972222222222,0.5722222222221944,0.5027777777777942,0.5166666666666657,1.1075268817203783,0.02252185351171439,1.1514549141171841,38.888888888888886,1.1666666666316665,0.973118279569926,9.992630485674355e-18,0.9851794033564664,0
493,260.3,0.5027777777777942,0.6055555555555543,0.5124999999999886,0.9810298102981568,0.05028590683684595,2.5709231483993262,94.44444444444444,2.8333333332483335,1.181571815718181,0.9999305009841919,0.7607306763352024,1
494,260.90555555555557,0.6055555555555543,0.5388888888888914,0.5124999999999886,1.181571815718181,0.02130790634695084,1.0893905095326075,36.111111111111114,1.0833333333008335,1.0514905149051772,1.5555654869291067e-19,0.9898566620546865,0
495,261.44444444444446,0.5388888888888914,0.5305555555555657,0.5124999999999886,1.0514905149051772,0.020378866181916467,1.041892293505021,33.333333333333336,0.9999999999700001,1.0352303523035657,1.2804179440831496e-19,0.9916446975441071,0
496,261.975,0.5305555555555657,0.5305555555555088,0.5208333333333428,1.0186666666666675,0.021972982658232738,1.123393278731428,36.111111111111114,1.0833333333008335,1.0186666666665585,2.1543083601524927e-18,0.9914884575918059,0
497,262.50555555555553,0.5305555555555088,0.5333333333333599,0.5291666666666686,1.0026246719159186,0.019938015581699508,1.0193533142088764,33.333333333333336,0.9999999999700001,1.0078740157480781,1.6317800991121527e-19,0.9876179712787034,0
498,263.0388888888889,0.5333333333333599,0.5,0.5305555555555372,1.0052356020943256,0.020861212931676226,1.0665528097911448,33.333333333333336,0.9999999999700001,0.9424083769633833,6.136295183072936e-21,0.9976803643619909,0
499,263.5388888888889,0.5,0.5222222222222399,0.5305555555555372,0.9424083769633833,0.02088888582698809,1.0679676174701893,33.333333333333336,0.9999999999700001,0.9842931937173448,1.907227624177131e-19,0.9946253106193952,0
500,264.06111111111113,0.5222222222222399,0.4944444444444116,0.5305555555555372,0.9842931937173448,0.022764674725267796,1.163869419852804,41.666666666666664,1.2499999999625,0.9319371727748393,4.747671947175067e-17,0.986688723478194,0
501,264.55555555555554,0.4944444444444116,0.5277777777777715,0.5305555555555372,0.9319371727748393,0.02021327907744045,1.0334264678542069,36.111111111111114,1.0833333333008335,0.9947643979057816,3.098524482828964e-19,0.9931932636439926,0
502,265.0833333333333,0.5277777777777715,0.5277777777777715,0.5291666666666401,0.9973753280840275,0.0220278821004177,1.1262000740270854,36.111111111111114,1.0833333333008335,0.9973753280840275,2.2526988470377152e-17,0.983499867436853,0
503,265.6111111111111,0.5277777777777715,0.5638888888889255,0.5291666666666401,0.9973753280840275,0.02176675352590951,1.11284958401624,33.333333333333336,0.9999999999700001,1.0656167979003852,1.7476638894795867e-17,0.984870617512952,0
504,266.175,0.5638888888889255,0.5555555555555429,0.5291666666666401,1.0656167979003852,0.020446703256762795,1.04536053971977,33.333333333333336,0.9999999999700001,1.0498687664042283,9.731769566928714e-20,0.9894195016638608,0
505,266.73055555555555,0.5555555555555429,0.5749999999999886,0.5291666666666401,1.0498687664042283,0.020913486798150513,1.069225369596243,36.111111111111114,1.0833333333008335,1.0866141732283794,8.046501255222497e-19,0.989781155599306,0
506,267.30555555555554,0.5749999999999886,0.5611111111111313,0.5291666666666401,1.0866141732283794,0.02107653232092488,1.0775612540440174,33.333333333333336,0.9999999999700001,1.0603674540683328,1.4764812042553552e-19,0.990346477080084,0
507,267.8666666666667,0.5611111111111313,0.5416666666666856,0.5305555555555657,1.057591623036667,0.023103961813082424,1.1812158511470783,38.888888888888886,1.1666666666316665,1.0209424083769796,6.347393591482809e-17,0.9836308940689202,0
508,268.40833333333336,0.5416666666666856,0.5111111111110631,0.5347222222222285,1.0129870129870364,0.018710300587055376,0.9565850139451773,33.333333333333336,0.9999999999700001,0.9558441558440548,6.791793409358946e-21,0.9868470594172013,0
509,268.9194444444444,0.5111111111110631,0.5166666666667084,0.5347222222222285,0.9558441558440548,0.0204001870641459,1.0429823474210373,33.333333333333336,0.9999999999700001,0.9662337662338327,2.273179888118377e-20,0.9956959821965671,0
510,269.43611111111113,0.5166666666667084,0.5027777777777374,0.5347222222222285,0.9662337662338327,0.01945872588634787,0.9948490932436118,33.333333333333336,0.9999999999700001,0.9402597402596535,2.0003288700715056e-19,0.9829097752585836,0
511,269.93888888888887,0.5027777777777374,0.5166666666667084,0.5347222222222285,0.9402597402596535,0.018034391257419152,0.922028394584232,33.333333333333336,0.9999999999700001,0.9662337662338327,4.93049879744049e-22,0.996941322601711,0
512,270.4555555555556,0.5166666666667084,0.5388888888888914,0.5347222222222285,0.9662337662338327,0.02034959712114988,1.0403958800844402,33.333333333333336,0.9999999999700001,1.0077922077922006,3.5496426810273014e-20,0.995534241374417,0
