beat_index,peak_time_s,rr_prev_s,rr_next_s,rr_baseline_s,prematurity_index,qrs_width_ms,pvc_score,morphology_score,is_pvc_candidate
0,0.55,,0.8194444444444444,0.8333333333332575,,52.77777777777778,0.05652988282953882,0.9935416235592396,0
1,1.3694444444444445,0.8194444444444444,0.8666666666666667,0.8333333333332575,0.9833333333334228,77.77777777777777,0.3493836633398138,0.9973827093638681,0
2,2.236111111111111,0.8666666666666667,0.8861111111111111,0.8333333333332575,1.0400000000000946,77.77777777777777,0.29743806134654577,0.99669880054101,0
3,3.1222222222222222,0.8861111111111111,0.8555555555555556,0.8333333333332575,1.06333333333343,75.0,0.27132028757364635,0.9944777276930085,0
4,3.977777777777778,0.8555555555555556,0.8416666666666668,0.8333333333332575,1.02666666666676,80.55555555555556,0.31604180533755233,0.9966495027780444,0
5,4.819444444444445,0.8416666666666668,0.8111111111111109,0.8333333333332575,1.010000000000092,58.333333333333336,0.2912002224774784,0.9445112167921493,0
6,5.6305555555555555,0.8111111111111109,0.8111111111111109,0.8333333333332575,0.9733333333334216,83.33333333333333,0.3726455409741472,0.9973994806834177,0
7,6.441666666666666,0.8111111111111109,0.8416666666666668,0.8333333333332575,0.9733333333334216,86.11111111111111,0.37975606702264375,0.997169768722757,0
8,7.283333333333333,0.8416666666666668,0.8277777777777775,0.8333333333332575,1.010000000000092,83.33333333333333,0.3379156795939489,0.9983328265857108,0
9,8.11111111111111,0.8277777777777775,0.8583333333333343,0.8333333333332575,0.9933333333334233,77.77777777777777,0.34005767953756827,0.9963844405983557,0
10,8.969444444444445,0.8583333333333343,0.8555555555555543,0.8333333333332575,1.0300000000000948,80.55555555555556,0.31286878200725826,0.9979023179330451,0
11,9.825,0.8555555555555543,0.8694444444444454,0.8333333333332575,1.0266666666667585,77.77777777777777,0.30932982535746234,0.9962450209152688,0
12,10.694444444444445,0.8694444444444454,0.8249999999999993,0.8333333333332575,1.0433333333334294,80.55555555555556,0.3008498795290148,0.9997357853871669,0
13,11.519444444444444,0.8249999999999993,0.7833333333333332,0.8333333333332575,0.9900000000000891,83.33333333333333,0.35665264043731254,0.9981481966888442,0
14,12.302777777777777,0.7833333333333332,0.7888888888888896,0.8333333333332575,0.9400000000000853,83.33333333333333,0.4049288911336637,0.9962412447691446,0
15,13.091666666666667,0.7888888888888896,0.8416666666666668,0.8333333333332575,0.9466666666667537,80.55555555555556,0.3910601191663281,0.9995847382668523,0
16,13.933333333333334,0.8416666666666668,0.8722222222222218,0.8333333333332575,1.010000000000092,80.55555555555556,0.330804815281816,0.9994831844264438,0
17,14.805555555555555,0.8722222222222218,0.9083333333333332,0.8333333333332575,1.0466666666667614,77.77777777777777,0.29163762780567054,0.9967739580502916,0
18,15.713888888888889,0.9083333333333332,0.844444444444445,0.8333333333332575,1.090000000000099,75.0,0.2498211118397815,0.9961899132888827,0
19,16.558333333333334,0.844444444444445,0.81388888888889,0.8333333333332575,1.0133333333334262,83.33333333333333,0.3347899468807821,0.9987021202072295,0
20,17.372222222222224,0.81388888888889,0.8027777777777771,0.8333333333332575,0.9766666666667568,80.55555555555556,0.3622821483353486,0.99895525289871,0
21,18.175,0.8027777777777771,0.841666666666665,0.8333333333332575,0.9633333333334202,80.55555555555556,0.37507596668878285,0.9989967772354402,0
22,19.016666666666666,0.841666666666665,0.8277777777777793,0.8333333333332575,1.01000000000009,80.55555555555556,0.3307508216701187,0.9998431418377712,0
23,19.844444444444445,0.8277777777777793,0.8638888888888872,0.8333333333332575,0.9933333333334254,77.77777777777777,0.34027566131428255,0.9949312287535804,0
24,20.708333333333332,0.8638888888888872,0.8666666666666671,0.8333333333332575,1.0366666666667588,75.0,0.2942629754451611,0.9934940180018983,0
25,21.575,0.8666666666666671,0.8472222222222214,0.8333333333332575,1.040000000000095,80.55555555555556,0.30374435773790304,0.9998078396620109,0
26,22.42222222222222,0.8472222222222214,0.8416666666666686,0.8333333333332575,1.016666666666758,80.55555555555556,0.32464340028233113,0.9997258473603199,0
27,23.26388888888889,0.8416666666666686,0.8083333333333336,0.8333333333332575,1.0100000000000942,83.33333333333333,0.3379254744522113,0.9982675275306148,0
28,24.072222222222223,0.8083333333333336,0.7861111111111114,0.8333333333332575,0.9700000000000885,83.33333333333333,0.37576273641710833,0.9979369818678699,0
29,24.858333333333334,0.7861111111111114,0.8305555555555557,0.8333333333332575,0.9433333333334195,77.77777777777777,0.3875535855552109,0.9992462665734467,0
30,25.68888888888889,0.8305555555555557,0.8361111111111086,0.8333333333332575,0.9966666666667575,80.55555555555556,0.34320945882501136,0.9996071359230072,0
31,26.525,0.8361111111111086,0.9055555555555586,0.8333333333332575,1.0033333333334216,77.77777777777777,0.3305025927521566,0.9975786210311541,0
32,27.430555555555557,0.9055555555555586,0.8611111111111107,0.8333333333332575,1.086666666666769,75.0,0.2534292032875642,0.989225817937656,0
33,28.291666666666668,0.8611111111111107,0.8305555555555557,0.8333333333332575,1.033333333333427,80.55555555555556,0.30971615101656513,0.9991461153630917,0
34,29.122222222222224,0.8305555555555557,0.7972222222222207,0.8333333333332575,0.9966666666667575,83.33333333333333,0.3508225423251177,0.9951086501624515,0
35,29.919444444444444,0.7972222222222207,0.8083333333333336,0.8333333333332575,0.9566666666667519,83.33333333333333,0.388850152347354,0.9962545671169492,0
36,30.727777777777778,0.8083333333333336,0.81111111111111,0.8333333333332575,0.9700000000000885,80.55555555555556,0.3690559197618406,0.9963936886628346,0
37,31.538888888888888,0.81111111111111,0.8611111111111107,0.8333333333332575,0.9733333333334205,83.33333333333333,0.37251388802866564,0.998277166986635,0
38,32.4,0.8611111111111107,0.9083333333333314,0.8333333333332575,1.033333333333427,72.22222222222223,0.29199481294420787,0.9857956901004633,0
39,33.30833333333333,0.9083333333333314,0.8444444444444485,0.8333333333332575,1.090000000000097,75.0,0.250137054597334,0.9940836282385432,0
40,34.15277777777778,0.8444444444444485,0.8361111111111086,0.8333333333332575,1.0133333333334305,80.55555555555556,0.3277459152975436,0.9994069265219737,0
41,34.98888888888889,0.8361111111111086,0.81666666666667,0.8333333333332575,1.0033333333334216,80.55555555555556,0.33698509011703526,0.9995129869953485,0
42,35.80555555555556,0.81666666666667,0.7916666666666643,0.8333333333332575,0.9800000000000931,80.55555555555556,0.35908948692724574,0.9990079378782437,0
43,36.59722222222222,0.7916666666666643,0.8361111111111086,0.8333333333332575,0.9500000000000836,83.33333333333333,0.39506648454560955,0.9976895225348004,0
44,37.43333333333333,0.8361111111111086,0.6138888888888943,0.8333333333332575,1.0033333333334216,77.77777777777777,0.330471930305245,0.9977830373438981,0
45,38.047222222222224,0.6138888888888943,0.8666666666666671,0.8333333333332575,0.7366666666667401,63.888888888888886,0.533866632023941,0.939689144860444,1
46,38.91388888888889,0.8666666666666671,0.8638888888888872,0.8333333333332575,1.040000000000095,77.77777777777777,0.29778121755502485,0.9944110924844803,0
47,39.77777777777778,0.8638888888888872,0.8583333333333343,0.8333333333332575,1.0366666666667588,75.0,0.294031072221653,0.9950400394919524,0
48,40.63611111111111,0.8583333333333343,0.8333333333333286,0.8333333333332575,1.0300000000000948,77.77777777777777,0.30597488634833686,0.9987106072624692,0
49,41.46944444444444,0.8333333333333286,0.7944444444444443,0.8333333333332575,1.0000000000000853,80.55555555555556,0.3413696962045805,0.9910350147969551,0
50,42.263888888888886,0.7944444444444443,0.7861111111111114,0.8333333333332575,0.9533333333334199,83.33333333333333,0.3917320958213826,0.9984772632526098,0
51,43.05,0.7861111111111114,0.8250000000000028,0.8333333333332575,0.9433333333334195,80.55555555555556,0.3942788704013348,0.9995620493293396,0
52,43.875,0.8250000000000028,0.8916666666666657,0.8333333333332575,0.9900000000000935,80.55555555555556,0.3496708530849161,0.9984380414646397,0
53,44.766666666666666,0.8916666666666657,0.8833333333333329,0.8333333333332575,1.0700000000000962,77.77777777777777,0.2718228739994085,0.9985762876988877,0
54,45.65,0.8833333333333329,0.8194444444444429,0.8333333333332575,1.0600000000000958,77.77777777777777,0.2800884115567119,0.9983635025621538,0
55,46.46944444444444,0.8194444444444429,0.8361111111111157,0.8333333333332575,0.9833333333334209,77.77777777777777,0.34936996695350475,0.9974740186059405,0
56,47.30555555555556,0.8361111111111157,0.8027777777777771,0.8333333333332575,1.00333333333343,80.55555555555556,0.3370868524324925,0.9988345715589149,0
57,48.108333333333334,0.8027777777777771,0.7944444444444443,0.8333333333332575,0.9633333333334202,80.55555555555556,0.375044259654016,0.9992081574672189,0
58,48.90277777777778,0.7944444444444443,0.8638888888888872,0.8333333333332575,0.9533333333334199,77.77777777777777,0.378237276401247,0.9970363067499748,0
59,49.766666666666666,0.8638888888888872,0.8444444444444485,0.8333333333332575,1.0366666666667588,80.55555555555556,0.3068336354497326,0.998720221137765,0
60,50.611111111111114,0.8444444444444485,0.8555555555555543,0.8333333333332575,1.0133333333334305,77.77777777777777,0.3211045647493564,0.9985315817798363,0
61,51.46666666666667,0.8555555555555543,0.8638888888888872,0.8333333333332575,1.0266666666667585,80.55555555555556,0.31563337317454393,0.9993723838647768,0
62,52.330555555555556,0.8638888888888872,0.8388888888888886,0.8333333333332575,1.0366666666667588,77.77777777777777,0.3002552927680691,0.9974248239521362,0
63,53.169444444444444,0.8388888888888886,0.81111111111111,0.8333333333332575,1.0066666666667579,80.55555555555556,0.33385968684724193,0.9996858733685539,0
64,53.980555555555554,0.81111111111111,0.7861111111111114,0.8333333333332575,0.9733333333334205,83.33333333333333,0.3724799225524592,0.9985036034946778,0
65,54.766666666666666,0.7861111111111114,0.81666666666667,0.8333333333332575,0.9433333333334195,80.55555555555556,0.39426537786154847,0.9996519995945816,0
66,55.583333333333336,0.81666666666667,0.8499999999999943,0.8333333333332575,0.9800000000000931,83.33333333333333,0.3660248464836578,0.9990276117423167,0
67,56.43333333333333,0.8499999999999943,0.8861111111111128,0.8333333333332575,1.020000000000086,80.55555555555556,0.3216352241409908,0.9995249851579464,0
68,57.31944444444444,0.8861111111111128,0.8638888888888872,0.8333333333332575,1.063333333333432,77.77777777777777,0.2773797432133588,0.997960944864539,0
69,58.18333333333333,0.8638888888888872,0.8361111111111157,0.8333333333332575,1.0366666666667588,77.77777777777777,0.3003323088789128,0.996911383213178,0
70,59.019444444444446,0.8361111111111157,0.80833333333333,0.8333333333332575,1.00333333333343,80.55555555555556,0.3369372954552567,0.99983161807382,0
71,59.827777777777776,0.80833333333333,0.7777777777777786,0.8333333333332575,0.9700000000000842,83.33333333333333,0.37625989485839634,0.9946225922593097,0
72,60.605555555555554,0.7777777777777786,0.8527777777777814,0.8333333333332575,0.9333333333334192,83.33333333333333,0.41102360101129853,0.9983991716205134,0
73,61.458333333333336,0.8527777777777814,0.8666666666666671,0.8333333333332575,1.0233333333334307,77.77777777777777,0.3125487995893578,0.9948085277054839,0
74,62.325,0.8666666666666671,0.8861111111111057,0.8333333333332575,1.040000000000095,77.77777777777777,0.29747322602874465,0.9964643693263482,0
75,63.21111111111111,0.8861111111111057,0.8527777777777743,0.8333333333332575,1.0633333333334236,80.55555555555556,0.283943576045677,0.9993530743791831,0
76,64.06388888888888,0.8527777777777743,0.8500000000000085,0.8333333333332575,1.0233333333334222,77.77777777777777,0.3118306253933279,0.9995963556790675,0
77,64.91388888888889,0.8500000000000085,0.8111111111111029,0.8333333333332575,1.020000000000103,83.33333333333333,0.3290401047272167,0.996414518823157,0
78,65.725,0.8111111111111029,0.8083333333333371,0.8333333333332575,0.973333333333412,83.33333333333333,0.3723964982676915,0.9990597653931841,0
79,66.53333333333333,0.8083333333333371,0.8333333333333286,0.8333333333332575,0.9700000000000928,83.33333333333333,0.37566633900737734,0.9985796312660487,0
80,67.36666666666666,0.8333333333333286,0.8250000000000028,0.8333333333332575,1.0000000000000853,83.33333333333333,0.3477423078807132,0.994806341196224,0
81,68.19166666666666,0.8250000000000028,0.8555555555555543,0.8333333333332575,0.9900000000000935,80.55555555555556,0.34950523898170127,0.9995421354860716,0
82,69.04722222222222,0.8555555555555543,0.875,0.8333333333332575,1.0266666666667585,75.0,0.30316325575418884,0.9934758968341341,0
83,69.92222222222222,0.875,0.8527777777777885,0.8333333333332575,1.0500000000000955,55.55555555555556,0.24277994823710136,0.997415748882374,0
84,70.775,0.8527777777777885,0.8277777777777686,0.8333333333332575,1.0233333333334393,55.55555555555556,0.26601748784386403,0.9990206429761297,0
85,71.60277777777777,0.8277777777777686,0.7833333333333314,0.8333333333332575,0.9933333333334127,50.0,0.288372280812904,0.9761166558679192,0
86,72.3861111111111,0.7833333333333314,0.8111111111111171,0.8333333333332575,0.9400000000000832,50.0,0.3400787319647596,0.9723321103633813,0
87,73.19722222222222,0.8111111111111171,0.8250000000000028,0.8333333333332575,0.9733333333334291,77.77777777777777,0.35890779340883355,0.9975780451485887,0
88,74.02222222222223,0.8250000000000028,0.86944444444444,0.8333333333332575,0.9900000000000935,77.77777777777777,0.3432707528629718,0.9959543612142163,0
89,74.89166666666667,0.86944444444444,0.88055555555556,0.8333333333332575,1.043333333333423,72.22222222222223,0.28232386052825675,0.9917498996472471,0
90,75.77222222222223,0.88055555555556,0.8499999999999943,0.8333333333332575,1.0566666666667681,58.333333333333336,0.24212857836536086,0.9961973684606418,0
91,76.62222222222222,0.8499999999999943,0.8083333333333371,0.8333333333332575,1.020000000000086,58.333333333333336,0.2747451732310601,0.9931227382276058,0
92,77.43055555555556,0.8083333333333371,0.8111111111111029,0.8333333333332575,0.9700000000000928,52.77777777777778,0.3118290258602857,0.9964364751634229,0
93,78.24166666666666,0.8111111111111029,0.8250000000000028,0.8333333333332575,0.973333333333412,52.77777777777778,0.3085434159023771,0.9970217374120437,0
94,79.06666666666666,0.8250000000000028,0.8500000000000085,0.8333333333332575,0.9900000000000935,50.0,0.2916675152723908,0.9751388355898242,0
95,79.91666666666667,0.8500000000000085,0.5749999999999886,0.8333333333332575,1.020000000000103,75.0,0.33419144055825334,0.8267862725430828,0
96,80.49166666666666,0.5749999999999886,0.8888888888888999,0.8333333333332575,0.6900000000000491,100.0,0.6495620756788889,0.9144938788295671,1
97,81.38055555555556,0.8888888888888999,0.6694444444444372,0.8333333333332575,1.066666666666777,88.88888888888889,0.33314520782263424,0.7943634093920737,0
98,82.05,0.6694444444444372,0.8611111111111143,0.8333333333332575,0.8033333333333976,102.77777777777777,0.5877944199063247,0.9184665922534461,1
99,82.91111111111111,0.8611111111111143,0.8277777777777828,0.8333333333332575,1.0333333333334311,77.77777777777777,0.3031878446610275,0.9975171426699327,0
100,83.7388888888889,0.8277777777777828,0.7972222222222172,0.8333333333332575,0.9933333333334298,80.55555555555556,0.34658936967816717,0.9979908547243745,0
101,84.53611111111111,0.7972222222222172,0.8194444444444429,0.8333333333332575,0.9566666666667476,83.33333333333333,0.3890843388285472,0.9946933239090221,0
102,85.35555555555555,0.8194444444444429,0.8138888888888971,0.8333333333332575,0.9833333333334209,80.55555555555556,0.35582822826161686,0.9995699582819118,0
103,86.16944444444445,0.8138888888888971,0.61666666666666,0.8333333333332575,0.9766666666667654,86.11111111111111,0.4086891352142155,0.7830045396423457,0
104,86.78611111111111,0.61666666666666,0.9249999999999972,0.8333333333332575,0.7400000000000594,105.55555555555556,0.6377720007317145,0.9145449161300072,1
105,87.71111111111111,0.9249999999999972,0.6888888888888971,0.8333333333332575,1.1100000000000976,88.88888888888889,0.2966500287922802,0.8156631712593627,0
106,88.4,0.6888888888888971,0.8444444444444343,0.8333333333332575,0.8266666666667517,105.55555555555556,0.5761347763646355,0.9228272879364314,1
107,89.24444444444444,0.8444444444444343,0.6611111111111114,0.8333333333332575,1.0133333333334134,86.11111111111111,0.3703512999124771,0.8088002283586582,0
108,89.90555555555555,0.6611111111111114,0.8555555555555543,0.8333333333332575,0.7933333333334058,94.44444444444444,0.5737059507413258,0.9160992755936903,1
109,90.7611111111111,0.8555555555555543,0.625,0.8333333333332575,1.0266666666667585,72.22222222222223,0.31989005418531574,0.8395018313812874,0
110,91.3861111111111,0.625,0.8638888888888943,0.8333333333332575,0.7500000000000682,100.0,0.6172353321762615,0.915973103920559,1
111,92.25,0.8638888888888943,0.8916666666666657,0.8333333333332575,1.0366666666667674,77.77777777777777,0.30060243941762255,0.9951105129550626,0
112,93.14166666666667,0.8916666666666657,0.8499999999999943,0.8333333333332575,1.0700000000000962,52.77777777777778,0.22181484797278755,0.9956443034299964,0
113,93.99166666666666,0.8499999999999943,0.8333333333333428,0.8333333333332575,1.020000000000086,55.55555555555556,0.2692806885567932,0.9974075776232849,0
114,94.825,0.8333333333333428,0.8333333333333286,0.8333333333332575,1.0000000000001024,52.77777777777778,0.2832302485409844,0.9971614930444062,0
115,95.65833333333333,0.8333333333333286,0.7972222222222172,0.8333333333332575,1.0000000000000853,52.77777777777778,0.28337879714072917,0.9961711690462145,0
116,96.45555555555555,0.7972222222222172,0.8138888888888971,0.8333333333332575,0.9566666666667476,47.22222222222222,0.31675213270973634,0.9939172732128618,0
117,97.26944444444445,0.8138888888888971,0.8111111111111029,0.8333333333332575,0.9766666666667654,55.55555555555556,0.30977456283332094,0.997858178149527,0
118,98.08055555555555,0.8111111111111029,0.8388888888889028,0.8333333333332575,0.973333333333412,77.77777777777777,0.35874345817358194,0.9986736133837093,0
119,98.91944444444445,0.8388888888889028,0.8611111111111001,0.8333333333332575,1.006666666666775,55.55555555555556,0.2820522966393346,0.993920829991851,0
120,99.78055555555555,0.8611111111111001,0.8638888888888943,0.8333333333332575,1.033333333333414,52.77777777777778,0.2526513220472974,0.9981084689818698,0
121,100.64444444444445,0.8638888888888943,0.8305555555555486,0.8333333333332575,1.0366666666667674,55.55555555555556,0.25417570782775056,0.9986254271882816,0
122,101.475,0.8305555555555486,0.7972222222222314,0.8333333333332575,0.996666666666749,50.0,0.2820084506294912,0.9976257326015445,0
123,102.27222222222223,0.7972222222222314,0.7861111111111114,0.8333333333332575,0.9566666666667647,50.0,0.32047638743415024,0.9958361376730878,0
124,103.05833333333334,0.7861111111111114,0.8138888888888829,0.8333333333332575,0.9433333333334195,50.0,0.33307541544108876,0.9975969577726624,0
125,103.87222222222222,0.8138888888888829,0.8972222222222257,0.8333333333332575,0.9766666666667483,58.333333333333336,0.31494440120385514,0.9955376474455093,0
126,104.76944444444445,0.8972222222222257,0.87777777777778,0.8333333333332575,1.0766666666667688,55.55555555555556,0.22155599709836254,0.9919333647390451,0
127,105.64722222222223,0.87777777777778,0.8305555555555486,0.8333333333332575,1.0533333333334318,55.55555555555556,0.24032903380412896,0.9948256097702188,0
128,106.47777777777777,0.8305555555555486,0.8361111111111086,0.8333333333332575,0.996666666666749,52.77777777777778,0.2862289890513733,0.9980070949042317,0
129,107.31388888888888,0.8361111111111086,0.8055555555555571,0.8333333333332575,1.0033333333334216,52.77777777777778,0.279873269486841,0.9987886183535606,0
130,108.11944444444444,0.8055555555555571,0.8083333333333371,0.8333333333332575,0.9666666666667565,50.0,0.31105499445799095,0.9944321687300961,0
131,108.92777777777778,0.8083333333333371,0.8444444444444485,0.8333333333332575,0.9700000000000928,52.77777777777778,0.31162282537443436,0.9978111450690986,0
132,109.77222222222223,0.8444444444444485,0.8499999999999943,0.8333333333332575,1.0133333333334305,58.333333333333336,0.2809346879579401,0.9924791891227851,0
133,110.62222222222222,0.8499999999999943,0.87777777777778,0.8333333333332575,1.020000000000086,55.55555555555556,0.2699249090354669,0.9931127744321269,0
134,111.5,0.87777777777778,0.8527777777777743,0.8333333333332575,1.0533333333334318,52.77777777777778,0.23530582045753864,0.9979915040003837,0
135,112.35277777777777,0.8527777777777743,0.7083333333333428,0.8333333333332575,1.0233333333334222,55.55555555555556,0.2663016817728238,0.9971260167831675,0
136,113.06111111111112,0.7083333333333428,0.8361111111111086,0.8333333333332575,0.8500000000000887,102.77777777777777,0.5504338531629092,0.9175002362619354,1
137,113.89722222222223,0.8361111111111086,0.8111111111111029,0.8333333333332575,1.0033333333334216,83.33333333333333,0.3725283981847073,0.8088130041176884,0
138,114.70833333333333,0.8111111111111029,0.8027777777777771,0.8333333333332575,0.973333333333412,83.33333333333333,0.3726555091844854,0.9973330259478915,0
139,115.5111111111111,0.8027777777777771,0.8527777777777885,0.8333333333332575,0.9633333333334202,52.77777777777778,0.3179645377501969,0.9982697973162633,0
140,116.3638888888889,0.8527777777777885,0.8777777777777658,0.8333333333332575,1.0233333333334393,58.333333333333336,0.2722269573901163,0.9897692377672154,0
141,117.24166666666666,0.8777777777777658,0.8611111111111143,0.8333333333332575,1.0533333333334147,58.333333333333336,0.24574098417243412,0.9908909990810487,0
142,118.10277777777777,0.8611111111111143,0.8583333333333343,0.8333333333332575,1.0333333333334311,52.77777777777778,0.25272911902811873,0.99758982244296,0
143,118.96111111111111,0.8583333333333343,0.8138888888888971,0.8333333333332575,1.0300000000000948,50.0,0.2512518729966777,0.9986935867119313,0
144,119.775,0.8138888888888971,0.7749999999999915,0.8333333333332575,0.9766666666667654,83.33333333333333,0.3695473842920951,0.9967757507604988,0
145,120.55,0.7749999999999915,0.8416666666666686,0.8333333333332575,0.9300000000000743,50.0,0.3458187526300626,0.9982084012969471,0
146,121.39166666666667,0.8416666666666686,0.8944444444444457,0.8333333333332575,1.0100000000000942,77.77777777777777,0.3247127793112804,0.9949457424999488,0
147,122.28611111111111,0.8944444444444457,0.9194444444444372,0.8333333333332575,1.0733333333334325,55.55555555555556,0.22441842651232685,0.9906446699314382,0
148,123.20555555555555,0.9194444444444372,0.8555555555555685,0.8333333333332575,1.103333333333425,55.55555555555556,0.200658013851086,0.9952936756254811,0
149,124.06111111111112,0.8555555555555685,0.8472222222222143,0.8333333333332575,1.0266666666667756,75.0,0.3027597880084004,0.9961656818059541,0
150,124.90833333333333,0.8472222222222143,0.8055555555555571,0.8333333333332575,1.0166666666667497,77.77777777777777,0.31824717898752497,0.9972163075956937,0
151,125.71388888888889,0.8055555555555571,0.8083333333333371,0.8333333333332575,0.9666666666667565,80.55555555555556,0.37179041985096006,0.9995174574019525,0
152,126.52222222222223,0.8083333333333371,0.8611111111111143,0.8333333333332575,0.9700000000000928,83.33333333333333,0.37578198250600614,0.9978086746085234,0
153,127.38333333333334,0.8611111111111143,0.8694444444444258,0.8333333333332575,1.0333333333334311,80.55555555555556,0.30974308241246745,0.9989665727237184,0
154,128.25277777777777,0.8694444444444258,0.8694444444444684,0.8333333333332575,1.0433333333334058,77.77777777777777,0.2943828506143696,0.9976982964215529,0
155,129.12222222222223,0.8694444444444684,0.875,0.8333333333332575,1.0433333333334571,77.77777777777777,0.2947699920751394,0.9951173533494572,0
156,129.99722222222223,0.875,0.8583333333333201,0.8333333333332575,1.0500000000000955,80.55555555555556,0.2953637601498853,0.9980046475597937,0
157,130.85555555555555,0.8583333333333201,0.8249999999999886,0.8333333333332575,1.0300000000000777,80.55555555555556,0.31259833481578053,0.9997052992096653,0
158,131.68055555555554,0.8249999999999886,0.7722222222222399,0.8333333333332575,0.9900000000000764,83.33333333333333,0.35687058744391803,0.9966952166448881,0
159,132.45277777777778,0.7722222222222399,0.799999999999983,0.8333333333332575,0.9266666666667722,83.33333333333333,0.4174531527236561,0.9982080670087912,0
160,133.25277777777777,0.799999999999983,0.8333333333333428,0.8333333333332575,0.9600000000000668,83.33333333333333,0.3852294247614203,0.9989688216081202,0
161,134.0861111111111,0.8333333333333428,0.8722222222222342,0.8333333333332575,1.0000000000001024,77.77777777777777,0.3333606231483729,0.9992778201081803,0
162,134.95833333333334,0.8722222222222342,0.8888888888888857,0.8333333333332575,1.0466666666667763,80.55555555555556,0.298313333958532,0.9974202654278485,0
163,135.84722222222223,0.8888888888888857,0.8499999999999943,0.8333333333332575,1.06666666666676,77.77777777777777,0.2747860347403488,0.9969544672732371,0
164,136.69722222222222,0.8499999999999943,0.8111111111111029,0.8333333333332575,1.020000000000086,77.77777777777777,0.3152583986274451,0.9968861401848659,0
165,137.50833333333333,0.8111111111111029,0.8055555555555713,0.8333333333332575,0.973333333333412,83.33333333333333,0.37257478602790267,0.9978711803251097,0
166,138.3138888888889,0.8055555555555713,0.8361111111111086,0.8333333333332575,0.9666666666667735,80.55555555555556,0.3718495661758545,0.9991231485692139,0
167,139.15,0.8361111111111086,0.8416666666666686,0.8333333333332575,1.0033333333334216,80.55555555555556,0.3369750933618716,0.9995796320297727,0
168,139.99166666666667,0.8416666666666686,0.86388888888888,0.8333333333332575,1.0100000000000942,75.0,0.31868161503996806,0.9912739162057399,0
169,140.85555555555555,0.86388888888888,0.86388888888888,0.8333333333332575,1.0366666666667503,72.22222222222223,0.2883344561500841,0.9905554040571276,0
170,141.71944444444443,0.86388888888888,0.8361111111111086,0.8333333333332575,1.0366666666667503,80.55555555555556,0.3067275264696018,0.9994276143386869,0
171,142.55555555555554,0.8361111111111086,0.8444444444444628,0.8333333333332575,1.0033333333334216,77.77777777777777,0.3305471491260074,0.9972815785388156,0
172,143.4,0.8444444444444628,0.8166666666666629,0.8333333333332575,1.0133333333334476,80.55555555555556,0.32775227841791815,0.9993645057193715,0
173,144.21666666666667,0.8166666666666629,0.7972222222222172,0.8333333333332575,0.9800000000000846,80.55555555555556,0.3590871872367366,0.9990232691483591,0
174,145.01388888888889,0.7972222222222172,0.8361111111111086,0.8333333333332575,0.9566666666667476,77.77777777777777,0.37497202203276087,0.9973690165773923,0
175,145.85,0.8361111111111086,0.8638888888889085,0.8333333333332575,1.0033333333334216,80.55555555555556,0.3370001055213238,0.9994128843000916,0
176,146.7138888888889,0.8638888888889085,0.8888888888888857,0.8333333333332575,1.0366666666667845,77.77777777777777,0.30074582599127864,0.9941546024639213,0
177,147.6027777777778,0.8888888888888857,0.8499999999999943,0.8333333333332575,1.06666666666676,80.55555555555556,0.28113488899919203,0.9997797872776677,0
178,148.45277777777778,0.8499999999999943,0.8166666666666629,0.8333333333332575,1.020000000000086,77.77777777777777,0.31542534712704984,0.9957731501875008,0
179,149.26944444444445,0.8166666666666629,0.7944444444444514,0.8333333333332575,0.9800000000000846,83.33333333333333,0.3660581329478492,0.9988057019810945,0
180,150.0638888888889,0.7944444444444514,0.8027777777777771,0.8333333333332575,0.9533333333334284,80.55555555555556,0.38472413447815035,0.998941601300616,0
181,150.86666666666667,0.8027777777777771,0.8249999999999886,0.8333333333332575,0.9633333333334202,83.33333333333333,0.38239690317614017,0.9964459382265447,0
182,151.69166666666666,0.8249999999999886,0.88055555555556,0.8333333333332575,0.9900000000000764,83.33333333333333,0.356726390185258,0.9976565317026219,0
183,152.57222222222222,0.88055555555556,0.88611111111112,0.8333333333332575,1.0566666666667681,72.22222222222223,0.2718855146446139,0.9853277005171562,0
184,153.45833333333334,0.88611111111112,0.8416666666666686,0.8333333333332575,1.0633333333334407,77.77777777777777,0.27746734724363453,0.9973769179959863,0
185,154.3,0.8416666666666686,0.8361111111111086,0.8333333333332575,1.0100000000000942,83.33333333333333,0.3379206006821551,0.9983000193309894,0
186,155.13611111111112,0.8361111111111086,0.8277777777777828,0.8333333333332575,1.0033333333334216,80.55555555555556,0.33734560082502296,0.9971095822754302,0
187,155.9638888888889,0.8277777777777828,0.799999999999983,0.8333333333332575,0.9933333333334298,83.33333333333333,0.35353754399120363,0.9979250968776179,0
188,156.76388888888889,0.799999999999983,0.825000000000017,0.8333333333332575,0.9600000000000668,80.55555555555556,0.3782501705568113,0.9992417787320267,0
189,157.5888888888889,0.825000000000017,0.8333333333333144,0.8333333333332575,0.9900000000001105,86.11111111111111,0.36419758221038173,0.9950223798975648,0
190,158.42222222222222,0.8333333333333144,0.875,0.8333333333332575,1.0000000000000682,80.55555555555556,0.3401531996509381,0.9991449918213446,0
191,159.29722222222222,0.875,0.88055555555556,0.8333333333332575,1.0500000000000955,77.77777777777777,0.2894956894738197,0.991974103670179,0
192,160.17777777777778,0.88055555555556,0.5583333333333371,0.8333333333332575,1.0566666666667681,66.66666666666667,0.2852472455181669,0.816050327524174,0
193,160.73611111111111,0.5583333333333371,0.8499999999999943,0.8333333333332575,0.6700000000000654,105.55555555555556,0.6725392881535821,0.9154015203534283,1
194,161.5861111111111,0.8499999999999943,0.75555555555556,0.8333333333332575,1.020000000000086,83.33333333333333,0.354936561636513,0.8237714727612854,0
195,162.34166666666667,0.75555555555556,0.8055555555555429,0.8333333333332575,0.9066666666667544,50.0,0.3865022052605079,0.875165218256812,0
196,163.1472222222222,0.8055555555555429,0.8500000000000227,0.8333333333332575,0.9666666666667394,80.55555555555556,0.3735842688098246,0.9875584643429653,0
197,163.99722222222223,0.8500000000000227,0.8944444444444457,0.8333333333332575,1.0200000000001201,77.77777777777777,0.31547402330104335,0.9954486423606708,0
198,164.89166666666668,0.8944444444444457,0.8833333333333258,0.8333333333332575,1.0733333333334325,75.0,0.26322012567461395,0.9940837171124937,0
199,165.775,0.8833333333333258,0.8361111111111086,0.8333333333332575,1.0600000000000873,80.55555555555556,0.28666845441148503,0.9996475652604317,0
200,166.61111111111111,0.8361111111111086,0.8277777777777828,0.8333333333332575,1.0033333333334216,55.55555555555556,0.2845138905240701,0.998173339519137,0
201,167.4388888888889,0.8277777777777828,0.794444444444423,0.8333333333332575,0.9933333333334298,55.55555555555556,0.2938503961073482,0.9984363671005216,0
202,168.23333333333332,0.794444444444423,0.8083333333333371,0.8333333333332575,0.9533333333333943,55.55555555555556,0.33223686875673963,0.9977090613475939,0
203,169.04166666666666,0.8083333333333371,0.8583333333333485,0.8333333333332575,0.9700000000000928,52.77777777777778,0.3114785478185512,0.998772995441653,0
204,169.9,0.8583333333333485,0.8583333333333201,0.8333333333332575,1.030000000000112,77.77777777777777,0.30590238705835815,0.9991939358622259,0
205,170.75833333333333,0.8583333333333201,0.8499999999999943,0.8333333333332575,1.0300000000000777,80.55555555555556,0.312741105340747,0.998753495709889,0
206,171.60833333333332,0.8499999999999943,0.8611111111111143,0.8333333333332575,1.020000000000086,77.77777777777777,0.3149210795949401,0.9991349337348991,0
207,172.46944444444443,0.8611111111111143,0.8444444444444628,0.8333333333332575,1.0333333333334311,77.77777777777777,0.30334665389971294,0.99645841441203,0
208,173.3138888888889,0.8444444444444628,0.799999999999983,0.8333333333332575,1.0133333333334476,83.33333333333333,0.33489815695963315,0.9979807196814248,0
209,174.11388888888888,0.799999999999983,0.8027777777777771,0.8333333333332575,0.9600000000000668,80.55555555555556,0.37828543644032253,0.9990066728419519,0
210,174.91666666666666,0.8027777777777771,0.8166666666666629,0.8333333333332575,0.9633333333334202,80.55555555555556,0.37497780527770697,0.9996511866426128,0
211,175.73333333333332,0.8166666666666629,0.8527777777777885,0.8333333333332575,0.9800000000000846,80.55555555555556,0.3599534698351108,0.9932480518258644,0
212,176.5861111111111,0.8527777777777885,0.9000000000000057,0.8333333333332575,1.0233333333334393,77.77777777777777,0.3121221911589332,0.9976525839082628,0
213,177.48611111111111,0.9000000000000057,0.8583333333333201,0.8333333333332575,1.080000000000105,77.77777777777777,0.2638326313566445,0.9984644515908313,0
214,178.34444444444443,0.8583333333333201,0.830555555555577,0.8333333333332575,1.0300000000000777,52.77777777777778,0.25690279438176444,0.9895390625933564,0
215,179.175,0.830555555555577,0.8083333333333087,0.8333333333332575,0.996666666666783,80.55555555555556,0.3432548768942802,0.9993043487943887,0
216,179.98333333333332,0.8083333333333087,0.7805555555555657,0.8333333333332575,0.9700000000000587,83.33333333333333,0.40247190066660105,0.8198758868714422,0
217,180.76388888888889,0.7805555555555657,0.7972222222222172,0.8333333333332575,0.936666666666764,86.11111111111111,0.4442022866034602,0.8029987639497228,0
218,181.5611111111111,0.7972222222222172,0.5500000000000114,0.8333333333332575,0.9566666666667476,55.55555555555556,0.35018346681453744,0.8566294216662884,0
219,182.11111111111111,0.5500000000000114,0.9277777777777771,0.8333333333332575,0.6600000000000736,100.0,0.6615618717829662,0.9200002986800415,1
220,183.0388888888889,0.9277777777777771,0.8499999999999943,0.8333333333332575,1.1133333333334339,80.55555555555556,0.2459600386766428,0.9964853361538505,0
221,183.88888888888889,0.8499999999999943,0.8583333333333485,0.8333333333332575,1.020000000000086,80.55555555555556,0.3218821351766352,0.9978789115869836,0
222,184.74722222222223,0.8583333333333485,0.8083333333333087,0.8333333333332575,1.030000000000112,77.77777777777777,0.30597558216980886,0.9987059684525544,0
223,185.55555555555554,0.8083333333333087,0.8166666666666913,0.8333333333332575,0.9700000000000587,80.55555555555556,0.3688159418686644,0.9979935412841999,0
224,186.37222222222223,0.8166666666666913,0.7333333333333201,0.8333333333332575,0.9800000000001187,55.55555555555556,0.31329097659751476,0.9531836953136421,0
225,187.10555555555555,0.7333333333333201,0.7111111111111086,0.8333333333332575,0.8800000000000641,50.0,0.4132683544112718,0.8615510637329056,0
226,187.81666666666666,0.7111111111111086,0.5277777777777715,0.8333333333332575,0.8533333333334079,47.22222222222222,0.4370772697162873,0.8336617200227143,0
227,188.34444444444443,0.5277777777777715,0.88055555555556,0.8333333333332575,0.6333333333333834,100.0,0.672204599928969,0.9142981324355259,1
228,189.225,0.88055555555556,0.86944444444444,0.8333333333332575,1.0566666666667681,80.55555555555556,0.2899883817904768,0.9961345986230807,0
229,190.09444444444443,0.86944444444444,0.8444444444444628,0.8333333333332575,1.043333333333423,80.55555555555556,0.30165640867472465,0.9943589244158053,0
230,190.9388888888889,0.8444444444444628,0.8194444444444287,0.8333333333332575,1.0133333333334476,77.77777777777777,0.32142370975381407,0.9964039484166801,0
231,191.75833333333333,0.8194444444444287,0.7805555555555657,0.8333333333332575,0.9833333333334038,86.11111111111111,0.37094375532252755,0.9922289771454188,0
232,192.5388888888889,0.7805555555555657,0.8083333333333371,0.8333333333332575,0.936666666666764,83.33333333333333,0.4083330928665657,0.9949529271663695,0
233,193.34722222222223,0.8083333333333371,0.8222222222222229,0.8333333333332575,0.9700000000000928,77.77777777777777,0.36194033448012947,0.9986799088108292,0
234,194.16944444444445,0.8222222222222229,0.8666666666666458,0.8333333333332575,0.9866666666667572,77.77777777777777,0.3466992723062359,0.9941565469329656,0
235,195.0361111111111,0.8666666666666458,0.875,0.8333333333332575,1.0400000000000695,75.0,0.2914079735327144,0.993019797863741,0
236,195.9111111111111,0.875,0.8555555555555827,0.8333333333332575,1.0500000000000955,77.77777777777777,0.2886663935398284,0.9975027432301209,0
237,196.76666666666668,0.8555555555555827,0.8027777777777771,0.8333333333332575,1.0266666666667927,83.33333333333333,0.3227806871613955,0.9979790281923813,0
238,197.56944444444446,0.8027777777777771,0.8055555555555429,0.8333333333332575,0.9633333333334202,86.11111111111111,0.38973860864277143,0.994675030144986,0
239,198.375,0.8055555555555429,0.8277777777777828,0.8333333333332575,0.9666666666667394,80.55555555555556,0.37181226210999835,0.9993718423418069,0
240,199.20277777777778,0.8277777777777828,0.8305555555555486,0.8333333333332575,0.9933333333334298,83.33333333333333,0.35368082700284703,0.996969876799995,0
241,200.03333333333333,0.8305555555555486,0.8555555555555543,0.8333333333332575,0.996666666666749,77.77777777777777,0.3366020449968156,0.9985055463809804,0
242,200.88888888888889,0.8555555555555543,0.8583333333333485,0.8333333333332575,1.0266666666667585,75.0,0.30334890811741155,0.9922382144126496,0
243,201.74722222222223,0.8583333333333485,0.8361111111111086,0.8333333333332575,1.030000000000112,77.77777777777777,0.3060396872307293,0.9982786013797517,0
244,202.58333333333334,0.8361111111111086,0.8416666666666686,0.8333333333332575,1.0033333333334216,80.55555555555556,0.33703575562447396,0.999175216945757,0
245,203.425,0.8416666666666686,0.8166666666666629,0.8333333333332575,1.0100000000000942,50.0,0.27402459199039936,0.9680298817442237,0
246,204.24166666666667,0.8166666666666629,0.7861111111110972,0.8333333333332575,0.9800000000000846,83.33333333333333,0.3663313134336527,0.9969844987424048,0
247,205.02777777777777,0.7861111111110972,0.8138888888888971,0.8333333333332575,0.9433333333334024,94.44444444444444,0.46349550352284846,0.7764941998433771,0
248,205.84166666666667,0.8138888888888971,0.8083333333333371,0.8333333333332575,0.9766666666667654,50.0,0.30855199617002554,0.9471681427091585,0
249,206.65,0.8083333333333371,0.6055555555555543,0.8333333333332575,0.9700000000000928,52.77777777777778,0.33028905709921375,0.8733696002372362,0
250,207.25555555555556,0.6055555555555543,0.9277777777777771,0.8333333333332575,0.7266666666667312,105.55555555555556,0.644068701579887,0.923074170350977,1
251,208.18333333333334,0.9277777777777771,0.8166666666666629,0.8333333333332575,1.1133333333334339,80.55555555555556,0.26876546179359817,0.8444491820408144,0
252,209.0,0.8166666666666629,0.8055555555555429,0.8333333333332575,0.9800000000000846,88.88888888888889,0.4066839587934618,0.8230305397076382,0
253,209.80555555555554,0.8055555555555429,0.5305555555555657,0.8333333333332575,0.9666666666667394,88.88888888888889,0.4214301064745556,0.809905294182206,0
254,210.3361111111111,0.5305555555555657,0.8277777777777828,0.8333333333332575,0.6366666666667367,102.77777777777777,0.6775533615555371,0.9191187978886897,1
255,211.1638888888889,0.8277777777777828,0.8305555555555486,0.8333333333332575,0.9933333333334298,86.11111111111111,0.3610127366013966,0.9952642745056482,0
256,211.99444444444444,0.8305555555555486,0.9027777777777715,0.8333333333332575,0.996666666666749,83.33333333333333,0.35044814064742835,0.9976046613471006,0
257,212.8972222222222,0.9027777777777715,0.8611111111111143,0.8333333333332575,1.0833333333334243,75.0,0.255099443257289,0.9953599002592777,0
258,213.75833333333333,0.8611111111111143,0.8333333333333428,0.8333333333332575,1.0333333333334311,80.55555555555556,0.3097745191060669,0.9987569947663886,0
259,214.59166666666667,0.8333333333333428,0.8333333333333428,0.8333333333332575,1.0000000000001024,80.55555555555556,0.34009219890303455,0.9995516634738213,0
260,215.425,0.8333333333333428,0.8222222222222229,0.8333333333332575,1.0000000000001024,83.33333333333333,0.3471302126569557,0.998886976021167,0
261,216.24722222222223,0.8222222222222229,0.8055555555555429,0.8333333333332575,0.9866666666667572,83.33333333333333,0.36029814358983386,0.9949038243458508,0
262,217.05277777777778,0.8055555555555429,0.8194444444444571,0.8333333333332575,0.9666666666667394,52.77777777777778,0.31953503189133714,0.9664168709564652,0
263,217.87222222222223,0.8194444444444571,0.8472222222222001,0.8333333333332575,0.983333333333438,83.33333333333333,0.36291323286525445,0.9985919984977055,0
264,218.71944444444443,0.8472222222222001,0.8694444444444684,0.8333333333332575,1.0166666666667326,77.77777777777777,0.3184530507261059,0.9958438293385918,0
265,219.5888888888889,0.8694444444444684,0.8611111111110858,0.8333333333332575,1.0433333333334571,80.55555555555556,0.30089362976154804,0.9994441171701178,0
266,220.45,0.8611111111110858,0.8388888888889028,0.8333333333332575,1.033333333333397,77.77777777777777,0.30319069779959484,0.9974981217463526,0
267,221.2888888888889,0.8388888888889028,0.8000000000000114,0.8333333333332575,1.006666666666775,80.55555555555556,0.3339604714229475,0.999013976197078,0
268,222.0888888888889,0.8000000000000114,0.8111111111111029,0.8333333333332575,0.960000000000101,83.33333333333333,0.38539568324158857,0.9978604317401124,0
269,222.9,0.8111111111111029,0.8055555555555429,0.8333333333332575,0.973333333333412,83.33333333333333,0.37328327595341754,0.9931479141550105,0
270,223.70555555555555,0.8055555555555429,0.88055555555556,0.8333333333332575,0.9666666666667394,77.77777777777777,0.3653638724590218,0.9972100916182651,0
271,224.5861111111111,0.88055555555556,0.8944444444444457,0.8333333333332575,1.0566666666667681,77.77777777777777,0.28445685807258214,0.9878604083456598,0
272,225.48055555555555,0.8944444444444457,0.8472222222222285,0.8333333333332575,1.0733333333334325,77.77777777777777,0.270067458895415,0.9923144170767777,0
273,226.32777777777778,0.8472222222222285,0.8305555555555486,0.8333333333332575,1.0166666666667667,83.33333333333333,0.33189037496716933,0.9976680870348327,0
274,227.15833333333333,0.8305555555555486,0.8194444444444571,0.8333333333332575,0.996666666666749,83.33333333333333,0.35042949789709676,0.9977289463493113,0
275,227.9777777777778,0.8194444444444571,0.794444444444423,0.8333333333332575,0.983333333333438,83.33333333333333,0.3629993559470122,0.9980178446193204,0
276,228.7722222222222,0.794444444444423,0.8361111111111086,0.8333333333332575,0.9533333333333943,75.0,0.3718960739785836,0.9954314014649365,0
277,229.60833333333332,0.8361111111111086,0.88055555555556,0.8333333333332575,1.0033333333334216,80.55555555555556,0.33719074800551124,0.9981419344055087,0
278,230.48888888888888,0.88055555555556,0.88611111111112,0.8333333333332575,1.0566666666667681,83.33333333333333,0.29658688936574185,0.9983999523614671,0
279,231.375,0.88611111111112,0.8388888888889028,0.8333333333332575,1.0633333333334407,80.55555555555556,0.28401337043821906,0.998887778428808,0
280,232.2138888888889,0.8388888888889028,0.8527777777777601,0.8333333333332575,1.006666666666775,80.55555555555556,0.33392681247921313,0.9992383691553068,0
281,233.06666666666666,0.8527777777777601,0.825000000000017,0.8333333333332575,1.0233333333334051,80.55555555555556,0.31897157362320117,0.9971410492100674,0
282,233.89166666666668,0.825000000000017,0.8222222222222229,0.8333333333332575,0.9900000000001105,83.33333333333333,0.3568700118882198,0.996699053682661,0
283,234.7138888888889,0.8222222222222229,0.8138888888888687,0.8333333333332575,0.9866666666667572,80.55555555555556,0.35268319256638714,0.9994147602620089,0
284,235.52777777777777,0.8138888888888687,0.8611111111111143,0.8333333333332575,0.9766666666667312,80.55555555555556,0.36271937444031443,0.9960404121991013,0
285,236.38888888888889,0.8611111111111143,0.5722222222222229,0.8333333333332575,1.0333333333334311,86.11111111111111,0.35682095684078896,0.778543275804378,0
286,236.9611111111111,0.5722222222222229,0.8972222222222115,0.8333333333332575,0.6866666666667299,102.77777777777777,0.6583739507938047,0.9140361813400211,1
287,237.85833333333332,0.8972222222222115,0.7222222222222285,0.8333333333332575,1.0766666666667517,52.77777777777778,0.21831594051278436,0.9832115472292202,0
288,238.58055555555555,0.7222222222222285,0.8555555555555543,0.8333333333332575,0.8666666666667531,105.55555555555556,0.542470597910838,0.9212498469310755,1
289,239.4361111111111,0.8555555555555543,0.8027777777777771,0.8333333333332575,1.0266666666667585,80.55555555555556,0.34287051774918254,0.8177914200338525,0
290,240.23888888888888,0.8027777777777771,0.8000000000000114,0.8333333333332575,0.9633333333334202,86.11111111111111,0.38969901703766063,0.994938974179058,0
291,241.0388888888889,0.8000000000000114,0.8583333333333201,0.8333333333332575,0.960000000000101,86.11111111111111,0.39281901117146373,0.9955453739035947,0
292,241.8972222222222,0.8583333333333201,0.9000000000000057,0.8333333333332575,1.0300000000000777,77.77777777777777,0.30666005259529877,0.9941428322828252,0
293,242.79722222222222,0.9000000000000057,0.86944444444444,0.8333333333332575,1.080000000000105,77.77777777777777,0.2646977589465728,0.9926969343246423,0
294,243.66666666666666,0.86944444444444,0.8472222222222285,0.8333333333332575,1.043333333333423,83.33333333333333,0.308107433964276,0.9976074933922827,0
295,244.51388888888889,0.8472222222222285,0.8361111111111086,0.8333333333332575,1.0166666666667667,77.77777777777777,0.31800362818007366,0.998839979645265,0
296,245.35,0.8361111111111086,0.8027777777777771,0.8333333333332575,1.0033333333334216,83.33333333333333,0.3441579972113569,0.9979490106066908,0
297,246.15277777777777,0.8027777777777771,0.8194444444444571,0.8333333333332575,0.9633333333334202,83.33333333333333,0.38198671888988145,0.9991805001349361,0
298,246.97222222222223,0.8194444444444571,0.8249999999999886,0.8333333333332575,0.983333333333438,86.11111111111111,0.3702941499822175,0.9965596794139356,0
299,247.79722222222222,0.8249999999999886,0.8611111111111143,0.8333333333332575,0.9900000000000764,86.11111111111111,0.36398744153660106,0.996423317722984,0
300,248.65833333333333,0.8611111111111143,0.8666666666666742,0.8333333333332575,1.0333333333334311,83.33333333333333,0.3170576754693857,0.9964580232510832,0
301,249.525,0.8666666666666742,0.86944444444444,0.8333333333332575,1.0400000000001037,80.55555555555556,0.3040180025835725,0.997983540690831,0
302,250.39444444444445,0.86944444444444,0.8361111111111086,0.8333333333332575,1.043333333333423,80.55555555555556,0.30116584064490154,0.9976293779479593,0
303,251.23055555555555,0.8361111111111086,0.8111111111111029,0.8333333333332575,1.0033333333334216,80.55555555555556,0.3370328148921919,0.9991948218276374,0
304,252.04166666666666,0.8111111111111029,0.7916666666666856,0.8333333333332575,0.973333333333412,50.0,0.3044814480669429,0.9955832378663709,0
305,252.83333333333334,0.7916666666666856,0.8388888888888744,0.8333333333332575,0.9500000000001091,50.0,0.32665007411487407,0.9975553965410688,0
306,253.67222222222222,0.8388888888888744,0.8555555555555543,0.8333333333332575,1.0066666666667408,55.55555555555556,0.2815365931360888,0.9973588533470349,0
307,254.52777777777777,0.8555555555555543,0.8972222222222399,0.8333333333332575,1.0266666666667585,61.111111111111114,0.2748710822104938,0.9860893092117339,0
308,255.425,0.8972222222222399,0.8583333333333485,0.8333333333332575,1.076666666666786,58.333333333333336,0.2262053759733312,0.9930825640052643,0
309,256.28333333333336,0.8583333333333485,0.8388888888888459,0.8333333333332575,1.030000000000112,52.77777777777778,0.2556283914213057,0.9980350823295441,0
310,257.1222222222222,0.8388888888888459,0.7916666666666856,0.8333333333332575,1.0066666666667068,52.77777777777778,0.277211808696707,0.9958685548626864,0
311,257.9138888888889,0.7916666666666856,0.8111111111111313,0.8333333333332575,0.9500000000001091,52.77777777777778,0.3473029211289694,0.8883880348956678,0
312,258.725,0.8111111111111313,0.5361111111110972,0.8333333333332575,0.9733333333334461,91.66666666666667,0.42414972889754626,0.7974925156446622,0
313,259.2611111111111,0.5361111111110972,0.8666666666666742,0.8333333333332575,0.6433333333333752,102.77777777777777,0.6768078287641347,0.9083790150784345,1
314,260.1277777777778,0.8666666666666742,0.6805555555555429,0.8333333333332575,1.0400000000001037,50.0,0.24259699556744796,0.9974687961733437,0
315,260.80833333333334,0.6805555555555429,0.8999999999999773,0.8333333333332575,0.8166666666667258,102.77777777777777,0.577690371950638,0.9178330344288278,1
316,261.7083333333333,0.8999999999999773,0.7972222222222172,0.8333333333332575,1.080000000000071,91.66666666666667,0.3290603431996184,0.7984737463921178,0
317,262.50555555555553,0.7972222222222172,0.7916666666666856,0.8333333333332575,0.9566666666667476,47.22222222222222,0.3362044111594035,0.8642354168817472,0
318,263.2972222222222,0.7916666666666856,0.7861111111110972,0.8333333333332575,0.9500000000001091,47.22222222222222,0.3433091433507346,0.8597477056789034,0
319,264.0833333333333,0.7861111111110972,0.8111111111111313,0.8333333333332575,0.9433333333334024,50.0,0.352403859437883,0.8687406644608109,0
320,264.89444444444445,0.8111111111111313,0.73888888888888,0.8333333333332575,0.9733333333334461,88.88888888888889,0.414846242939008,0.8111251442814831,0
321,265.6333333333333,0.73888888888888,0.5055555555555884,0.8333333333332575,0.8866666666667367,44.44444444444444,0.3998100776610282,0.8588849678222187,0
322,266.1388888888889,0.5055555555555884,0.908333333333303,0.8333333333332575,0.6066666666667613,63.888888888888886,0.5913135323764682,0.9248433370078339,1
323,267.0472222222222,0.908333333333303,0.8805555555555884,0.8333333333332575,1.0900000000000627,58.333333333333336,0.21649199384673037,0.9884120500792064,0
324,267.9277777777778,0.8805555555555884,0.8583333333332916,0.8333333333332575,1.056666666666802,58.333333333333336,0.24226213247718104,0.9953070077149835,0
325,268.7861111111111,0.8583333333332916,0.8055555555555429,0.8333333333332575,1.0300000000000435,55.55555555555556,0.2603901819520132,0.9966120068723385,0
326,269.59166666666664,0.8055555555555429,0.7861111111111541,0.8333333333332575,0.9666666666667394,52.77777777777778,0.3150948102070546,0.9960183488516823,0
327,270.3777777777778,0.7861111111111541,0.8055555555555429,0.8333333333332575,0.9433333333334707,52.77777777777778,0.3374020749216925,0.9972708463502091,0
328,271.18333333333334,0.8055555555555429,0.8472222222222285,0.8333333333332575,0.9666666666667394,52.77777777777778,0.3149031855186598,0.997295846774314,0
329,272.03055555555557,0.8472222222222285,0.9166666666666288,0.8333333333332575,1.0166666666667667,55.55555555555556,0.27258113311206117,0.9956599837327544,0
330,272.9472222222222,0.9166666666666288,0.8722222222222626,0.8333333333332575,1.1000000000000545,52.77777777777778,0.19843779796280137,0.9961291702620091,0
331,273.81944444444446,0.8722222222222626,0.8277777777777828,0.8333333333332575,1.0466666666668103,55.55555555555556,0.24608229821442076,0.9944795256257488,0
332,274.64722222222224,0.8277777777777828,0.8361111111111086,0.8333333333332575,0.9933333333334298,55.55555555555556,0.29468026463226055,0.9929039102677726,0
333,275.48333333333335,0.8361111111111086,0.8222222222221944,0.8333333333332575,1.0033333333334216,55.55555555555556,0.28487237552333355,0.9957834395240476,0
334,276.30555555555554,0.8222222222221944,0.8194444444444571,0.8333333333332575,0.9866666666667231,50.0,0.2921871634479106,0.9927334964270839,0
335,277.125,0.8194444444444571,0.8194444444444571,0.8333333333332575,0.983333333333438,55.55555555555556,0.3037334317397857,0.9957209569980316,0
336,277.94444444444446,0.8194444444444571,0.8722222222222058,0.8333333333332575,0.983333333333438,55.55555555555556,0.3044171471522681,0.991162854248149,0
337,278.81666666666666,0.8722222222222058,0.8666666666666742,0.8333333333332575,1.0466666666667421,55.55555555555556,0.24636910680999746,0.992567468322296,0
338,279.68333333333334,0.8666666666666742,0.875,0.8333333333332575,1.0400000000001037,55.55555555555556,0.2517909486772415,0.9950162553037247,0
339,280.55833333333334,0.875,0.8472222222222285,0.8333333333332575,1.0500000000000955,55.55555555555556,0.2427837257086164,0.9973905657389406,0
340,281.40555555555557,0.8472222222222285,0.8000000000000114,0.8333333333332575,1.0166666666667667,55.55555555555556,0.27269491373526505,0.9949014462447285,0
341,282.2055555555556,0.8000000000000114,0.7916666666666288,0.8333333333332575,0.960000000000101,52.77777777777778,0.32178595839082236,0.9942000203286507,0
342,282.9972222222222,0.7916666666666288,0.8277777777777828,0.8333333333332575,0.9500000000000409,50.0,0.32686884079273093,0.9960969520224606,0
343,283.825,0.8277777777777828,0.9083333333333599,0.8333333333332575,0.9933333333334298,55.55555555555556,0.2946837602562415,0.9928806061078999,0
344,284.73333333333335,0.9083333333333599,0.8972222222221831,0.8333333333332575,1.0900000000001309,58.333333333333336,0.21739519236432642,0.9823907266282181,0
345,285.63055555555553,0.8972222222221831,0.8361111111111086,0.8333333333332575,1.0766666666667175,55.55555555555556,0.22221547374998063,0.9875368537285307,0
346,286.46666666666664,0.8361111111111086,0.8222222222222513,0.8333333333332575,1.0033333333334216,52.77777777777778,0.28046256579100537,0.9948599763257979,0
347,287.2888888888889,0.8222222222222513,0.8083333333333371,0.8333333333332575,0.9866666666667913,52.77777777777778,0.29607097761587736,0.9953596870887758,0
348,288.09722222222223,0.8083333333333371,0.8055555555555429,0.8333333333332575,0.9700000000000928,47.22222222222222,0.30412367873437524,0.9925399415978299,0
349,288.90277777777777,0.8055555555555429,0.8444444444444343,0.8333333333332575,0.9666666666667394,50.0,0.3112996363037038,0.9928012230921202,0
350,289.7472222222222,0.8444444444444343,0.8805555555555884,0.8333333333332575,1.0133333333334134,58.333333333333336,0.2820818670481911,0.9848313285212164,0
351,290.6277777777778,0.8805555555555884,0.8722222222222058,0.8333333333332575,1.056666666666802,55.55555555555556,0.2386933451707361,0.9869538646585154,0
352,291.5,0.8722222222222058,0.8500000000000227,0.8333333333332575,1.0466666666667421,52.77777777777778,0.24199380700764545,0.9914139389242056,0
353,292.35,0.8500000000000227,0.8555555555555543,0.8333333333332575,1.0200000000001201,52.77777777777778,0.2653768094663299,0.9931112434790625,0
354,293.2055555555556,0.8555555555555543,0.5972222222222285,0.8333333333332575,1.0266666666667585,55.55555555555556,0.2824760474751894,0.8692735770978276,0
355,293.8027777777778,0.5972222222222285,0.8166666666666629,0.8333333333332575,0.7166666666667394,91.66666666666667,0.615462812184535,0.9081781671227183,1
356,294.61944444444447,0.8166666666666629,0.6833333333333371,0.8333333333332575,0.9800000000000846,52.77777777777778,0.3023620314627155,0.9957211347987498,0
357,295.3027777777778,0.6833333333333371,0.86388888888888,0.8333333333332575,0.8200000000000791,97.22222222222223,0.560213560868532,0.920253881633986,1
358,296.1666666666667,0.86388888888888,0.6722222222222172,0.8333333333332575,1.0366666666667503,55.55555555555556,0.2546459717928063,0.9954903340880108,0
359,296.8388888888889,0.6722222222222172,0.9138888888888914,0.8333333333332575,0.8066666666667339,100.0,0.5776069480836461,0.9215402820850673,1
360,297.7527777777778,0.9138888888888914,0.8583333333332916,0.8333333333332575,1.0966666666667695,80.55555555555556,0.2849318786148121,0.8175137235128844,0
361,298.6111111111111,0.8583333333332916,0.591666666666697,0.8333333333332575,1.0300000000000435,86.11111111111111,0.35500924919577187,0.8103950692793965,0
362,299.2027777777778,0.591666666666697,0.8583333333333485,0.8333333333332575,0.710000000000101,94.44444444444444,0.626240690007104,0.9080071082354635,1
363,300.06111111111113,0.8583333333333485,0.7805555555555088,0.8333333333332575,1.030000000000112,86.11111111111111,0.3274136769927043,0.9943655506327733,0
364,300.84166666666664,0.7805555555555088,0.8444444444444912,0.8333333333332575,0.9366666666666957,80.55555555555556,0.40077676520256844,0.9990730406866366,0
365,301.68611111111113,0.8444444444444912,0.8805555555555316,0.8333333333332575,1.0133333333334815,72.22222222222223,0.3088601218520383,0.9938195370800184,0
366,302.56666666666666,0.8805555555555316,0.8722222222222058,0.8333333333332575,1.056666666666734,77.77777777777777,0.28363529496862455,0.9933374957055687,0
367,303.43888888888887,0.8722222222222058,0.8222222222222513,0.8333333333332575,1.0466666666667421,80.55555555555556,0.2979463753667087,0.9998666560402003,0
368,304.2611111111111,0.8222222222222513,0.8388888888889028,0.8333333333332575,0.9866666666667913,77.77777777777777,0.34617279891541985,0.9976663695381903,0
369,305.1,0.8388888888889028,0.7999999999999545,0.8333333333332575,1.006666666666775,80.55555555555556,0.33403692636990856,0.9985042765506708,0
370,305.9,0.7999999999999545,0.8000000000000114,0.8333333333332575,0.9600000000000327,80.55555555555556,0.3782306439573331,0.9993719560621008,0
371,306.7,0.8000000000000114,0.8138888888889255,0.8333333333332575,0.960000000000101,80.55555555555556,0.37829206502057444,0.99896248230672,0
372,307.5138888888889,0.8138888888889255,0.8333333333333144,0.8333333333332575,0.9766666666667995,83.33333333333333,0.3695400816774932,0.9968244348576273,0
373,308.34722222222223,0.8333333333333144,0.8472222222222285,0.8333333333332575,1.0000000000000682,80.55555555555556,0.3401982753975919,0.9988444868436526,0
374,309.19444444444446,0.8472222222222285,0.8722222222222058,0.8333333333332575,1.0166666666667667,77.77777777777777,0.31811725202435603,0.9980824873500492,0
375,310.06666666666666,0.8722222222222058,0.8388888888889028,0.8333333333332575,1.0466666666667421,77.77777777777777,0.29149447790361394,0.9977282907307802,0
376,310.90555555555557,0.8388888888889028,0.8416666666666401,0.8333333333332575,1.006666666666775,83.33333333333333,0.3414605806384977,0.9952686523335628,0
377,311.7472222222222,0.8416666666666401,0.7805555555555657,0.8333333333332575,1.01000000000006,66.66666666666667,0.32462374634438423,0.8289984644285462,0
378,312.52777777777777,0.7805555555555657,0.48888888888888005,0.8333333333332575,0.936666666666764,75.0,0.4144011901252674,0.8192129380351953,0
379,313.01666666666665,0.48888888888888005,0.8555555555555543,0.8333333333332575,0.5866666666667094,97.22222222222223,0.6797823967594877,0.9081148211685581,1
380,313.8722222222222,0.8555555555555543,0.7305555555555543,0.8333333333332575,1.0266666666667585,52.77777777777778,0.2586134348113231,0.9980354667764992,0
381,314.60277777777776,0.7305555555555543,0.9305555555555998,0.8333333333332575,0.8766666666667449,105.55555555555556,0.5337311388667201,0.9198151560008063,1
382,315.53333333333336,0.9305555555555998,0.8138888888888687,0.8333333333332575,1.1166666666668212,77.77777777777777,0.25804555637283316,0.8551622375010691,0
383,316.34722222222223,0.8138888888888687,0.830555555555577,0.8333333333332575,0.9766666666667312,55.55555555555556,0.32038329139407806,0.9271333210780315,0
384,317.1777777777778,0.830555555555577,0.7916666666666288,0.8333333333332575,0.996666666666783,77.77777777777777,0.3644443245885851,0.8128903491023038,0
385,317.96944444444443,0.7916666666666288,0.8166666666666629,0.8333333333332575,0.9500000000000409,86.11111111111111,0.4285631696947467,0.8215520832368095,0
386,318.7861111111111,0.8166666666666629,0.8333333333333712,0.8333333333332575,0.9800000000000846,77.77777777777777,0.3529331002762186,0.9948995004884271,0
387,319.61944444444447,0.8333333333333712,0.8555555555555543,0.8333333333332575,1.0000000000001363,80.55555555555556,0.34007809359812385,0.9996456988396805,0
388,320.475,0.8555555555555543,0.8722222222222058,0.8333333333332575,1.0266666666667585,83.33333333333333,0.3225724382131038,0.9993673545145308,0
389,321.34722222222223,0.8722222222222058,0.8555555555555543,0.8333333333332575,1.0466666666667421,80.55555555555556,0.29815507924076473,0.9984752968798265,0
390,322.2027777777778,0.8555555555555543,0.8222222222221944,0.8333333333332575,1.0266666666667585,77.77777777777777,0.3090758208046094,0.9979383846009551,0
391,323.025,0.8222222222221944,0.8250000000000455,0.8333333333332575,0.9866666666667231,77.77777777777777,0.3461582235711282,0.9977635385005654,0
392,323.85,0.8250000000000455,0.8055555555555429,0.8333333333332575,0.9900000000001447,80.55555555555556,0.34952430194052225,0.9994150490936092,0
393,324.65555555555557,0.8055555555555429,0.8249999999999886,0.8333333333332575,0.9666666666667394,83.33333333333333,0.3790599664008256,0.9973092179764453,0
394,325.48055555555555,0.8249999999999886,0.8333333333333144,0.8333333333332575,0.9900000000000764,80.55555555555556,0.34951564624782805,0.9994727537120013,0
395,326.31388888888887,0.8333333333333144,0.8805555555555884,0.8333333333332575,1.0000000000000682,77.77777777777777,0.3340199498754016,0.994882308594869,0
396,327.19444444444446,0.8805555555555884,0.8722222222222058,0.8333333333332575,1.056666666666802,75.0,0.2767993317295319,0.9950309958628463,0
397,328.06666666666666,0.8722222222222058,0.8527777777777601,0.8333333333332575,1.0466666666667421,77.77777777777777,0.29135433428711544,0.9986625815074366,0
398,328.9194444444444,0.8527777777777601,0.7944444444444798,0.8333333333332575,1.0233333333334051,83.33333333333333,0.3259336232006925,0.9969827896002781,0
399,329.7138888888889,0.7944444444444798,0.7888888888888914,0.8333333333332575,0.9533333333334625,83.33333333333333,0.3920021083011145,0.9966771800541223,0
400,330.5027777777778,0.7888888888888914,0.8111111111110745,0.8333333333332575,0.9466666666667558,83.33333333333333,0.3982515577992244,0.997897218287684,0
401,331.31388888888887,0.8111111111110745,0.8500000000000227,0.8333333333332575,0.9733333333333779,80.55555555555556,0.36543658533489626,0.9992037807052165,0
402,332.1638888888889,0.8500000000000227,0.9166666666666856,0.8333333333332575,1.0200000000001201,80.55555555555556,0.32193969966259084,0.9974951483470726,0
403,333.0805555555556,0.9166666666666856,0.8666666666666174,0.8333333333332575,1.1000000000001229,77.77777777777777,0.2500645988906173,0.98826932185593,0
404,333.9472222222222,0.8666666666666174,0.8333333333333712,0.8333333333332575,1.0400000000000356,77.77777777777777,0.2974812290183978,0.9964110160623414,0
405,334.78055555555557,0.8333333333333712,0.8194444444444571,0.8333333333332575,1.0000000000001363,83.33333333333333,0.3474374860286734,0.99683848687617,0
406,335.6,0.8194444444444571,0.8249999999999886,0.8333333333332575,0.983333333333438,80.55555555555556,0.35622323122092586,0.9969366052197433,0
407,336.425,0.8249999999999886,0.8138888888888687,0.8333333333332575,0.9900000000000764,83.33333333333333,0.35740647301057016,0.9931226462005407,0
408,337.2388888888889,0.8138888888888687,0.841666666666697,0.8333333333332575,0.9766666666667312,80.55555555555556,0.36288078048490086,0.9949643719018586,0
409,338.0805555555556,0.841666666666697,0.8694444444444116,0.8333333333332575,1.0100000000001281,77.77777777777777,0.3245046694124503,0.9963331418252737,0
410,338.95,0.8694444444444116,0.86388888888888,0.8333333333332575,1.0433333333333887,83.33333333333333,0.3081635968348192,0.9972330742555262,0
411,339.81388888888887,0.86388888888888,0.8500000000000227,0.8333333333332575,1.0366666666667503,80.55555555555556,0.3069166692536577,0.9981666624449808,0
412,340.6638888888889,0.8500000000000227,0.8333333333333144,0.8333333333332575,1.0200000000001201,77.77777777777777,0.3154008007806787,0.9959367924964349,0
413,341.4972222222222,0.8333333333333144,0.7944444444444798,0.8333333333332575,1.0000000000000682,83.33333333333333,0.34745835204762515,0.9966993800835844,0
414,342.2916666666667,0.7944444444444798,0.8138888888888687,0.8333333333332575,0.9533333333334625,83.33333333333333,0.39204837251884955,0.9963687519358888,0
415,343.10555555555555,0.8138888888888687,0.8222222222222513,0.8333333333332575,0.9766666666667312,83.33333333333333,0.3696562479503061,0.9960499930393101,0
416,343.9277777777778,0.8222222222222513,0.9027777777777715,0.8333333333332575,0.9866666666667913,80.55555555555556,0.3530760914765638,0.9967954341939491,0
417,344.8305555555556,0.9027777777777715,0.9111111111110972,0.8333333333332575,1.0833333333334243,75.0,0.2564054142844943,0.9866534267445757,0
418,345.7416666666667,0.9111111111110972,0.8499999999999659,0.8333333333332575,1.093333333333416,80.55555555555556,0.2608077479054944,0.9950674246675169,0
419,346.59166666666664,0.8499999999999659,0.8138888888889255,0.8333333333332575,1.0200000000000518,80.55555555555556,0.3219015413682645,0.9977495369763294,0
420,347.40555555555557,0.8138888888889255,0.8083333333333371,0.8333333333332575,0.9766666666667995,83.33333333333333,0.3697785947348696,0.9952343478084513,0
421,348.2138888888889,0.8083333333333371,0.7861111111110972,0.8333333333332575,0.9700000000000928,86.11111111111111,0.38319922974791415,0.9955341546917865,0
422,349.0,0.7861111111110972,0.5916666666666401,0.8333333333332575,0.9433333333334024,58.333333333333336,0.3773175247151677,0.7936351009073517,0
423,349.59166666666664,0.5916666666666401,0.9388888888889255,0.8333333333332575,0.7100000000000327,100.0,0.6391656848058143,0.9190817544027241,1
424,350.53055555555557,0.9388888888889255,0.8416666666666401,0.8333333333332575,1.126666666666813,52.77777777777778,0.18045545551623687,0.9904523913495267,0
425,351.3722222222222,0.8416666666666401,0.8583333333333485,0.8333333333332575,1.01000000000006,105.55555555555556,0.4067983580242388,0.9240791574232453,0
426,352.23055555555555,0.8583333333333485,0.8472222222222285,0.8333333333332575,1.030000000000112,80.55555555555556,0.31300855822846085,0.9969704764582596,0
427,353.0777777777778,0.8472222222222285,0.8222222222221944,0.8333333333332575,1.0166666666667667,80.55555555555556,0.32486624408427617,0.998240222013967,0
428,353.9,0.8222222222221944,0.7944444444444798,0.8333333333332575,0.9866666666667231,83.33333333333333,0.3602819562612779,0.9950117398697729,0
429,354.69444444444446,0.7944444444444798,0.8249999999999886,0.8333333333332575,0.9533333333334625,75.0,0.3721171590092493,0.9939575012600604,0
430,355.51944444444445,0.8249999999999886,0.8416666666666401,0.8333333333332575,0.9900000000000764,55.55555555555556,0.2970552030046095,0.9980613972374788,0
431,356.3611111111111,0.8416666666666401,0.8888888888889142,0.8333333333332575,1.01000000000006,52.77777777777778,0.2748977198290043,0.9907273146023025,0
432,357.25,0.8888888888889142,0.8666666666666742,0.8333333333332575,1.066666666666794,52.77777777777778,0.2240907520912164,0.9986041938209019,0
433,358.1166666666667,0.8666666666666742,0.8499999999999659,0.8333333333332575,1.0400000000001037,52.77777777777778,0.24728949147437226,0.9947037752424158,0
434,358.96666666666664,0.8499999999999659,0.8055555555555998,0.8333333333332575,1.0200000000000518,58.333333333333336,0.274852280303238,0.9924086910799612,0
435,359.77222222222224,0.8055555555555998,0.7888888888888914,0.8333333333332575,0.9666666666668077,50.0,0.310935722444626,0.9952273154855342,0
436,360.56111111111113,0.7888888888888914,0.8027777777777487,0.8333333333332575,0.9466666666667558,50.0,0.3304220901069434,0.9938501407044196,0
437,361.3638888888889,0.8027777777777487,0.8888888888889142,0.8333333333332575,0.9633333333333861,55.55555555555556,0.32303000515691416,0.9948222093521382,0
438,362.2527777777778,0.8888888888889142,0.9138888888888914,0.8333333333332575,1.066666666666794,61.111111111111114,0.2405083782053205,0.9855915114899141,0
439,363.1666666666667,0.9138888888888914,0.8611111111110858,0.8333333333332575,1.0966666666667695,58.333333333333336,0.21196335375311715,0.9849679695943057,0
440,364.02777777777777,0.8611111111110858,0.8444444444444343,0.8333333333332575,1.033333333333397,50.0,0.2483973101647027,0.9979502630840347,0
441,364.8722222222222,0.8444444444444343,0.8194444444444571,0.8333333333332575,1.0133333333334134,52.77777777777778,0.27081249902735344,0.997493195480263,0
442,365.69166666666666,0.8194444444444571,0.7916666666666856,0.8333333333332575,0.983333333333438,50.0,0.2952279188704134,0.9935838962648424,0
443,366.48333333333335,0.7916666666666856,0.8361111111111086,0.8333333333332575,0.9500000000001091,80.55555555555556,0.3878726380617197,0.9993930948537486,0
444,367.31944444444446,0.8361111111111086,0.8666666666666742,0.8333333333332575,1.0033333333334216,58.333333333333336,0.29020181140602574,0.9923989254055335,0
445,368.18611111111113,0.8666666666666742,0.8833333333333258,0.8333333333332575,1.0400000000001037,58.333333333333336,0.25686299482479136,0.9933476727528264,0
446,369.06944444444446,0.8833333333333258,0.8555555555555543,0.8333333333332575,1.0600000000000873,61.111111111111114,0.245011807604111,0.992326862896215,0
447,369.925,0.8555555555555543,0.8722222222222058,0.8333333333332575,1.0266666666667585,55.55555555555556,0.2637653792115884,0.9940113655218343,0
448,370.7972222222222,0.8722222222222058,0.8166666666666629,0.8333333333332575,1.0466666666667421,77.77777777777777,0.29140626100011746,0.9983164034207566,0
449,371.6138888888889,0.8166666666666629,0.8027777777778056,0.8333333333332575,0.9800000000000846,52.77777777777778,0.3022775422251199,0.9962843963827208,0
450,372.4166666666667,0.8027777777778056,0.7972222222222172,0.8333333333332575,0.9633333333334543,47.22222222222222,0.3108829197780525,0.9902150693920113,0
451,373.2138888888889,0.7972222222222172,0.8444444444444343,0.8333333333332575,0.9566666666667476,50.0,0.32093826365161915,0.9927569628900716,0
452,374.05833333333334,0.8444444444444343,0.7472222222222058,0.8333333333332575,1.0133333333334134,55.55555555555556,0.2756460704633252,0.9955915806542217,0
453,374.80555555555554,0.7472222222222058,0.9111111111110972,0.8333333333332575,0.8966666666667286,105.55555555555556,0.5155649035617973,0.9184613436227546,1
454,375.71666666666664,0.9111111111110972,0.7444444444444684,0.8333333333332575,1.093333333333416,80.55555555555556,0.26020320935685953,0.9990976816584156,0
455,376.4611111111111,0.7444444444444684,0.466666666666697,0.8333333333332575,0.8933333333334433,102.77777777777777,0.5115111258598649,0.9186643478242325,1
456,376.9277777777778,0.466666666666697,0.827777777777726,0.8333333333332575,0.5600000000000873,61.111111111111114,0.6136136212926628,0.8196965867892885,1
457,377.75555555555553,0.827777777777726,0.7916666666666856,0.8333333333332575,0.9933333333333615,47.22222222222222,0.28158551664043713,0.9946145210615915,0
458,378.5472222222222,0.7916666666666856,0.8555555555555543,0.8333333333332575,0.9500000000001091,50.0,0.32687357987358856,0.9960653581496386,0
459,379.40277777777777,0.8555555555555543,0.8666666666666742,0.8333333333332575,1.0266666666667585,80.55555555555556,0.3158532378082924,0.997906619639787,0
460,380.26944444444445,0.8666666666666742,0.9083333333333599,0.8333333333332575,1.0400000000001037,58.333333333333336,0.257722543773346,0.9876173464291289,0
461,381.1777777777778,0.9083333333333599,0.8583333333332916,0.8333333333332575,1.0900000000001309,80.55555555555556,0.26274592825608856,0.9990550736796823,0
462,382.0361111111111,0.8583333333332916,0.8500000000000227,0.8333333333332575,1.0300000000000435,77.77777777777777,0.30618035509921104,0.9973408155902803,0
463,382.8861111111111,0.8500000000000227,0.8138888888888687,0.8333333333332575,1.0200000000001201,80.55555555555556,0.3218527325954546,0.9980749287946477,0
464,383.7,0.8138888888888687,0.8055555555555429,0.8333333333332575,0.9766666666667312,83.33333333333333,0.36953877831774035,0.9968331239230819,0
465,384.50555555555553,0.8055555555555429,0.8194444444444571,0.8333333333332575,0.9666666666667394,83.33333333333333,0.37892412740882464,0.9982148112564518,0
466,385.325,0.8194444444444571,0.8500000000000227,0.8333333333332575,0.983333333333438,80.55555555555556,0.35582036784884913,0.999622361033588,0
467,386.175,0.8500000000000227,0.8944444444444457,0.8333333333332575,1.0200000000001201,77.77777777777777,0.3153707164936382,0.9961373544100385,0
468,387.06944444444446,0.8944444444444457,0.3888888888888573,0.8333333333332575,1.0733333333334325,80.55555555555556,0.2760844667461302,0.9973520464687287,0
469,387.4583333333333,0.3888888888888573,1.0583333333333371,0.8333333333332575,0.4666666666666712,80.55555555555556,0.6525762791237871,0.9486769996582001,1
470,388.51666666666665,1.0583333333333371,0.841666666666697,0.8333333333332575,1.2700000000001201,83.33333333333333,0.17259281580934446,0.998518338677292,0
471,389.35833333333335,0.841666666666697,0.7916666666666288,0.8333333333332575,1.0100000000001281,83.33333333333333,0.33795019436744855,0.9981027280954907,0
472,390.15,0.7916666666666288,0.8000000000000114,0.8333333333332575,0.9500000000000409,83.33333333333333,0.39557099756142605,0.9943261024296308,0
473,390.95,0.8000000000000114,0.830555555555577,0.8333333333332575,0.960000000000101,83.33333333333333,0.3851728216064229,0.9993461759745503,0
474,391.78055555555557,0.830555555555577,0.8888888888888573,0.8333333333332575,0.996666666666783,80.55555555555556,0.34354794342911593,0.9973505718954836,0
475,392.6694444444444,0.8888888888888573,1.0055555555555884,0.8333333333332575,1.0666666666667257,75.0,0.2697707155837072,0.9865103402147437,0
476,393.675,1.0055555555555884,0.8555555555555543,0.8333333333332575,1.2066666666668158,52.77777777777778,0.13392832840767238,0.9971507401582214,0
477,394.53055555555557,0.8555555555555543,0.8055555555555429,0.8333333333332575,1.0266666666667585,52.77777777777778,0.25872878758486256,0.9972664482862361,0
478,395.3361111111111,0.8055555555555429,0.8138888888888687,0.8333333333332575,0.9666666666667394,55.55555555555556,0.31934094691757803,0.99803296552863,0
479,396.15,0.8138888888888687,0.8444444444444912,0.8333333333332575,0.9766666666667312,52.77777777777778,0.3053405077374533,0.9970963507084256,0
480,396.99444444444447,0.8444444444444912,0.8555555555555543,0.8333333333332575,1.0133333333334815,52.77777777777778,0.2707949736922486,0.9976100310472108,0
481,397.85,0.8555555555555543,0.8888888888888573,0.8333333333332575,1.0266666666667585,58.333333333333336,0.2690353164279591,0.9910235091787973,0
482,398.7388888888889,0.8888888888888573,0.8944444444444457,0.8333333333332575,1.0666666666667257,61.111111111111114,0.24130337758503925,0.9802915156254961,0
483,399.6333333333333,0.8944444444444457,0.8361111111111086,0.8333333333332575,1.0733333333334325,52.77777777777778,0.21934016908319462,0.9941775247118825,0
484,400.46944444444443,0.8361111111111086,0.8472222222222285,0.8333333333332575,1.0033333333334216,52.77777777777778,0.280335173628679,0.9957092574079739,0
485,401.31666666666666,0.8472222222222285,0.8111111111111313,0.8333333333332575,1.0166666666667667,52.77777777777778,0.268160885946579,0.9948061034221982,0
486,402.1277777777778,0.8111111111111313,0.8055555555555429,0.8333333333332575,0.9733333333334461,50.0,0.30480300178622327,0.9934395464042836,0
487,402.93333333333334,0.8055555555555429,0.8166666666666629,0.8333333333332575,0.9666666666667394,52.77777777777778,0.3152131815964281,0.995229206255859,0
488,403.75,0.8166666666666629,0.8694444444444684,0.8333333333332575,0.9800000000000846,50.0,0.297639708314404,0.9986850040055923,0
489,404.61944444444447,0.8694444444444684,0.9361111111110745,0.8333333333332575,1.0433333333334571,61.111111111111114,0.26001758392147667,0.9869194083572169,0
490,405.55555555555554,0.9361111111110745,0.8527777777778169,0.8333333333332575,1.1233333333333915,50.0,0.17738575338036772,0.9974263858526391,0
491,406.40833333333336,0.8527777777778169,0.8166666666666629,0.8333333333332575,1.0233333333334733,52.77777777777778,0.26192478622050036,0.9959831257179121,0
492,407.225,0.8166666666666629,0.7972222222222172,0.8333333333332575,0.9800000000000846,52.77777777777778,0.30188991605437154,0.9988685708543765,0
493,408.02222222222224,0.7972222222222172,0.794444444444423,0.8333333333332575,0.9566666666667476,52.77777777777778,0.32453087074525744,0.9973245340477175,0
494,408.81666666666666,0.794444444444423,0.8555555555555543,0.8333333333332575,0.9533333333333943,47.22222222222222,0.3197999589349887,0.9950340843405,0
495,409.6722222222222,0.8555555555555543,0.5666666666666629,0.8333333333332575,1.0266666666667585,72.22222222222223,0.32154386717401273,0.8284764114566405,0
496,410.2388888888889,0.5666666666666629,0.9194444444444798,0.8333333333332575,0.6800000000000573,105.55555555555556,0.6686418550251835,0.9128983978814347,1
497,411.15833333333336,0.9194444444444798,0.702777777777726,0.8333333333332575,1.103333333333476,97.22222222222223,0.3233407931195438,0.815645391190011,0
498,411.8611111111111,0.702777777777726,0.8555555555555543,0.8333333333332575,0.8433333333333479,105.55555555555556,0.5630161575729803,0.9188094274311414,1
499,412.71666666666664,0.8555555555555543,0.7472222222222626,0.8333333333332575,1.0266666666667585,80.55555555555556,0.31564926690887024,0.9992664256359345,0
500,413.4638888888889,0.7472222222222626,0.8361111111111086,0.8333333333332575,0.8966666666667967,100.0,0.5004534463312251,0.9236024500291714,1
501,414.3,0.8361111111111086,0.6916666666666629,0.8333333333332575,1.0033333333334216,86.11111111111111,0.35159426141494177,0.9955477109454416,0
502,414.9916666666667,0.6916666666666629,0.4555555555555202,0.8333333333332575,0.8300000000000709,100.0,0.5594568784511886,0.9204466942471197,1
503,415.4472222222222,0.4555555555555202,0.88611111111112,0.8333333333332575,0.546666666666674,108.33333333333333,0.7220181210745242,0.8787116991210292,1
504,416.3333333333333,0.88611111111112,0.8833333333333258,0.8333333333332575,1.0633333333334407,83.33333333333333,0.31730933895518293,0.8231700592225357,0
505,417.21666666666664,0.8833333333333258,0.88611111111112,0.8333333333332575,1.0600000000000873,88.88888888888889,0.33821814006925865,0.7973020751460549,0
506,418.10277777777776,0.88611111111112,0.8333333333333712,0.8333333333332575,1.0633333333334407,75.0,0.29368209058372613,0.8453990409590845,0
507,418.93611111111113,0.8333333333333712,0.8055555555555429,0.8333333333332575,1.0000000000001363,80.55555555555556,0.3400982165479047,0.9995115458411417,0
508,419.7416666666667,0.8055555555555429,0.7916666666666856,0.8333333333332575,0.9666666666667394,83.33333333333333,0.37958556393752485,0.9938052343984505,0
509,420.53333333333336,0.7916666666666856,0.8027777777777487,0.8333333333332575,0.9500000000001091,83.33333333333333,0.39530400953357986,0.9961060226148344,0
510,421.3361111111111,0.8027777777777487,0.8472222222222285,0.8333333333332575,0.9633333333333861,80.55555555555556,0.37523610384448314,0.9979291961976574,0
511,422.18333333333334,0.8472222222222285,0.919444444444423,0.8333333333332575,1.0166666666667667,72.22222222222223,0.3064520052656178,0.9895091350600124,0
512,423.10277777777776,0.919444444444423,0.8805555555555884,0.8333333333332575,1.1033333333334079,77.77777777777777,0.24748110731482037,0.9891363488999292,0
513,423.98333333333335,0.8805555555555884,0.8277777777777828,0.8333333333332575,1.056666666666802,83.33333333333333,0.29655326898559314,0.9986240882289344,0
514,424.81111111111113,0.8277777777777828,0.8277777777777828,0.8333333333332575,0.9933333333334298,77.77777777777777,0.33965273740294377,0.9990840548291453,0
515,425.6388888888889,0.8277777777777828,0.7916666666666288,0.8333333333332575,0.9933333333334298,77.77777777777777,0.3396727364250188,0.998950728015312,0
516,426.43055555555554,0.7916666666666288,0.8055555555555429,0.8333333333332575,0.9500000000000409,80.55555555555556,0.3880337594845036,0.9983189520356273,0
517,427.2361111111111,0.8055555555555429,0.8583333333333485,0.8333333333332575,0.9666666666667394,80.55555555555556,0.3718658996303061,0.9990142588730887,0
518,428.09444444444443,0.8583333333333485,0.875,0.8333333333332575,1.030000000000112,83.33333333333333,0.3196892086364515,0.9986882113118085,0
519,428.96944444444443,0.875,0.8444444444444343,0.8333333333332575,1.0500000000000955,80.55555555555556,0.29538913487140367,0.997835482749671,0
520,429.81388888888887,0.8444444444444343,0.8333333333333712,0.8333333333332575,1.0133333333334134,80.55555555555556,0.3280753798315666,0.9972104962952584,0
521,430.64722222222224,0.8333333333333712,0.47222222222222854,0.8333333333332575,1.0000000000001363,108.33333333333333,0.4261943155751272,0.903403203375893,0
522,431.11944444444447,0.47222222222222854,1.272222222222183,0.8333333333332575,0.5666666666667258,63.888888888888886,0.6340439274025241,0.7092719802403442,1
523,432.39166666666665,1.272222222222183,0.8000000000000114,0.8333333333332575,1.5266666666667585,86.11111111111111,0.13747040989114923,0.9918240712398854,0
524,433.19166666666666,0.8000000000000114,0.8222222222222513,0.8333333333332575,0.960000000000101,83.33333333333333,0.38521489626997857,0.9990656782175126,0
525,434.0138888888889,0.8222222222222513,0.8611111111110858,0.8333333333332575,0.9866666666667913,80.55555555555556,0.35300360706396045,0.9972786636113051,0
526,434.875,0.8611111111110858,0.7027777777777828,0.8333333333332575,1.033333333333397,77.77777777777777,0.30352582715180837,0.9952639260649291,0
527,435.5777777777778,0.7027777777777828,0.86388888888888,0.8333333333332575,0.8433333333334161,102.77777777777777,0.5551260313301534,0.9239249531464278,1
528,436.44166666666666,0.86388888888888,0.86388888888888,0.8333333333332575,1.0366666666667503,102.77777777777777,0.39250249389691794,0.8113287735328265,0
529,437.30555555555554,0.86388888888888,0.7083333333333712,0.8333333333332575,1.0366666666667503,66.66666666666667,0.29956989566802694,0.8354533067682129,0
530,438.0138888888889,0.7083333333333712,0.7583333333333258,0.8333333333332575,0.8500000000001228,44.44444444444444,0.43385159681256963,0.8492248200916234,0
531,438.77222222222224,0.7583333333333258,0.7777777777777715,0.8333333333332575,0.9100000000000736,44.44444444444444,0.37668257470030425,0.8678709540351981,0
532,439.55,0.7777777777777715,0.875,0.8333333333332575,0.9333333333334106,50.0,0.3595943272766719,0.8850174676529414,0
533,440.425,0.875,0.8916666666666515,0.8333333333332575,1.0500000000000955,97.22222222222223,0.37258321799497196,0.7702975278510675,0
534,441.31666666666666,0.8916666666666515,0.8472222222222285,0.8333333333332575,1.070000000000079,83.33333333333333,0.2854246569190741,0.9993041542047485,0
535,442.1638888888889,0.8472222222222285,0.8472222222222285,0.8333333333332575,1.0166666666667667,80.55555555555556,0.3247663841538231,0.9989059548836543,0
536,443.0111111111111,0.8472222222222285,0.6416666666666515,0.8333333333332575,1.0166666666667667,52.77777777777778,0.2677386767289499,0.9976208315397255,0
537,443.65277777777777,0.6416666666666515,0.8249999999999886,0.8333333333332575,0.7700000000000519,100.0,0.6047169200384661,0.9144694212283986,1
538,444.47777777777776,0.8249999999999886,0.8388888888889028,0.8333333333332575,0.9900000000000764,83.33333333333333,0.35666998069611594,0.9980325949635688,0
539,445.31666666666666,0.8388888888889028,0.8388888888889028,0.8333333333332575,1.006666666666775,55.55555555555556,0.2817622764038594,0.9958542982283523,0
540,446.15555555555557,0.8388888888889028,0.8722222222222058,0.8333333333332575,1.006666666666775,55.55555555555556,0.2816607265602635,0.9965312971856588,0
541,447.02777777777777,0.8722222222222058,0.875,0.8333333333332575,1.0466666666667421,58.333333333333336,0.25074599370214595,0.9955332808074069,0
542,447.90277777777777,0.875,0.8611111111111427,0.8333333333332575,1.0500000000000955,52.77777777777778,0.23807365913955508,0.9984688147855787,0
543,448.7638888888889,0.8611111111111427,0.827777777777726,0.8333333333332575,1.033333333333465,52.77777777777778,0.2525755178011476,0.9986138306225661,0
544,449.59166666666664,0.827777777777726,0.6638888888888914,0.8333333333332575,0.9933333333333615,50.0,0.28541046645598556,0.9958620849143638,0
545,450.25555555555553,0.6638888888888914,0.8194444444444571,0.8333333333332575,0.7966666666667421,97.22222222222223,0.5784746706238456,0.9168514129018615,1
546,451.075,0.8194444444444571,0.8361111111111086,0.8333333333332575,0.983333333333438,50.0,0.2994111715071309,0.9656955453533922,0
547,451.9111111111111,0.8361111111111086,0.88611111111112,0.8333333333332575,1.0033333333334216,88.88888888888889,0.3909822710820537,0.7808508614993395,0
548,452.7972222222222,0.88611111111112,0.8999999999999773,0.8333333333332575,1.0633333333334407,55.55555555555556,0.2320814862040584,0.9939526952272331,0
549,453.6972222222222,0.8999999999999773,0.6944444444444571,0.8333333333332575,1.080000000000071,50.0,0.20924118944243203,0.997570288124162,0
550,454.39166666666665,0.6944444444444571,0.8583333333333485,0.8333333333332575,0.8333333333334243,102.77777777777777,0.5649004508352238,0.9141402530666312,1
551,455.25,0.8583333333333485,0.7916666666666856,0.8333333333332575,1.030000000000112,83.33333333333333,0.34714558617176317,0.8156456944097306,0
552,456.0416666666667,0.7916666666666856,0.8361111111111086,0.8333333333332575,0.9500000000001091,83.33333333333333,0.395132160849564,0.9972516805082734,0
553,456.8777777777778,0.8361111111111086,0.8555555555555543,0.8333333333332575,1.0033333333334216,77.77777777777777,0.3303980132332765,0.9982758178236882,0
554,457.73333333333335,0.8555555555555543,0.6999999999999886,0.8333333333332575,1.0266666666667585,83.33333333333333,0.32272287263792077,0.9983644583490843,0
555,458.43333333333334,0.6999999999999886,0.4333333333333371,0.8333333333332575,0.8400000000000628,105.55555555555556,0.56614472532731,0.9165721916246854,1
556,458.8666666666667,0.4333333333333371,0.8888888888888573,0.8333333333332575,0.5200000000000519,97.22222222222223,0.706449284386113,0.8249596521391191,1
557,459.75555555555553,0.8888888888888573,0.7861111111111541,0.8333333333332575,1.0666666666667257,86.11111111111111,0.3218691320020004,0.8216473665286014,0
558,460.5416666666667,0.7861111111111541,0.8083333333333371,0.8333333333332575,0.9433333333334707,52.77777777777778,0.3582237607948933,0.8584596071955368,0
559,461.35,0.8083333333333371,0.7777777777777715,0.8333333333332575,0.9700000000000928,47.22222222222222,0.3238677975777525,0.8609124826419815,0
560,462.1277777777778,0.7777777777777715,0.8388888888888459,0.8333333333332575,0.9333333333334106,47.22222222222222,0.3562206094668019,0.8807616904289797,0
561,462.96666666666664,0.8388888888888459,0.6027777777778169,0.8333333333332575,1.0066666666667068,69.44444444444444,0.33333592615998303,0.8307641992969725,0
562,463.56944444444446,0.6027777777778169,0.86388888888888,0.8333333333332575,0.7233333333334461,102.77777777777777,0.6385462719814703,0.9245606337358809,1
563,464.43333333333334,0.86388888888888,0.8916666666666515,0.8333333333332575,1.0366666666667503,80.55555555555556,0.30688137719431974,0.9984019428405673,0
564,465.325,0.8916666666666515,0.875,0.8333333333332575,1.070000000000079,58.333333333333336,0.23174543770863337,0.9919076250376553,0
565,466.2,0.875,0.8472222222222285,0.8333333333332575,1.0500000000000955,55.55555555555556,0.24283233910453494,0.997066476432817,0
566,467.0472222222222,0.8472222222222285,0.6555555555555657,0.8333333333332575,1.0166666666667667,80.55555555555556,0.32497820023009155,0.9974938477085309,0
567,467.7027777777778,0.6555555555555657,0.8222222222221944,0.8333333333332575,0.7866666666667503,97.22222222222223,0.585087353429005,0.9207093462646452,1
568,468.525,0.8222222222221944,0.8166666666666629,0.8333333333332575,0.9866666666667231,86.11111111111111,0.36706207805421226,0.9969847229461934,0
569,469.34166666666664,0.8166666666666629,0.8527777777778169,0.8333333333332575,0.9800000000000846,80.55555555555556,0.36072289488910453,0.9881185514659063,0
570,470.19444444444446,0.8527777777778169,0.7527777777777374,0.8333333333332575,1.0233333333334733,83.33333333333333,0.32581238592451345,0.9977910381077277,0
571,470.9472222222222,0.7527777777777374,0.9194444444444798,0.8333333333332575,0.903333333333367,108.33333333333333,0.5152700274368531,0.925483303911847,1
572,471.8666666666667,0.9194444444444798,0.8333333333333144,0.8333333333332575,1.103333333333476,88.88888888888889,0.3006365865195669,0.8212365835354523,0
573,472.7,0.8333333333333144,0.8194444444444571,0.8333333333332575,1.0000000000000682,83.33333333333333,0.3476228792573029,0.9956025320190658,0
574,473.51944444444445,0.8194444444444571,0.8249999999999886,0.8333333333332575,0.983333333333438,52.77777777777778,0.30587969667421844,0.9510903293547095,0
575,474.34444444444443,0.8249999999999886,0.7805555555555657,0.8333333333332575,0.9900000000000764,55.55555555555556,0.3169362617025919,0.865521005917596,0
576,475.125,0.7805555555555657,0.8666666666666742,0.8333333333332575,0.936666666666764,47.22222222222222,0.3543371458795378,0.8719351489249896,0
577,475.9916666666667,0.8666666666666742,0.8277777777777828,0.8333333333332575,1.0400000000001037,50.0,0.26857494265321186,0.8242824822682508,0
578,476.81944444444446,0.8277777777777828,0.8361111111111086,0.8333333333332575,0.9933333333334298,50.0,0.3054633985955498,0.862175870650173,0
579,477.65555555555557,0.8361111111111086,0.8611111111110858,0.8333333333332575,1.0033333333334216,52.77777777777778,0.298586516027585,0.8740336414152672,0
580,478.51666666666665,0.8611111111110858,0.841666666666697,0.8333333333332575,1.033333333333397,83.33333333333333,0.34279756502945274,0.824858759517505,0
581,479.35833333333335,0.841666666666697,0.8000000000000114,0.8333333333332575,1.0100000000001281,83.33333333333333,0.3377296644181308,0.9995729277576091,0
582,480.15833333333336,0.8000000000000114,0.8138888888888687,0.8333333333332575,0.960000000000101,86.11111111111111,0.3928871351640881,0.9950912139527655,0
583,480.97222222222223,0.8138888888888687,0.8055555555555429,0.8333333333332575,0.9766666666667312,83.33333333333333,0.3697721696211163,0.9952771819005756,0
584,481.77777777777777,0.8055555555555429,0.8722222222222058,0.8333333333332575,0.9666666666667394,83.33333333333333,0.3789739999437857,0.9978823276900446,0
585,482.65,0.8722222222222058,0.9444444444444571,0.8333333333332575,1.0466666666667421,72.22222222222223,0.28095574829126485,0.9816448241314824,0
586,483.59444444444443,0.9444444444444571,0.8472222222222285,0.8333333333332575,1.1333333333334517,50.0,0.1704402509328177,0.9992246152488071,0
587,484.44166666666666,0.8472222222222285,0.8166666666666629,0.8333333333332575,1.0166666666667667,77.77777777777777,0.31806813610114637,0.9984099268381135,0
588,485.2583333333333,0.8166666666666629,0.8111111111111313,0.8333333333332575,0.9800000000000846,83.33333333333333,0.3659934938530154,0.9992366292799868,0
589,486.06944444444446,0.8111111111111313,0.7972222222222172,0.8333333333332575,0.9733333333334461,88.88888888888889,0.42258070421250726,0.7595620691248214,0
590,486.8666666666667,0.7972222222222172,0.8444444444444343,0.8333333333332575,0.9566666666667476,50.0,0.32091649237444236,0.9929021047379171,0
591,487.7111111111111,0.8444444444444343,0.9055555555555657,0.8333333333332575,1.0133333333334134,55.55555555555556,0.27519580600960636,0.9985933436790139,0
592,488.6166666666667,0.9055555555555657,0.8944444444444457,0.8333333333332575,1.0866666666667777,77.77777777777777,0.25864506286617134,0.9983330088498544,0
593,489.5111111111111,0.8944444444444457,0.8388888888889028,0.8333333333332575,1.0733333333334325,80.55555555555556,0.2757916373624322,0.9993042423600487,0
594,490.35,0.8388888888889028,0.8555555555555543,0.8333333333332575,1.006666666666775,55.55555555555556,0.28141265820026956,0.9981850862522847,0
595,491.2055555555556,0.8555555555555543,0.8166666666666629,0.8333333333332575,1.0266666666667585,52.77777777777778,0.258788905173464,0.9968656643622268,0
596,492.02222222222224,0.8166666666666629,0.8222222222221944,0.8333333333332575,0.9800000000000846,83.33333333333333,0.36665391219652693,0.9948338403232433,0
597,492.84444444444443,0.8222222222221944,0.8249999999999886,0.8333333333332575,0.9866666666667231,52.77777777777778,0.2975186486412441,0.9857085469200948,0
598,493.6694444444444,0.8249999999999886,0.5833333333333712,0.8333333333332575,0.9900000000000764,91.66666666666667,0.4111878951889958,0.778034119461764,0
599,494.2527777777778,0.5833333333333712,0.9333333333333371,0.8333333333332575,0.7000000000001091,102.77777777777777,0.6527486751201376,0.9098059948122796,1
600,495.18611111111113,0.9333333333333371,0.7749999999999773,0.8333333333332575,1.1200000000001065,83.33333333333333,0.272503212957095,0.8347731507855736,0
601,495.9611111111111,0.7749999999999773,0.8722222222222058,0.8333333333332575,0.9300000000000573,47.22222222222222,0.361271687935812,0.8684416033022981,0
602,496.8333333333333,0.8722222222222058,0.8055555555555998,0.8333333333332575,1.0466666666667421,80.55555555555556,0.297970550581273,0.999705487943105,0
603,497.6388888888889,0.8055555555555998,0.7999999999999545,0.8333333333332575,0.9666666666668077,77.77777777777777,0.3652815132615233,0.9977591529344841,0
604,498.43888888888887,0.7999999999999545,0.8055555555555998,0.8333333333332575,0.9600000000000327,80.55555555555556,0.3786691230668089,0.9964487619989287,0
605,499.24444444444447,0.8055555555555998,0.8833333333333258,0.8333333333332575,0.9666666666668077,77.77777777777777,0.3654892240440025,0.9963744143846226,0
606,500.1277777777778,0.8833333333333258,0.9444444444444002,0.8333333333332575,1.0600000000000873,61.111111111111114,0.24697524962472053,0.9792372494254848,0
607,501.0722222222222,0.9444444444444002,0.8888888888889142,0.8333333333332575,1.1333333333333833,58.333333333333336,0.1863262778900366,0.984303307162752,0
608,501.9611111111111,0.8888888888889142,0.8500000000000227,0.8333333333332575,1.066666666666794,83.33333333333333,0.2882199577641458,0.998801399751276,0
609,502.81111111111113,0.8500000000000227,0.8249999999999886,0.8333333333332575,1.0200000000001201,55.55555555555556,0.2691219684522195,0.9984657116535691,0
610,503.6361111111111,0.8249999999999886,0.794444444444423,0.8333333333332575,0.9900000000000764,50.0,0.28914373373818586,0.9919640458179653,0
611,504.43055555555554,0.794444444444423,0.8444444444444343,0.8333333333332575,0.9533333333333943,52.77777777777778,0.3277756738768453,0.9971281657997852,0
612,505.275,0.8444444444444343,0.8694444444444684,0.8333333333332575,1.0133333333334134,58.333333333333336,0.2809069257316079,0.9926642706317711,0
613,506.14444444444445,0.8694444444444684,0.9277777777777487,0.8333333333332575,1.0433333333334571,58.333333333333336,0.2543710500417779,0.9905920623053737,0
614,507.0722222222222,0.9277777777777487,0.8666666666666742,0.8333333333332575,1.1133333333333997,55.55555555555556,0.1936474012113696,0.9940886078265199,0
615,507.93888888888887,0.8666666666666742,0.8638888888889369,0.8333333333332575,1.0400000000001037,55.55555555555556,0.2514138989385619,0.9975299202282552,0
616,508.8027777777778,0.8638888888889369,0.8111111111110745,0.8333333333332575,1.0366666666668185,52.77777777777778,0.2499296287484512,0.9966104263028737,0
617,509.6138888888889,0.8111111111110745,0.8027777777778056,0.8333333333332575,0.9733333333333779,52.77777777777778,0.3085033472024638,0.99728886207835,0
618,510.4166666666667,0.8027777777778056,0.6999999999999886,0.8333333333332575,0.9633333333334543,52.77777777777778,0.31855577254085793,0.9943282320449716,0
619,511.1166666666667,0.6999999999999886,0.8666666666666742,0.8333333333332575,0.8400000000000628,102.77777777777777,0.559475251451721,0.9135500348921031,1
620,511.98333333333335,0.8666666666666742,0.8972222222222399,0.8333333333332575,1.0400000000001037,55.55555555555556,0.2514269241340913,0.9974430855913927,0
621,512.8805555555556,0.8972222222222399,0.908333333333303,0.8333333333332575,1.076666666666786,55.55555555555556,0.22224191192525883,0.987360599226313,0
622,513.7888888888889,0.908333333333303,0.8555555555554974,0.8333333333332575,1.0900000000000627,83.33333333333333,0.29839011369198093,0.8076825750142347,0
623,514.6444444444444,0.8555555555554974,0.8333333333333712,0.8333333333332575,1.0266666666666904,86.11111111111111,0.35902398333121127,0.8035308487568722,0
624,515.4777777777778,0.8333333333333712,0.7888888888888914,0.8333333333332575,1.0000000000001363,83.33333333333333,0.34734984386674694,0.9974227679556802,0
625,516.2666666666667,0.7888888888888914,0.8305555555555202,0.8333333333332575,0.9466666666667558,83.33333333333333,0.39845298256959744,0.9965543864851969,0
626,517.0972222222222,0.8305555555555202,0.8722222222222626,0.8333333333332575,0.9966666666667149,55.55555555555556,0.29149210525591185,0.9932418482879586,0
627,517.9694444444444,0.8722222222222626,0.9138888888888914,0.8333333333332575,1.0466666666668103,55.55555555555556,0.2486871224798269,0.9771140305230412,0
628,518.8833333333333,0.9138888888888914,0.8722222222222626,0.8333333333332575,1.0966666666667695,58.333333333333336,0.21020616420821603,0.9966825665603132,0
629,519.7555555555556,0.8722222222222626,0.8527777777777601,0.8333333333332575,1.0466666666668103,52.77777777777778,0.2408892118041081,0.9987779069473959,0
630,520.6083333333333,0.8527777777777601,0.8194444444444571,0.8333333333332575,1.0233333333334051,80.55555555555556,0.3186807781536569,0.9990796856736955,0
631,521.4277777777778,0.8194444444444571,0.8027777777778056,0.8333333333332575,0.983333333333438,80.55555555555556,0.3558983305908683,0.9991026094201271,0
632,522.2305555555556,0.8027777777778056,0.8249999999999318,0.8333333333332575,0.9633333333334543,80.55555555555556,0.37504499117757817,0.9992032806432529,0
633,523.0555555555555,0.8249999999999318,0.8305555555555202,0.8333333333332575,0.9900000000000082,83.33333333333333,0.3568647430274962,0.9967341794214637,0
634,523.8861111111111,0.8305555555555202,0.8500000000000227,0.8333333333332575,0.9966666666667149,86.11111111111111,0.35759578889576943,0.9971274680543569,0
635,524.7361111111111,0.8500000000000227,0.9055555555555657,0.8333333333332575,1.0200000000001201,58.333333333333336,0.2751532996970889,0.9904018951205407,0
636,525.6416666666667,0.9055555555555657,0.8472222222222854,0.8333333333332575,1.0866666666667777,55.55555555555556,0.21282866781276374,0.997779012839978,0
637,526.4888888888889,0.8472222222222854,0.8388888888888459,0.8333333333332575,1.016666666666835,80.55555555555556,0.32475020633031804,0.9990138070399393,0
638,527.3277777777778,0.8388888888888459,0.7916666666666288,0.8333333333332575,1.0066666666667068,52.77777777777778,0.2768459305288484,0.9983077426484102,0
639,528.1194444444444,0.7916666666666288,0.8027777777778056,0.8333333333332575,0.9500000000000409,52.77777777777778,0.33117693093680495,0.9958946361772016,0
640,528.9222222222222,0.8027777777778056,0.8194444444444571,0.8333333333332575,0.9633333333334543,50.0,0.313631604546299,0.99863773356013,0
641,529.7416666666667,0.8194444444444571,0.8694444444444116,0.8333333333332575,0.983333333333438,52.77777777777778,0.29873117761592055,0.9987471230766954,0
642,530.6111111111111,0.8694444444444116,0.9222222222222172,0.8333333333332575,1.0433333333333887,55.55555555555556,0.24904845903691228,0.99393094390544,0
643,531.5333333333333,0.9222222222222172,0.8472222222222854,0.8333333333332575,1.1066666666667613,55.55555555555556,0.19792438321531208,0.9973485884544537,0
644,532.3805555555556,0.8472222222222854,0.8222222222221944,0.8333333333332575,1.016666666666835,50.0,0.26326227826004783,0.9989452028834233,0
645,533.2027777777778,0.8222222222221944,0.8138888888888687,0.8333333333332575,0.9866666666667231,86.11111111111111,0.3670548204150008,0.9970331072076032,0
646,534.0166666666667,0.8138888888888687,0.8166666666667197,0.8333333333332575,0.9766666666667312,86.11111111111111,0.3765645270851189,0.9971685938365416,0
647,534.8333333333334,0.8166666666667197,0.8333333333332575,0.8333333333332575,0.9800000000001527,77.77777777777777,0.35227645939841173,0.9992771063400392,0
648,535.6666666666666,0.8333333333332575,0.8305555555556339,0.8333333333332575,1.0,55.55555555555556,0.2876015112761639,0.9983419362242851,0
649,536.4972222222223,0.8305555555556339,0.8888888888888005,0.8333333333332575,0.9966666666668513,55.55555555555556,0.29112229382531346,0.9957072578244264,0
650,537.3861111111111,0.8888888888888005,0.8527777777778738,0.8333333333332575,1.0666666666666575,50.0,0.22002439970516008,0.9971949246134557,0
651,538.2388888888889,0.8527777777778738,0.8444444444444343,0.8333333333332575,1.0233333333335417,86.11111111111111,0.33300263441883315,0.9970298431745014,0
652,539.0833333333334,0.8444444444444343,0.8333333333332575,0.8333333333332575,1.0133333333334134,86.11111111111111,0.34229630518601334,0.9958335265350832,0
653,539.9166666666666,0.8333333333332575,0.7944444444444798,0.8333333333332575,1.0,86.11111111111111,0.35448836107453824,0.9970064482672387,0
654,540.7111111111111,0.7944444444444798,0.8027777777778056,0.8333333333332575,0.9533333333334625,83.33333333333333,0.39178341831150487,0.9981351133181864,0
655,541.5138888888889,0.8027777777778056,0.8472222222221717,0.8333333333332575,0.9633333333334543,52.77777777777778,0.3181424116339751,0.9970839714241904,0
656,542.3611111111111,0.8472222222221717,0.9194444444444798,0.8333333333332575,1.0166666666666986,75.0,0.3124073812520711,0.9922687043960732,0
657,543.2805555555556,0.9194444444444798,0.8694444444444116,0.8333333333332575,1.103333333333476,80.55555555555556,0.2527881101063243,0.9989073453529556,0
658,544.15,0.8694444444444116,0.8361111111111086,0.8333333333332575,1.0433333333333887,52.77777777777778,0.24414328110701072,0.9963099353576796,0
659,544.9861111111111,0.8361111111111086,0.7972222222222172,0.8333333333332575,1.0033333333334216,83.33333333333333,0.34419601196585903,0.9976955789100103,0
660,545.7833333333333,0.7972222222222172,0.8250000000000455,0.8333333333332575,0.9566666666667476,52.77777777777778,0.3360321565080279,0.9206492956292477,0
661,546.6083333333333,0.8250000000000455,0.5444444444444798,0.8333333333332575,0.9900000000001447,66.66666666666667,0.3430481586933069,0.8308974911607385,0
662,547.1527777777778,0.5444444444444798,0.8694444444444116,0.8333333333332575,0.6533333333334352,100.0,0.6656383107604917,0.9100446166098063,1
663,548.0222222222222,0.8694444444444116,0.7694444444443889,0.8333333333332575,1.0433333333333887,80.55555555555556,0.30163106434329207,0.9945278866255538,0
664,548.7916666666666,0.7694444444443889,0.8805555555555884,0.8333333333332575,0.9233333333333507,105.55555555555556,0.48980214614456774,0.922123739045748,0
665,549.6722222222222,0.8805555555555884,0.8361111111111086,0.8333333333332575,1.056666666666802,52.77777777777778,0.24883607856992454,0.8890134472501552,0
666,550.5083333333333,0.8361111111111086,0.7722222222222399,0.8333333333332575,1.0033333333334216,102.77777777777777,0.4262690154678258,0.7880210933663253,0
667,551.2805555555556,0.7722222222222399,0.8388888888888459,0.8333333333332575,0.9266666666667722,47.22222222222222,0.3656454063929197,0.8606022843921339,0
668,552.1194444444444,0.8388888888888459,0.8138888888888687,0.8333333333332575,1.0066666666667068,86.11111111111111,0.34840239309310905,0.9961636976658921,0
669,552.9333333333333,0.8138888888888687,0.8166666666667197,0.8333333333332575,0.9766666666667312,80.55555555555556,0.3621660800112314,0.9997290417263214,0
670,553.75,0.8166666666667197,0.8472222222221717,0.8333333333332575,0.9800000000001527,77.77777777777777,0.35259344037801793,0.9971638998093312,0
671,554.5972222222222,0.8472222222221717,0.8805555555555884,0.8333333333332575,1.0166666666666986,58.333333333333336,0.277936285401026,0.9921040269061718,0
672,555.4777777777778,0.8805555555555884,0.8638888888889369,0.8333333333332575,1.056666666666802,52.77777777777778,0.23257108136390153,0.9974467619569753,0
673,556.3416666666667,0.8638888888889369,0.8472222222221717,0.8333333333332575,1.0366666666668185,80.55555555555556,0.3068064365537859,0.998901547110392,0
674,557.1888888888889,0.8472222222221717,0.7944444444444798,0.8333333333332575,1.0166666666666986,83.33333333333333,0.3316766788084596,0.9990927280933133,0
675,557.9833333333333,0.7944444444444798,0.7999999999999545,0.8333333333332575,0.9533333333334625,52.77777777777778,0.3299542672420794,0.9826042100311201,0
676,558.7833333333333,0.7999999999999545,0.8250000000000455,0.8333333333332575,0.9600000000000327,80.55555555555556,0.3792603962457913,0.992506940805713,0
677,559.6083333333333,0.8250000000000455,0.8972222222222399,0.8333333333332575,0.9900000000001447,83.33333333333333,0.3565562329719078,0.9987909131245257,0
678,560.5055555555556,0.8972222222222399,0.9333333333332803,0.8333333333332575,1.076666666666786,63.888888888888886,0.25359388068857586,0.8802452370525227,0
679,561.4388888888889,0.9333333333332803,0.8333333333333712,0.8333333333332575,1.1200000000000383,83.33333333333333,0.2773635794193817,0.8023707077039754,0
680,562.2722222222222,0.8333333333333712,0.6194444444444116,0.8333333333332575,1.0000000000001363,102.77777777777777,0.4277095173112104,0.7991704827953512,0
681,562.8916666666667,0.6194444444444116,0.8555555555556111,0.8333333333332575,0.7433333333333615,102.77777777777777,0.6283748143449019,0.9166054390381986,1
682,563.7472222222223,0.8555555555556111,0.7888888888888914,0.8333333333332575,1.0266666666668267,86.11111111111111,0.3303058290943209,0.9949852103353249,0
683,564.5361111111112,0.7888888888888914,0.8361111111111086,0.8333333333332575,0.9466666666667558,80.55555555555556,0.3910669809542861,0.9995389930137857,0
684,565.3722222222223,0.8361111111111086,0.8694444444444116,0.8333333333332575,1.0033333333334216,52.77777777777778,0.2808588138856968,0.9922183223611885,0
685,566.2416666666667,0.8694444444444116,0.9166666666666288,0.8333333333332575,1.0433333333333887,50.0,0.2396235440731028,0.9979232304684982,0
686,567.1583333333333,0.9166666666666288,0.8472222222222854,0.8333333333332575,1.1000000000000545,75.0,0.2423720782986416,0.9956732043664809,0
687,568.0055555555556,0.8472222222222854,0.8638888888888232,0.8333333333332575,1.016666666666835,77.77777777777777,0.3181824264252752,0.9976479913435061,0
688,568.8694444444444,0.8638888888888232,0.8250000000000455,0.8333333333332575,1.0366666666666822,77.77777777777777,0.30003311328203786,0.9989060205261278,0
689,569.6944444444445,0.8250000000000455,0.7972222222222172,0.8333333333332575,0.9900000000001447,86.11111111111111,0.3643651304227413,0.9939053918149517,0
690,570.4916666666667,0.7972222222222172,0.816666666666606,0.8333333333332575,0.9566666666667476,50.0,0.32047644571184325,0.9958357491552445,0
691,571.3083333333333,0.816666666666606,0.8305555555556339,0.8333333333332575,0.9800000000000164,80.55555555555556,0.35902562978065394,0.9994336521893439,0
692,572.1388888888889,0.8305555555556339,0.8638888888888232,0.8333333333332575,0.9966666666668513,77.77777777777777,0.33719114101145364,0.9945782396160859,0
693,573.0027777777777,0.8638888888888232,0.8916666666666515,0.8333333333332575,1.0366666666666822,75.0,0.29440188457481753,0.9925679571379722,0
694,573.8944444444444,0.8916666666666515,0.8611111111111995,0.8333333333332575,1.070000000000079,80.55555555555556,0.27849367810608106,0.999255275384549,0
695,574.7555555555556,0.8611111111111995,0.8138888888888687,0.8333333333332575,1.0333333333335335,50.0,0.24869179712996958,0.9959870166481142,0
696,575.5694444444445,0.8138888888888687,0.7888888888888914,0.8333333333332575,0.9766666666667312,83.33333333333333,0.3693032053398498,0.9984036104423524,0
697,576.3583333333333,0.7888888888888914,0.8027777777778056,0.8333333333332575,0.9466666666667558,83.33333333333333,0.3986409424172346,0.9953013208342826,0
698,577.1611111111112,0.8027777777778056,0.8805555555554747,0.8333333333332575,0.9633333333334543,80.55555555555556,0.37504028852484655,0.9992346316614638,0
699,578.0416666666666,0.8805555555554747,0.8833333333333258,0.8333333333332575,1.0566666666666658,80.55555555555556,0.28965614364596454,0.99834951958707,0
700,578.925,0.8833333333333258,0.8500000000000227,0.8333333333332575,1.0600000000000873,75.0,0.27490757653702824,0.9890228145904671,0
701,579.775,0.8500000000000227,0.8472222222222854,0.8333333333332575,1.0200000000001201,80.55555555555556,0.3216532507964379,0.9994048074547588,0
702,580.6222222222223,0.8472222222222854,0.8305555555555202,0.8333333333332575,1.016666666666835,80.55555555555556,0.32470971581734337,0.9992837437931037,0
703,581.4527777777778,0.8305555555555202,0.7972222222222172,0.8333333333332575,0.9966666666667149,86.11111111111111,0.35765255467667945,0.9967490295149566,0
704,582.25,0.7972222222222172,0.8277777777777828,0.8333333333332575,0.9566666666667476,83.33333333333333,0.388946709625517,0.9956108519292239,0
705,583.0777777777778,0.8277777777777828,0.8222222222221944,0.8333333333332575,0.9933333333334298,80.55555555555556,0.34635231674865197,0.9995712075878094,0
706,583.9,0.8222222222221944,0.8583333333333485,0.8333333333332575,0.9866666666667231,80.55555555555556,0.35264479462674025,0.9996707465265372,0
707,584.7583333333333,0.8583333333333485,0.875,0.8333333333332575,1.030000000000112,80.55555555555556,0.312699978883879,0.9990276720888054,0
708,585.6333333333333,0.875,0.8666666666666742,0.8333333333332575,1.0500000000000955,80.55555555555556,0.2951756007376576,0.9992590436413116,0
709,586.5,0.8666666666666742,0.8333333333333712,0.8333333333332575,1.0400000000001037,77.77777777777777,0.2973204830106353,0.9974826561136936,0
710,587.3333333333334,0.8333333333333712,0.8222222222221944,0.8333333333332575,1.0000000000001363,80.55555555555556,0.3401739740680002,0.9990064957071716,0
711,588.1555555555556,0.8222222222221944,0.7888888888888914,0.8333333333332575,0.9866666666667231,83.33333333333333,0.35989038754804614,0.9976221979579845,0
712,588.9444444444445,0.7888888888888914,0.8249999999999318,0.8333333333332575,0.9466666666667558,80.55555555555556,0.391124974461969,0.999152369629233,0
713,589.7694444444444,0.8249999999999318,0.8527777777778738,0.8333333333332575,0.9900000000000082,80.55555555555556,0.3495958081920102,0.9989383407512171,0
714,590.6222222222223,0.8527777777778738,0.8888888888888005,0.8333333333332575,1.0233333333335417,75.0,0.3065435131456759,0.9909641825597366,0
715,591.5111111111111,0.8888888888888005,0.8583333333333485,0.8333333333332575,1.0666666666666575,58.333333333333336,0.23436377478828832,0.9925846290210398,0
716,592.3694444444444,0.8583333333333485,0.8361111111111086,0.8333333333332575,1.030000000000112,55.55555555555556,0.26083491456697494,0.9936471227721866,0
717,593.2055555555555,0.8361111111111086,0.7916666666667425,0.8333333333332575,1.0033333333334216,83.33333333333333,0.3444826555325853,0.9957846217985016,0
718,593.9972222222223,0.7916666666667425,0.8249999999999318,0.8333333333332575,0.9500000000001774,83.33333333333333,0.3949623878500214,0.9983835005047842,0
719,594.8222222222222,0.8249999999999318,0.8388888888889596,0.8333333333332575,0.9900000000000082,75.0,0.3367031084467446,0.9958590692199779,0
720,595.6611111111112,0.8388888888889596,0.4499999999999318,0.8333333333332575,1.0066666666668431,86.11111111111111,0.378497522570955,0.7955295011460762,0
721,596.1111111111111,0.4499999999999318,0.9277777777778056,0.8333333333332575,0.5399999999999673,61.111111111111114,0.6110985224814013,0.8641160578417764,1
722,597.0388888888889,0.9277777777778056,0.8444444444444343,0.8333333333332575,1.1133333333334678,75.0,0.233769448625116,0.9887253333308593,0
723,597.8833333333333,0.8444444444444343,0.8611111111110858,0.8333333333332575,1.0133333333334134,105.55555555555556,0.40801653317427955,0.8954890652899286,0
724,598.7444444444444,0.8611111111110858,0.6750000000000682,0.8333333333332575,1.033333333333397,47.22222222222222,0.25118964514695746,0.9525874672459074,0
725,599.4194444444445,0.6750000000000682,0.8444444444444343,0.8333333333332575,0.8100000000001555,100.0,0.5758169773373701,0.9165645690434112,1
726,600.2638888888889,0.8444444444444343,0.8222222222221944,0.8333333333332575,1.0133333333334134,55.55555555555556,0.2941866585407576,0.8719876601380055,0
727,601.0861111111111,0.8222222222221944,0.8277777777777828,0.8333333333332575,0.9866666666667231,66.66666666666667,0.34473339047621715,0.8407215946157182,0
728,601.9138888888889,0.8277777777777828,0.8361111111111086,0.8333333333332575,0.9933333333334298,69.44444444444444,0.3457216283925947,0.8313623846412346,0
729,602.75,0.8361111111111086,0.9166666666666288,0.8333333333332575,1.0033333333334216,83.33333333333333,0.37239004912569307,0.8097353311777833,0
730,603.6666666666666,0.9166666666666288,0.8555555555556111,0.8333333333332575,1.1000000000000545,77.77777777777777,0.24883610031991707,0.9964593123276023,0
731,604.5222222222222,0.8555555555556111,0.8277777777777828,0.8333333333332575,1.0266666666668267,80.55555555555556,0.3161912322563717,0.9956533233188496,0
732,605.35,0.8277777777777828,0.7861111111110404,0.8333333333332575,0.9933333333334298,50.0,0.2852644162513749,0.9968357529446722,0
733,606.1361111111111,0.7861111111110404,0.8166666666667197,0.8333333333332575,0.9433333333333342,83.33333333333333,0.4017009082612968,0.996337201170294,0
734,606.9527777777778,0.8166666666667197,0.8361111111111086,0.8333333333332575,0.9800000000001527,80.55555555555556,0.35923079985343886,0.9980658517032437,0
735,607.7888888888889,0.8361111111111086,0.875,0.8333333333332575,1.0033333333334216,80.55555555555556,0.33697376292452996,0.9995885016120504,0
736,608.6638888888889,0.875,0.908333333333303,0.8333333333332575,1.0500000000000955,72.22222222222223,0.2774555519225996,0.9859000233300212,0
737,609.5722222222222,0.908333333333303,0.841666666666697,0.8333333333332575,1.0900000000000627,80.55555555555556,0.2627619995046563,0.998947932022912,0
738,610.4138888888889,0.841666666666697,0.8166666666667197,0.8333333333332575,1.0100000000001281,83.33333333333333,0.33797874055135435,0.9979124202027856,0
739,611.2305555555556,0.8166666666667197,0.8361111111111086,0.8333333333332575,0.9800000000001527,52.77777777777778,0.3020209053005887,0.9979953092124949,0
740,612.0666666666667,0.8361111111111086,0.8194444444443434,0.8333333333332575,1.0033333333334216,55.55555555555556,0.28450043638696204,0.9982630337665241,0
741,612.8861111111111,0.8194444444443434,0.8333333333333712,0.8333333333332575,0.9833333333333015,83.33333333333333,0.36301308960805057,0.997926286879931,0
742,613.7194444444444,0.8333333333333712,0.8694444444444116,0.8333333333332575,1.0000000000001363,80.55555555555556,0.3401106205787656,0.9994288523020689,0
743,614.5888888888888,0.8694444444444116,0.9166666666667425,0.8333333333332575,1.0433333333333887,80.55555555555556,0.3011423111700823,0.9977862411136191,0
744,615.5055555555556,0.9166666666667425,0.8472222222221717,0.8333333333332575,1.100000000000191,77.77777777777777,0.2484606957240571,0.9989620096326615,0
745,616.3527777777778,0.8472222222221717,0.8444444444444343,0.8333333333332575,1.0166666666666986,52.77777777777778,0.26769113038073356,0.9979378071949168,0
746,617.1972222222222,0.8444444444444343,0.8027777777778056,0.8333333333332575,1.0133333333334134,52.77777777777778,0.2705736493821872,0.999085526448038,0
747,618.0,0.8027777777778056,0.7999999999999545,0.8333333333332575,0.9633333333334543,83.33333333333333,0.38270036482371134,0.9944228605758518,0
748,618.8,0.7999999999999545,0.8277777777777828,0.8333333333332575,0.9600000000000327,77.77777777777777,0.3715662012097514,0.9986505593159267,0
749,619.6277777777777,0.8277777777777828,0.8861111111111768,0.8333333333332575,0.9933333333334298,83.33333333333333,0.353395959794491,0.9988689915223687,0
750,620.5138888888889,0.8861111111111768,0.9944444444444116,0.8333333333332575,1.0633333333335089,61.111111111111114,0.24309143484343387,0.9866690013136231,0
751,621.5083333333333,0.9944444444444116,0.8611111111110858,0.8333333333332575,1.1933333333334024,77.77777777777777,0.19075790690986905,0.997748481708841,0
752,622.3694444444444,0.8611111111110858,0.8166666666667197,0.8333333333332575,1.033333333333397,55.55555555555556,0.257296370588797,0.9974636734524105,0
753,623.1861111111111,0.8166666666667197,0.8027777777778056,0.8333333333332575,0.9800000000001527,83.33333333333333,0.3663206613127425,0.997055512881373,0
754,623.9888888888889,0.8027777777778056,0.7972222222222172,0.8333333333332575,0.9633333333334543,80.55555555555556,0.37499895007128725,0.9995102213518592,0
755,624.7861111111112,0.7972222222222172,0.8361111111111086,0.8333333333332575,0.9566666666667476,58.333333333333336,0.33883283204089537,0.9644453785900026,0
756,625.6222222222223,0.8361111111111086,0.8944444444443889,0.8333333333332575,1.0033333333334216,77.77777777777777,0.3309644981740597,0.9944992515518,0
757,626.5166666666667,0.8944444444443889,0.9027777777778283,0.8333333333332575,1.0733333333333643,77.77777777777777,0.26952746229267244,0.9959143944287605,0
758,627.4194444444445,0.9027777777778283,0.8388888888888459,0.8333333333332575,1.0833333333334925,77.77777777777777,0.26147958002724336,0.9967052432288515,0
759,628.2583333333333,0.8388888888888459,0.8555555555556111,0.8333333333332575,1.0066666666667068,80.55555555555556,0.3339317475615314,0.9992054686069402,0
760,629.1138888888889,0.8555555555556111,0.8194444444443434,0.8333333333332575,1.0266666666668267,80.55555555555556,0.31584398134965186,0.9979683293636485,0
761,629.9333333333333,0.8194444444443434,0.8000000000000682,0.8333333333332575,0.9833333333333015,80.55555555555556,0.3562241189583887,0.9969306869708567,0
762,630.7333333333333,0.8000000000000682,0.8194444444444571,0.8333333333332575,0.9600000000001692,50.0,0.317012936049148,0.9975018841574745,0
763,631.5527777777778,0.8194444444444571,0.8444444444444343,0.8333333333332575,0.983333333333438,52.77777777777778,0.29866562917755113,0.999184112665825,0
764,632.3972222222222,0.8444444444444343,0.8611111111110858,0.8333333333332575,1.0133333333334134,75.0,0.31506039787628415,0.9949464394974648,0
765,633.2583333333333,0.8611111111110858,0.8805555555555884,0.8333333333332575,1.033333333333397,55.55555555555556,0.2583672846570685,0.9903242463306008,0
766,634.1388888888889,0.8805555555555884,0.8472222222221717,0.8333333333332575,1.056666666666802,55.55555555555556,0.23762029484766498,0.9941075334789895,0
767,634.9861111111111,0.8472222222221717,0.808333333333394,0.8333333333332575,1.0166666666666986,77.77777777777777,0.31788188586783833,0.9996515950605828,0
768,635.7944444444445,0.808333333333394,0.7861111111110404,0.8333333333332575,0.970000000000161,83.33333333333333,0.3757492477888144,0.9980269060560318,0
769,636.5805555555555,0.7861111111110404,0.8361111111111086,0.8333333333332575,0.9433333333333342,83.33333333333333,0.4013856376292902,0.9984390053836713,0
770,637.4166666666666,0.8361111111111086,0.8833333333333258,0.8333333333332575,1.0033333333334216,77.77777777777777,0.33095656596165296,0.9945521329678453,0
771,638.3,0.8833333333333258,0.9222222222222172,0.8333333333332575,1.0600000000000873,77.77777777777777,0.28065679732536675,0.9945742641045017,0
772,639.2222222222222,0.9222222222222172,0.841666666666697,0.8333333333332575,1.1066666666667613,80.55555555555556,0.25073819833906225,0.9964041323920985,0
773,640.0638888888889,0.841666666666697,0.8361111111111086,0.8333333333332575,1.0100000000001281,80.55555555555556,0.3308682470146035,0.9990603062076379,0
774,640.9,0.8361111111111086,0.8138888888888687,0.8333333333332575,1.0033333333334216,52.77777777777778,0.2801320861157104,0.997063174161098,0
775,641.7138888888888,0.8138888888888687,0.7944444444444798,0.8333333333332575,0.9766666666667312,80.55555555555556,0.3623252517351,0.9986678969005308,0
776,642.5083333333333,0.7944444444444798,0.8388888888888459,0.8333333333332575,0.9533333333334625,80.55555555555556,0.38462787475042737,0.9995833328185498,0
777,643.3472222222222,0.8388888888888459,0.844444444444548,0.8333333333332575,1.0066666666667068,77.77777777777777,0.327164865720167,0.9991669991526508,0
778,644.1916666666667,0.844444444444548,0.8444444444444343,0.8333333333332575,1.0133333333335497,77.77777777777777,0.3209962566664659,0.9992536356650423,0
779,645.0361111111112,0.8444444444444343,0.875,0.8333333333332575,1.0133333333334134,83.33333333333333,0.33483317745232893,0.9984139163969956,0
780,645.9111111111112,0.875,0.8583333333332348,0.8333333333332575,1.0500000000000955,77.77777777777777,0.2890855611132786,0.9947082927404529,0
781,646.7694444444444,0.8583333333332348,0.8111111111111313,0.8333333333332575,1.0299999999999754,52.77777777777778,0.25558343570580583,0.9983347871003563,0
782,647.5805555555555,0.8111111111111313,0.7861111111111541,0.8333333333332575,0.9733333333334461,83.33333333333333,0.37243860652266286,0.9987790436931572,0
783,648.3666666666667,0.7861111111111541,0.7972222222222172,0.8333333333332575,0.9433333333334707,83.33333333333333,0.4014949918686935,0.9977099771201057,0
