beat_index,peak_time_s,rr_prev_s,rr_next_s,rr_baseline_s,prematurity_index,aa_ratio,morph_index,qrs_width_ms,width_index,pause_index,pvc_score,morphology_score,is_pvc_candidate
0,0.8361111111111111,,0.8722222222222221,0.8041666666666742,,0.029417758013488816,1.0134910770997811,50.0,0.9999999999800001,1.0846286701208878,5.111164963489401e-12,0.998760608063967,0
1,1.7083333333333333,0.8722222222222221,0.7583333333333335,0.8041666666666742,1.0846286701208878,0.028223835883807308,0.9723584583383738,50.0,0.9999999999800001,0.9430051813471416,1.1409466301577441e-16,0.9993984317137948,0
2,2.466666666666667,0.7583333333333335,0.8861111111111111,0.8041666666666742,0.9430051813471416,0.03051159116349965,1.0511754627305152,52.77777777777778,1.0555555555344445,1.101899827288418,3.3399191745608903e-10,0.9969602016003242,0
3,3.352777777777778,0.8861111111111111,0.5861111111111112,0.8041666666666742,1.101899827288418,0.029984944927852333,1.0330316170855818,52.77777777777778,1.0555555555344445,0.7288428324697688,5.12895983144487e-15,0.9989268810887411,0
4,3.938888888888889,0.5861111111111112,0.8083333333333327,0.8041666666666742,0.7288428324697688,0.029477929958761896,1.0155641014817902,52.77777777777778,1.0555555555344445,1.0051813471502489,6.771729204047006e-07,0.997359969989666,0
5,4.747222222222222,0.8083333333333327,0.6000000000000005,0.8083333333333327,1.0,0.029911249554333694,1.0304926879309388,52.77777777777778,1.0555555555344445,0.7422680412371147,3.2557629010311617e-13,0.9967726057922222,0
6,5.347222222222222,0.6000000000000005,0.7861111111111114,0.7833333333333331,0.7659574468085115,0.028102965389309863,0.968194267185478,50.0,0.9999999999800001,1.0035460992907808,1.4880156662400168e-08,0.9980170794687646,0
7,6.133333333333334,0.7861111111111114,0.7527777777777773,0.7861111111111114,1.0,0.026724067273462,0.9206889156219523,44.44444444444444,0.8888888888711112,0.9575971731448754,3.9640294898554e-17,0.9993195471252521,0
8,6.886111111111111,0.7527777777777773,0.6833333333333336,0.7722222222222225,0.9748201438848911,0.027015609955407218,0.9307330497333871,44.44444444444444,0.8888888888711112,0.8848920863309353,3.0550792282501985e-16,0.9976568570013601,0
9,7.569444444444445,0.6833333333333336,0.7972222222222225,0.7583333333333335,0.9010989010989012,0.028920013518267795,0.9963429448610589,50.0,0.9999999999800001,1.0512820512820513,1.0172877817904435e-10,0.9990899129624313,0
10,8.366666666666667,0.7972222222222225,0.6083333333333325,0.7722222222222225,1.0323741007194245,0.03190943872881737,1.0993336545935921,52.77777777777778,1.0555555555344445,0.7877697841726605,3.300338821676796e-11,0.996606327266909,0
11,8.975,0.6083333333333325,0.6305555555555564,0.7555555555555554,0.8051470588235284,0.02685743742601708,0.925283740948343,47.22222222222222,0.9444444444255556,0.834558823529413,9.519126806245559e-12,0.9976653091444013,0
12,9.605555555555556,0.6305555555555564,1.1305555555555546,0.7180555555555554,0.8781431334622838,0.028606399740226895,0.9855384244909389,50.0,0.9999999999800001,1.574468085106382,1.129889005824225e-05,0.9995260488278643,0
13,10.73611111111111,1.1305555555555546,1.1472222222222221,0.7180555555555554,1.574468085106382,0.029657171170085334,1.02173926167726,50.0,0.9999999999800001,1.5976789168278531,6.6935097296370785e-15,0.9990322395259782,0
14,11.883333333333333,1.1472222222222221,0.8416666666666668,0.7694444444444444,1.4909747292418774,0.02704535819090815,0.9317579263139149,47.22222222222222,0.9444444444255556,1.0938628158844768,7.292557111822157e-23,0.9974909867011492,0
15,12.725,0.8416666666666668,0.8972222222222221,0.7694444444444444,1.0938628158844768,0.028631776439474694,0.9864126943194585,50.0,0.9999999999800001,1.1660649819494584,4.850996313627773e-14,0.9997167827190349,0
16,13.622222222222222,0.8972222222222221,0.8388888888888886,0.791666666666667,1.1333333333333329,0.028856108590665466,0.9941413129801395,50.0,0.9999999999800001,1.0596491228070168,3.7549600532537654e-16,0.999417024481418,0
17,14.46111111111111,0.8388888888888886,1.0166666666666675,0.8180555555555555,1.025466893039049,0.028623216238989887,0.9861177810631336,47.22222222222222,0.9444444444255556,1.2427843803056038,2.5665171485451943e-13,0.9979298879373277,0
18,15.477777777777778,1.0166666666666675,0.7666666666666657,0.8402777777777777,1.209917355371902,0.029038507637768145,1.0004252659117432,50.0,0.9999999999800001,0.912396694214875,4.366137412535851e-19,0.9991065094090771,0
19,16.244444444444444,0.7666666666666657,0.5888888888888886,0.8402777777777777,0.912396694214875,0.02966336328845396,1.0219525905350224,52.77777777777778,1.0555555555344445,0.7008264462809914,3.725461779346961e-12,0.9971092575953497,0
20,16.833333333333332,0.5888888888888886,0.8222222222222229,0.8402777777777777,0.7008264462809914,0.028765740446087824,0.9910279789136377,50.0,0.9999999999800001,0.9785123966942157,2.3791133685335808e-07,0.9979716147642241,0
21,17.655555555555555,0.8222222222222229,0.9222222222222243,0.8402777777777777,0.9785123966942157,0.029219794233582192,1.0066708930316306,50.0,0.9999999999800001,1.0975206611570274,2.0067472260732605e-13,0.9990626582767591,0
22,18.57777777777778,0.9222222222222243,1.1972222222222193,0.8694444444444445,1.0607028753993633,0.027236125881204738,0.9383301930320609,47.22222222222222,0.9444444444255556,1.3769968051118178,6.3936947946598936e-15,0.9993804369934408,0
23,19.775,1.1972222222222193,0.7472222222222236,0.8694444444444445,1.3769968051118178,0.03058300726799798,1.0536358672466273,47.22222222222222,0.9444444444255556,0.859424920127797,3.2355484699502787e-22,0.9972898179410725,0
24,20.522222222222222,0.7472222222222236,1.1472222222222221,0.8402777777777777,0.8892561983471091,0.02683047599963203,0.9243548746134373,50.0,0.9999999999800001,1.3652892561983472,7.372013555162482e-10,0.9989035221154898,0
25,21.669444444444444,1.1472222222222221,1.1444444444444457,0.8680555555555554,1.3216,0.03072326768515558,1.0584680737388537,52.77777777777778,1.0555555555344445,1.3184000000000018,5.224112429010095e-17,0.997532921114118,0
26,22.81388888888889,1.1444444444444457,0.655555555555555,0.8805555555555564,1.299684542586751,0.02839473585330304,0.9782462487703003,47.22222222222222,0.9444444444255556,0.7444794952681374,3.372647320350152e-23,0.9996278225881916,0
27,23.469444444444445,0.655555555555555,0.7833333333333314,0.8722222222222236,0.7515923566878963,0.02890067182472306,0.995676591095602,50.0,0.9999999999800001,0.8980891719745188,1.565619300869514e-09,0.9991312186014062,0
28,24.252777777777776,0.7833333333333314,0.722222222222225,0.8027777777777771,0.9757785467128012,0.029041577898579175,1.0005310415434185,50.0,0.9999999999800001,0.8996539792387584,4.9396965874247065e-14,0.9987789887102605,0
29,24.975,0.722222222222225,0.6833333333333336,0.8027777777777771,0.8996539792387584,0.027392954422459682,0.9437331991728953,47.22222222222222,0.9444444444255556,0.8512110726643608,1.5452754093675525e-14,0.9992223490721366,0
30,25.658333333333335,0.6833333333333336,0.8527777777777779,0.8027777777777771,0.8512110726643608,0.02774934084187387,0.9560113087388997,47.22222222222222,0.9444444444255556,1.0622837370242224,1.3767677102538567e-11,0.999640358404779,0
31,26.511111111111113,0.8527777777777779,0.9416666666666664,0.8180555555555546,1.04244482173175,0.02848780879049288,0.9814527674763865,47.22222222222222,0.9444444444255556,1.1511035653650266,1.5579536291154654e-14,0.9960609084846445,0
32,27.45277777777778,0.9416666666666664,0.9805555555555543,0.8180555555555546,1.1511035653650266,0.029590187064931543,1.0194315469680102,50.0,0.9999999999800001,1.1986417657045838,2.2108834707922857e-15,0.9992646879680624,0
33,28.433333333333334,0.9805555555555543,0.8249999999999993,0.8180555555555546,1.1986417657045838,0.03065754439261269,1.056203796137573,50.0,0.9999999999800001,1.00848896434635,4.072937743665357e-17,0.9991469617212696,0
34,29.258333333333333,0.8249999999999993,0.719444444444445,0.8388888888888886,0.983443708609271,0.02714957548577437,0.9353483868234466,44.44444444444444,0.8888888888711112,0.857615894039736,8.163715953346135e-18,0.997109887411346,0
35,29.977777777777778,0.719444444444445,0.6444444444444457,0.8041666666666654,0.8946459412780677,0.027652025850450682,0.9526586441534403,47.22222222222222,0.9444444444255556,0.8013816925734053,1.8384863672681745e-14,0.9988352778222718,0
36,30.622222222222224,0.6444444444444457,0.7055555555555557,0.7527777777777782,0.85608856088561,0.02732023053709248,0.9412277394135931,47.22222222222222,0.9444444444255556,0.9372693726937266,4.713774943293503e-12,0.9982655331641019,0
37,31.32777777777778,0.7055555555555557,0.7388888888888907,0.7527777777777782,0.9372693726937266,0.02761170649833795,0.9512695748850765,47.22222222222222,0.9444444444255556,0.9815498154981568,2.689055846483851e-13,0.9980278326233254,0
38,32.06666666666667,0.7388888888888907,0.7333333333333272,0.7305555555555578,1.0114068441064632,0.029813851711033512,1.0271371689594309,50.0,0.9999999999800001,1.0038022813688097,3.219313487665132e-12,0.9994434059540418,0
39,32.8,0.7333333333333272,0.94444444444445,0.7361111111111089,0.9962264150943342,0.029092780638277378,1.0022950617581268,50.0,0.9999999999800001,1.2830188679245396,1.480634281847415e-09,0.9983199077169038,0
40,33.74444444444445,0.94444444444445,0.55833333333333,0.781944444444445,1.207815275310841,0.029444663692428773,1.014418022841753,50.0,0.9999999999800001,0.7140319715808123,4.185061083080185e-17,0.9983602794803225,0
41,34.30277777777778,0.55833333333333,0.9944444444444471,0.7361111111111089,0.7584905660377336,0.028982956109584693,0.9985114226437629,52.77777777777778,1.0555555555344445,1.3509433962264228,8.265377982752398e-05,0.9990709220585985,0
42,35.297222222222224,0.9944444444444471,0.8527777777777743,0.7361111111111089,1.3509433962264228,0.029151846563166328,1.00432998188386,50.0,0.9999999999800001,1.1584905660377345,5.0053479724081955e-17,0.9996752086397379,0
43,36.15,0.8527777777777743,0.8388888888888886,0.7361111111111089,1.1584905660377345,0.026719803860580024,0.9205420339013299,47.22222222222222,0.9444444444255556,1.1396226415094368,2.3685487012865434e-16,0.9991761478404056,0
44,36.98888888888889,0.8388888888888886,0.81111111111111,0.7361111111111089,1.1396226415094368,0.026604375806699814,0.9165653439509623,47.22222222222222,0.9444444444255556,1.101886792452832,1.966256888084116e-16,0.9987587007487317,0
45,37.8,0.81111111111111,0.7111111111111157,0.7750000000000004,1.0465949820788512,0.027788330324336637,0.957354561768537,50.0,0.9999999999800001,0.9175627240143424,1.2745726156226716e-15,0.9989871934969718,0
46,38.51111111111111,0.7111111111111157,0.7722222222222186,0.7750000000000004,0.9175627240143424,0.0375140507424557,1.292421933578828,75.0,1.49999999997,0.9964157706093139,0.25611671805381775,0.9787185415693005,0
47,39.28333333333333,0.7722222222222186,0.7611111111111128,0.7916666666666643,0.9754385964912264,0.027764218954999233,0.9565238846765264,47.22222222222222,0.9444444444255556,0.9614035087719349,3.602306187312819e-15,0.9992034369558811,0
48,40.044444444444444,0.7611111111111128,0.6305555555555529,0.7916666666666643,0.9614035087719349,0.03150161122403171,1.085283313404892,52.77777777777778,1.0555555555344445,0.7964912280701745,5.016670412416602e-11,0.9976890651923795,0
49,40.675,0.6305555555555529,0.8888888888888928,0.7916666666666643,0.7964912280701745,0.030871970573599895,1.0635911375191789,50.0,0.9999999999800001,1.122807017543868,4.801235036211438e-07,0.9993124918080285,0
50,41.56388888888889,0.8888888888888928,0.74444444444444,0.7916666666666643,1.122807017543868,0.02847644199552271,0.9810611623352943,50.0,0.9999999999800001,0.9403508771929797,9.752409791163443e-17,0.9989879207060945,0
51,42.30833333333333,0.74444444444444,0.9666666666666686,0.7916666666666643,0.9403508771929797,0.02833595599363815,0.9762211840710724,47.22222222222222,0.9444444444255556,1.2210526315789534,4.990882707112121e-11,0.996986929798346,0
52,43.275,0.9666666666666686,0.7416666666666671,0.7916666666666643,1.2210526315789534,0.02860750492736895,0.9855765000406285,47.22222222222222,0.9444444444255556,0.9368421052631613,1.5987735505691496e-18,0.9968367068706661,0
53,44.016666666666666,0.7416666666666671,0.68888888888889,0.7666666666666657,0.9673913043478279,0.026437070960318807,0.9108014115369099,47.22222222222222,0.9444444444255556,0.8985507246376837,1.0646365584368774e-15,0.9977321127916523,0
54,44.705555555555556,0.68888888888889,0.74722222222222,0.7527777777777764,0.9151291512915161,0.027331150883225134,0.9416039636438425,47.22222222222222,0.9444444444255556,0.9926199261992609,4.679614985445002e-13,0.998901158269742,0
55,45.452777777777776,0.74722222222222,0.7083333333333357,0.74583333333333,1.0018621973929251,0.029937818164038024,1.031408021072708,50.0,0.9999999999800001,0.9497206703910689,1.7260985392744677e-12,0.9987568000409046,0
56,46.16111111111111,0.7083333333333357,0.7611111111111128,0.74583333333333,0.9497206703910689,0.027347885554957346,0.9421805011376587,47.22222222222222,0.9444444444255556,1.020484171322167,2.47689157595668e-13,0.998292934105985,0
57,46.922222222222224,0.7611111111111128,0.8444444444444414,0.74583333333333,1.020484171322167,0.028301062923584204,0.9750190593158115,47.22222222222222,0.9444444444255556,1.1322160148975802,3.064696120578386e-13,0.9994873905938408,0
58,47.766666666666666,0.8444444444444414,0.7611111111111128,0.74583333333333,1.1322160148975802,0.030178103036102726,1.0396862377093385,52.77777777777778,1.0555555555344445,1.020484171322167,2.160346147849282e-13,0.9984167407464615,0
59,48.52777777777778,0.7611111111111128,0.7805555555555515,0.7541666666666664,1.0092081031307576,0.029822745975722733,1.0274435912875959,52.77777777777778,1.0555555555344445,1.0349907918968642,1.1133614863378938e-11,0.9980056448146788,0
60,49.30833333333333,0.7805555555555515,0.6722222222222243,0.7541666666666664,1.0349907918968642,0.030595942938839295,1.0540815227914164,52.77777777777778,1.0555555555344445,0.8913443830570933,3.385085180912517e-12,0.9992975728804181,0
61,49.980555555555554,0.6722222222222243,0.8250000000000028,0.7541666666666664,0.8913443830570933,0.028930799964563995,0.9967145560174836,50.0,0.9999999999800001,1.0939226519337057,3.4377795055107185e-10,0.999671784813851,0
62,50.80555555555556,0.8250000000000028,0.7694444444444457,0.7541666666666664,1.0939226519337057,0.029767744667105314,1.0255487040060087,50.0,0.9999999999800001,1.0202578268876632,7.419861573028028e-14,0.9977162259989675,0
63,51.575,0.7694444444444457,0.6277777777777729,0.7611111111111128,1.0109489051094884,0.028815254320678024,0.9927338148942993,50.0,0.9999999999800001,0.8248175182481668,7.366080401888242e-14,0.9978619532938529,0
64,52.202777777777776,0.6277777777777729,1.0555555555555571,0.7611111111111128,0.8248175182481668,0.027840665823628107,0.9591576074500993,50.0,0.9999999999800001,1.3868613138686121,1.688951556388929e-06,0.9990691556154732,0
65,53.25833333333333,1.0555555555555571,0.7916666666666643,0.7652777777777793,1.3793103448275856,0.02942276409818112,1.013663545109224,50.0,0.9999999999800001,1.0344827586206846,5.317804054387164e-19,0.998891710795473,0
66,54.05,0.7916666666666643,1.0222222222222257,0.7749999999999986,1.021505376344085,0.02829220756248009,0.9747139772813681,50.0,0.9999999999800001,1.3189964157706162,3.927001432368904e-11,0.9992740200536844,0
67,55.07222222222222,1.0222222222222257,0.5666666666666629,0.7861111111111079,1.300353356890469,0.030234113753241317,1.0416159008065702,50.0,0.9999999999800001,0.7208480565371006,4.6929120115976275e-18,0.9987131507867782,0
68,55.638888888888886,0.5666666666666629,0.6972222222222229,0.7749999999999986,0.7311827956989212,0.02957103356629707,1.0187716768326864,52.77777777777778,1.0555555555344445,0.8996415770609344,1.704682262015922e-07,0.9976312878905638,0
69,56.33611111111111,0.6972222222222229,1.0361111111111114,0.7749999999999986,0.8996415770609344,0.02950638782486362,1.016544522673445,50.0,0.9999999999800001,1.3369175627240173,1.5199167080481857e-07,0.9972255269653707,0
70,57.37222222222222,1.0361111111111114,0.81111111111111,0.780555555555555,1.3274021352313181,0.028825004835455432,0.9930697364733503,47.22222222222222,0.9444444444255556,1.039145907473309,1.366173050656229e-19,0.9979966672255218,0
71,58.18333333333333,0.81111111111111,0.6472222222222257,0.8013888888888872,1.0121317157712313,0.028679564855844233,0.9880590853720007,47.22222222222222,0.9444444444255556,0.807625649913351,6.667563310517666e-16,0.9984391382416404,0
72,58.830555555555556,0.6472222222222257,1.1638888888888914,0.780555555555555,0.8291814946619267,0.029486593444375507,1.0158625730839412,50.0,0.9999999999800001,1.4911032028469793,3.4670636523514986e-05,0.999572169724765,0
73,59.99444444444445,1.1638888888888914,0.6749999999999972,0.8013888888888872,1.4523396880416009,0.028937498864538273,0.9969453443510882,50.0,0.9999999999800001,0.8422876949740018,8.346271565757264e-22,0.9988457268129243,0
74,60.669444444444444,0.6749999999999972,0.5777777777777757,0.8013888888888872,0.8422876949740018,0.028543943684360737,0.9833867086701013,50.0,0.9999999999800001,0.7209705372616975,1.5897146446453014e-11,0.9967954378343423,0
75,61.24722222222222,0.5777777777777757,0.6972222222222229,0.7444444444444436,0.7761194029850728,0.029941881330225694,1.0315480039590341,50.0,0.9999999999800001,0.9365671641791065,3.3070485017105966e-08,0.9992384695509802,0
76,61.94444444444444,0.6972222222222229,0.68888888888889,0.6972222222222229,1.0,0.029220796094706233,1.0067054088267922,47.22222222222222,0.9444444444255556,0.9880478087649409,5.1085724192545534e-12,0.9975267145064761,0
77,62.63333333333333,0.68888888888889,0.81666666666667,0.6930555555555564,0.9939879759519041,0.027708073301566098,0.9545895727977514,50.0,0.9999999999800001,1.178356713426857,2.6908095196453985e-10,0.9977552224296724,0
78,63.45,0.81666666666667,0.5888888888888886,0.6972222222222229,1.1713147410358602,0.029957649482072336,1.0320912432225973,50.0,0.9999999999800001,0.8446215139442219,2.681516846677473e-13,0.9968610472436604,0
79,64.03888888888889,0.5888888888888886,0.8305555555555486,0.6930555555555564,0.8496993987975937,0.030681235526754877,1.0570199954226602,52.77777777777778,1.0555555555344445,1.198396793587163,3.056717332583503e-06,0.9966977706478639,0
80,64.86944444444444,0.8305555555555486,0.7777777777777857,0.6930555555555564,1.198396793587163,0.030091998928005605,1.0367198068474743,50.0,0.9999999999800001,1.122244488977966,7.608742195325258e-13,0.9995123668983013,0
81,65.64722222222223,0.7777777777777857,0.6861111111111029,0.6930555555555564,1.122244488977966,0.028896490867431214,0.9955325501082815,50.0,0.9999999999800001,0.9899799599198266,4.188447548861274e-13,0.9976887938147914,0
82,66.33333333333333,0.6861111111111029,0.9750000000000085,0.6930555555555564,0.9899799599198266,0.02808554791552009,0.9675942060161848,50.0,0.9999999999800001,1.4068136272545195,2.7272083258367275e-08,0.9997287005069743,0
83,67.30833333333334,0.9750000000000085,0.5694444444444429,0.6930555555555564,1.4068136272545195,0.03112378613841132,1.072266605850049,50.0,0.9999999999800001,0.821643286573143,1.3588991924448103e-15,0.9982253759817693,0
84,67.87777777777778,0.5694444444444429,0.86944444444444,0.6930555555555564,0.821643286573143,0.052841347658763506,1.8204730057786254,119.44444444444444,2.388888888841111,1.2545090180360643,0.9986361861228943,0.8769001974485099,1
85,68.74722222222222,0.86944444444444,0.7416666666666742,0.7375000000000043,1.1789077212805898,0.026261970026857945,0.9047688908542306,47.22222222222222,0.9444444444255556,1.0056497175141288,4.643248087619944e-18,0.9982017784217236,0
86,69.4888888888889,0.7416666666666742,0.8194444444444429,0.75972222222223,0.9762340036563072,0.029508562899557507,1.0166194576427676,50.0,0.9999999999800001,1.0786106032906633,6.977372239008739e-12,0.9993013988425088,0
87,70.30833333333334,0.8194444444444429,0.5694444444444429,0.7972222222222278,1.0278745644599212,0.027410336691990535,0.944332047496455,47.22222222222222,0.9444444444255556,0.7142857142857073,2.5247224854316987e-17,0.998662750747902,0
88,70.87777777777778,0.5694444444444429,0.87777777777778,0.75972222222223,0.7495429616087654,0.029104133912703875,1.0026862010938247,50.0,0.9999999999800001,1.1553930530164445,1.5877888017712394e-06,0.9994914321490045,0
89,71.75555555555556,0.87777777777778,0.75,0.7986111111111143,1.0991304347826072,0.03149853922969267,1.0851774780502708,52.77777777777778,1.0555555555344445,0.9391304347826049,1.341212975099551e-13,0.9980832041702501,0
90,72.50555555555556,0.75,0.9416666666666629,0.7638888888888928,0.9818181818181767,0.028406288585256744,0.9786442597521648,50.0,0.9999999999800001,1.2327272727272613,9.362118719158374e-11,0.997830299533252,0
91,73.44722222222222,0.9416666666666629,0.5888888888888886,0.7847222222222214,1.1999999999999964,0.030590388610134026,1.0538901668566953,52.77777777777778,1.0555555555344445,0.7504424778761065,4.3186550798164636e-15,0.9969986638224868,0
92,74.03611111111111,0.5888888888888886,0.8083333333333371,0.7847222222222214,0.7504424778761065,0.029431909340061978,1.0139786140223588,52.77777777777778,1.0555555555344445,1.0300884955752272,2.2171205671384087e-07,0.999076270573441,0
93,74.84444444444445,0.8083333333333371,0.6388888888888857,0.7791666666666686,1.0374331550802163,0.027662676694524543,0.9530255835859928,47.22222222222222,0.9444444444255556,0.8199643493761081,1.3632234279894415e-16,0.9986740221671333,0
94,75.48333333333333,0.6388888888888857,0.8388888888888886,0.7791666666666686,0.8199643493761081,0.028898046240322953,0.9955861353117024,50.0,0.9999999999800001,1.0766488413547206,5.011931758502897e-09,0.9994494262107758,0
95,76.32222222222222,0.8388888888888886,0.6083333333333343,0.7791666666666686,1.0766488413547206,0.030113853341614576,1.0374727280312634,52.77777777777778,1.0555555555344445,0.7807486631016036,1.134981729910764e-13,0.9977961898435794,0
96,76.93055555555556,0.6083333333333343,0.8138888888888829,0.7791666666666686,0.7807486631016036,0.052187418647896125,1.7979440551608765,116.66666666666667,2.333333333286667,1.0445632798573872,0.9968736171722412,0.8454881538325921,1
97,77.74444444444444,0.8138888888888829,0.88333333333334,0.7791666666666686,1.0445632798573872,0.031216342893807193,1.0754553412280479,52.77777777777778,1.0555555555344445,1.1336898395721984,3.23916622690934e-11,0.9984503386411407,0
98,78.62777777777778,0.88333333333334,0.5888888888888886,0.81111111111111,1.0890410958904206,0.02708091410278852,0.9329828870812302,47.22222222222222,0.9444444444255556,0.7260273972602745,5.774954725696486e-19,0.9991412574709329,0
99,79.21666666666667,0.5888888888888886,0.73888888888888,0.7791666666666686,0.7557932263814594,0.0533031270346233,1.8363820793663548,113.88888888888889,2.277777777732222,0.9483065953654053,0.9958337545394897,0.8728322453151076,1
100,79.95555555555555,0.73888888888888,0.8416666666666686,0.7736111111111086,0.9551166965888607,0.028951270208246442,0.9974197902269942,47.22222222222222,0.9444444444255556,1.0879712746858228,1.5349368911315997e-12,0.9986548887764579,0
101,80.79722222222222,0.8416666666666686,0.7416666666666742,0.7736111111111086,1.0879712746858228,0.03004076173687978,1.0349545997233327,50.0,0.9999999999800001,0.9587073608617723,1.746243632279234e-14,0.9983733825286757,0
102,81.53888888888889,0.7416666666666742,0.6749999999999972,0.7750000000000057,0.9569892473118308,0.026209958435402494,0.9029770043405918,47.22222222222222,0.9444444444255556,0.8709677419354738,3.3724921197395388e-16,0.9987825914570372,0
103,82.21388888888889,0.6749999999999972,0.6861111111111171,0.7402777777777771,0.9118198874296405,0.028411948580122047,0.9788392560632293,50.0,0.9999999999800001,0.9268292682926919,5.930321771846492e-12,0.9995230050669979,0
104,82.9,0.6861111111111171,0.5833333333333286,0.7402777777777771,0.9268292682926919,0.028042461854638042,0.9661098189928329,50.0,0.9999999999800001,0.7879924953095627,3.942788478518422e-13,0.9998289620687264,0
105,83.48333333333333,0.5833333333333286,0.9027777777777715,0.7124999999999986,0.8187134502923926,0.030836947891283408,1.062384547404202,55.55555555555556,1.111111111088889,1.2670565302144186,1.928804886119906e-05,0.9977782359068608,0
106,84.3861111111111,0.9027777777777715,0.8250000000000028,0.7402777777777771,1.2195121951219436,0.02900841540904478,0.9993885381880603,50.0,0.9999999999800001,1.1144465290806802,1.5227486104869717e-15,0.999643153463518,0
107,85.21111111111111,0.8250000000000028,0.8111111111111171,0.7402777777777771,1.1144465290806802,0.027558247076725967,0.9494278081955205,47.22222222222222,0.9444444444255556,1.0956848030018853,2.3513374153148097e-15,0.9979930348300745,0
108,86.02222222222223,0.8111111111111171,0.6055555555555543,0.7402777777777771,1.0956848030018853,0.029137806641255284,1.003846283038642,50.0,0.9999999999800001,0.8180112570356463,1.2650694565258941e-14,0.999429428457941,0
109,86.62777777777778,0.6055555555555543,0.74444444444444,0.7402777777777771,0.8180112570356463,0.028029263366196728,0.9656551089411578,50.0,0.9999999999800001,1.0056285178236346,1.3143663935011318e-09,0.9994659411797847,0
110,87.37222222222222,0.74444444444444,0.75555555555556,0.7430555555555571,1.0018691588784967,0.0308558441397935,1.0630355548415076,52.77777777777778,1.0555555555344445,1.0168224299065458,1.1269243871403489e-10,0.9978497471182881,0
111,88.12777777777778,0.75555555555556,0.7055555555555486,0.7430555555555571,1.0168224299065458,0.03248044671595931,1.1190058369419447,55.55555555555556,1.111111111088889,0.9495327102803625,4.169692591204921e-09,0.9970751005680545,0
112,88.83333333333333,0.7055555555555486,0.8500000000000085,0.7249999999999943,0.9731800766283505,0.029643378204643304,1.0212640708963776,50.0,0.9999999999800001,1.1724137931034693,1.2030607621227318e-09,0.9976122967368846,0
113,89.68333333333334,0.8500000000000085,0.9666666666666686,0.75,1.1333333333333446,0.030501468163430544,1.050826708408761,52.77777777777778,1.0555555555344445,1.2888888888888914,6.554762982391438e-11,0.998581383312688,0
114,90.65,0.9666666666666686,1.0,0.7833333333333385,1.2340425531914836,0.030833752575759685,1.0622744634280428,50.0,0.9999999999800001,1.2765957446808425,4.059410143100739e-14,0.9983295995899651,0
115,91.65,1.0,0.6999999999999886,0.81805555555556,1.2224108658743567,0.02923309315193363,1.007129063062062,52.77777777777778,1.0555555555344445,0.8556876061120358,2.4125283393564363e-17,0.9971080094914171,0
116,92.35,0.6999999999999886,0.8944444444444457,0.7833333333333385,0.8936170212765753,0.03836211648357415,1.321639219988739,77.77777777777777,1.5555555555244445,1.1418439716311997,0.9618366360664368,0.9751360085288032,1
117,93.24444444444444,0.8944444444444457,0.7805555555555657,0.7833333333333385,1.1418439716311997,0.031018343236225234,1.0686339211138396,52.77777777777778,1.0555555555344445,0.9964539007092261,7.063746560332512e-14,0.9967570753929754,0
118,94.025,0.7805555555555657,0.74722222222222,0.7680555555555628,1.0162748643761337,0.029525033819491755,1.017186908445012,52.77777777777778,1.0555555555344445,0.972875226039771,1.3721243108735792e-12,0.9977609819011604,0
119,94.77222222222223,0.74722222222222,0.8222222222222229,0.7680555555555628,0.972875226039771,0.051545254020270964,1.7758204072666766,116.66666666666667,2.333333333286667,1.070524412296555,0.997512936592102,0.8653595879836867,1
120,95.59444444444445,0.8222222222222229,0.6583333333333314,0.8013888888888943,1.025996533795488,0.0280927618703621,0.9678427388533788,47.22222222222222,0.9444444444255556,0.8214904679376005,1.3120098307649764e-16,0.9986839387889168,0
121,96.25277777777778,0.6583333333333314,0.5583333333333371,0.8013888888888943,0.8214904679376005,0.027440853630683507,0.94538340719054,47.22222222222222,0.9444444444255556,0.6967071057192376,3.060910628693153e-13,0.9985072122948782,0
122,96.81111111111112,0.5583333333333371,1.0083333333333258,0.8013888888888943,0.6967071057192376,0.05294235197718674,1.823952773863724,122.22222222222223,2.4444444443955557,1.2582322357018885,0.9963924288749695,0.8538888105007498,1
123,97.81944444444444,1.0083333333333258,0.6611111111111114,0.8013888888888943,1.2582322357018885,0.030567512853884128,1.0531020587068305,50.0,0.9999999999800001,0.824956672443669,1.7561578763176487e-17,0.9984552483730047,0
124,98.48055555555555,0.6611111111111114,0.5361111111111114,0.7638888888888928,0.8654545454545414,0.027768200207705204,0.956661045506095,47.22222222222222,0.9444444444255556,0.7018181818181786,2.693968908628469e-13,0.9982575885731149,0
125,99.01666666666667,0.5361111111111114,0.7249999999999943,0.7236111111111043,0.7408829174664181,0.048986982855073635,1.6876836771480763,113.88888888888889,2.277777777732222,1.0019193857965467,0.9962828755378723,0.8755944045385442,1
126,99.74166666666666,0.7249999999999943,0.9500000000000028,0.7361111111111072,0.984905660377356,0.02925260255023899,1.0078011945376488,52.77777777777778,1.0555555555344445,1.2905660377358599,7.379979738431075e-09,0.9984312364376589,0
127,100.69166666666666,0.9500000000000028,0.5499999999999972,0.7361111111111072,1.2905660377358599,0.027809626075266672,0.9580882360865401,47.22222222222222,0.9444444444255556,0.7471698113207549,4.160701937529478e-19,0.9991410146990266,0
128,101.24166666666666,0.5499999999999972,0.9805555555555685,0.6930555555555529,0.7935871743486964,0.05009745374113616,1.7259412606759374,113.88888888888889,2.277777777732222,1.4148296593186613,0.9990164041519165,0.8798705833454568,1
129,102.22222222222223,0.9805555555555685,0.6972222222222229,0.6930555555555529,1.4148296593186613,0.028065053196306186,0.9668881285835867,50.0,0.9999999999800001,1.006012024048101,1.4741807736128146e-17,0.997444897448741,0
130,102.91944444444445,0.6972222222222229,0.8444444444444343,0.6791666666666671,1.0265848670756648,0.02940836176592207,1.0131673606200022,50.0,0.9999999999800001,1.2433537832310682,8.719042376981179e-09,0.9973420536993968,0
131,103.76388888888889,0.8444444444444343,0.8472222222222285,0.7111111111111086,1.18749999999999,0.029793754383109248,1.026444782322915,50.0,0.9999999999800001,1.191406250000013,1.39633693062996e-12,0.9983372519967622,0
132,104.61111111111111,0.8472222222222285,0.6416666666666657,0.7847222222222143,1.079646017699134,0.029075168693287568,1.0016883007299968,50.0,0.9999999999800001,0.8176991150442549,1.7011416901126079e-15,0.9987288039749175,0
133,105.25277777777778,0.6416666666666657,0.8111111111111029,0.7111111111111086,0.9023437500000019,0.029234185861029348,1.0071667087221379,52.77777777777778,1.0555555555344445,1.1406249999999925,5.78522607597165e-09,0.9986965510087755,0
134,106.06388888888888,0.8111111111111029,0.6194444444444542,0.7680555555555486,1.0560578661844473,0.029221467737869242,1.0067285480596457,50.0,0.9999999999800001,0.8065099457504721,3.219942555318135e-14,0.996513399077422,0
135,106.68333333333334,0.6194444444444542,0.7861111111111114,0.7680555555555486,0.8065099457504721,0.027120051886700206,0.9343312493443832,47.22222222222222,0.9444444444255556,1.0235081374321977,2.454331737844484e-10,0.9989461380086981,0
136,107.46944444444445,0.7861111111111114,0.7083333333333286,0.7986111111111072,0.9843478260869618,0.029406660728218025,1.0131087570196167,50.0,0.9999999999800001,0.8869565217391289,7.154472598126099e-14,0.9987070303631519,0
137,108.17777777777778,0.7083333333333286,0.8083333333333371,0.74722222222222,0.947955390334569,0.026997567060768217,0.9301114417674335,44.44444444444444,0.8888888888711112,1.0817843866171086,1.0474444662317284e-13,0.9979015798866089,0
138,108.98611111111111,0.8083333333333371,0.8083333333333371,0.7972222222222243,1.0139372822299673,0.029808531456588544,1.0269538772753601,50.0,0.9999999999800001,1.0139372822299673,2.1150285299184612e-13,0.9970801133329974,0
139,109.79444444444445,0.8083333333333371,0.61944444444444,0.7972222222222243,1.0139372822299673,0.02903489038980632,1.0003006456557981,50.0,0.9999999999800001,0.77700348432055,4.806591797214092e-15,0.9996342934706813,0
140,110.41388888888889,0.61944444444444,0.7583333333333258,0.7972222222222243,0.77700348432055,0.028876590061159498,0.994846933972129,52.77777777777778,1.0555555555344445,0.95121951219511,1.1315175463266769e-08,0.9977851407693772,0
141,111.17222222222222,0.7583333333333258,0.8527777777777885,0.7722222222222186,0.9820143884892034,0.030966494265248286,1.066847637148289,52.77777777777778,1.0555555555344445,1.104316546762609,3.7805694685921765e-10,0.9970686123027965,0
142,112.025,0.8527777777777885,0.86666666666666,0.7722222222222186,1.104316546762609,0.02857031633468389,0.9842952906826983,50.0,0.9999999999800001,1.122302158273378,1.5548189295842667e-14,0.9979544522628534,0
143,112.89166666666667,0.86666666666666,0.9805555555555543,0.7972222222222243,1.087108013937271,0.029655224193834477,1.0216721850816655,47.22222222222222,0.9444444444255556,1.2299651567944203,5.786648287278706e-13,0.9941512407433437,0
144,113.87222222222222,0.9805555555555543,0.6749999999999972,0.7972222222222243,1.2299651567944203,0.029685876326952586,1.0227282024503255,50.0,0.9999999999800001,0.8466898954703775,1.221849824061881e-17,0.9989447487773823,0
145,114.54722222222222,0.6749999999999972,0.7277777777777885,0.7972222222222243,0.8466898954703775,0.02926389066377416,1.0081900889714104,47.22222222222222,0.9444444444255556,0.9128919860627289,6.69639621531104e-11,0.9963055349609755,0
146,115.275,0.7277777777777885,1.1972222222222229,0.7833333333333314,0.9290780141844132,0.02862633344090583,0.9862251738945614,47.22222222222222,0.9444444444255556,1.5283687943262456,6.301108328443661e-07,0.99312777031895,0
147,116.47222222222223,1.1972222222222229,0.8194444444444429,0.8083333333333371,1.4810996563573822,0.02939651619431442,1.0127592608211666,50.0,0.9999999999800001,1.0137457044673472,3.5180545800215584e-22,0.9989134276882896,0
148,117.29166666666667,0.8194444444444429,0.625,0.81388888888889,1.0068259385665497,0.026440615188077467,0.9109235161244507,47.22222222222222,0.9444444444255556,0.7679180887372004,3.0393138606066524e-18,0.9992146407776884,0
149,117.91666666666667,0.625,1.2333333333333343,0.7888888888888843,0.7922535211267652,0.02919715297365125,1.0058908636730444,50.0,0.9999999999800001,1.5633802816901512,0.00029601241112686694,0.998565026175861,0
150,119.15,1.2333333333333343,0.5611111111111029,0.8361111111111157,1.4750830564783983,0.02889949863351765,0.9956361726919335,50.0,0.9999999999800001,0.6710963455149367,1.928108896536592e-23,0.9990118305636853,0
151,119.71111111111111,0.5611111111111029,0.9027777777777857,0.8361111111111157,0.6710963455149367,0.02569083587224216,0.8850923618249071,47.22222222222222,0.9444444444255556,1.0797342192691066,9.131471045975559e-08,0.9957946311382807,0
152,120.6138888888889,0.9027777777777857,0.7583333333333258,0.8430555555555515,1.0708401976935895,0.03062071705743118,1.0549350327062228,52.77777777777778,1.0555555555344445,0.8995057660625984,1.2025829042707024e-14,0.9966758725465313,0
153,121.37222222222222,0.7583333333333258,0.9194444444444514,0.7888888888888843,0.9612676056337988,0.029254326420090404,1.0078605847437851,50.0,0.9999999999800001,1.1654929577464945,2.6790297411039e-11,0.9992760133494425,0
154,122.29166666666667,0.9194444444444514,0.62222222222222,0.7888888888888843,1.1654929577464945,0.029474314592893788,1.0154395460671288,50.0,0.9999999999800001,0.7887323943661989,1.2298796633146273e-16,0.9987856289223381,0
155,122.91388888888889,0.62222222222222,0.7999999999999972,0.7888888888888843,0.7887323943661989,0.029726596092342527,1.0241310666273093,47.22222222222222,0.9444444444255556,1.0140845070422557,3.752719734961829e-08,0.9963362134075594,0
156,123.71388888888889,0.7999999999999972,0.88333333333334,0.80972222222222,0.9879931389365344,0.027787378517706636,0.9573217704346022,47.22222222222222,0.9444444444255556,1.0909090909091022,8.874869867052815e-15,0.9987224036703746,0
157,124.59722222222223,0.88333333333334,0.9499999999999886,0.80972222222222,1.0909090909091022,0.03003334484306678,1.0346990752983978,50.0,0.9999999999800001,1.1732418524871246,5.855325989692628e-14,0.9991638144677886,0
158,125.54722222222222,0.9499999999999886,0.7277777777777885,0.8416666666666686,1.1287128712871126,0.02682086980979269,0.9240239252704373,47.22222222222222,0.9444444444255556,0.8646864686468755,3.042396465481605e-20,0.9987035168941277,0
159,126.275,0.7277777777777885,0.6111111111111001,0.8416666666666686,0.8646864686468755,0.02708802829954431,0.9332279830851277,47.22222222222222,0.9444444444255556,0.7260726072607113,1.1301358374788632e-14,0.9963782501548311,0
160,126.8861111111111,0.6111111111111001,0.6166666666666742,0.7791666666666615,0.7843137254901872,0.030125655897606043,1.0378793458700137,52.77777777777778,1.0555555555344445,0.7914438502673947,2.1156877139105745e-08,0.9976733133820652,0
161,127.50277777777778,0.6166666666666742,0.6416666666666657,0.7791666666666615,0.7914438502673947,0.030795579381710545,1.0609593329026146,52.77777777777778,1.0555555555344445,0.8235294117647102,3.8877690400340725e-08,0.9982587830180719,0
162,128.14444444444445,0.6416666666666657,0.8722222222222342,0.7430555555555571,0.8635514018691558,0.02669489468863962,0.9196838711722747,47.22222222222222,0.9444444444255556,1.1738317757009482,5.288343651876914e-10,0.9973621874153363,0
163,129.01666666666668,0.8722222222222342,0.9444444444444287,0.7638888888888928,1.1418181818181916,0.02981908491574338,1.027317461634204,50.0,0.9999999999800001,1.2363636363636092,2.9967760044324887e-13,0.9994925387874706,0
164,129.9611111111111,0.9444444444444287,0.9111111111111256,0.7638888888888928,1.2363636363636092,0.03164810048167247,1.0903301138932844,52.77777777777778,1.0555555555344445,1.1927272727272855,6.47080858947463e-13,0.9965454437239001,0
165,130.87222222222223,0.9111111111111256,0.9055555555555372,0.8361111111111157,1.0897009966777522,0.027928906484823487,0.9621976461477423,50.0,0.9999999999800001,1.0830564784052878,6.625395760472081e-17,0.9995474949589591,0
166,131.77777777777777,0.9055555555555372,0.6083333333333485,0.8777777777777871,1.0316455696202214,0.029151695913039906,1.004324791734467,50.0,0.9999999999800001,0.6930379746835542,3.5316307508106556e-17,0.9995187186983977,0
167,132.38611111111112,0.6083333333333485,0.8416666666666686,0.8000000000000114,0.7604166666666748,0.03035039788082209,1.0456220839309744,55.55555555555556,1.111111111088889,1.0520833333333208,5.650039156535058e-07,0.9993474721409232,0
168,133.2277777777778,0.8416666666666686,0.7555555555555316,0.7847222222222285,1.0725663716814098,0.02850576165607244,0.982071273790325,50.0,0.9999999999800001,0.9628318584070413,1.2464918852344155e-15,0.9990148666411097,0
169,133.98333333333332,0.7555555555555316,0.7666666666666799,0.7986111111111001,0.9460869565217221,0.02806411375998829,0.9668557634276407,50.0,0.9999999999800001,0.9600000000000299,8.65379206553378e-14,0.9996135616459294,0
170,134.75,0.7666666666666799,0.76111111111112,0.8041666666666742,0.9533678756476759,0.02789065919168918,0.9608799627846163,50.0,0.9999999999800001,0.9464594127806584,2.9007534357384027e-14,0.9993703141391269,0
171,135.51111111111112,0.76111111111112,0.8972222222222115,0.8041666666666742,0.9464594127806584,0.03164469662272578,1.0902128452466187,52.77777777777778,1.0555555555344445,1.1157167530224286,1.1029341884238875e-09,0.9981005235014779,0
172,136.40833333333333,0.8972222222222115,0.7166666666666686,0.8569444444444514,1.047001620745522,0.03056078488617216,1.0528702689409357,50.0,0.9999999999800001,0.83630470016207,1.7332385213411519e-15,0.9973733499651034,0
173,137.125,0.7166666666666686,0.6027777777777885,0.8041666666666742,0.8911917098445535,0.03072287185122689,1.0584544365964665,52.77777777777778,1.0555555555344445,0.749568221070818,1.6259313340150072e-10,0.9985224949726588,0
174,137.7277777777778,0.6027777777777885,0.6305555555555316,0.7638888888888999,0.7890909090909117,0.028721034709749384,0.9894877913557208,50.0,0.9999999999800001,0.8254545454545021,9.582713511591123e-10,0.9992328998165516,0
175,138.35833333333332,0.6305555555555316,0.8944444444444457,0.7583333333333258,0.8315018315018081,0.03051464896989742,1.0512808092867763,52.77777777777778,1.0555555555344445,1.1794871794871928,7.834387361072004e-07,0.9978669951424266,0
176,139.25277777777777,0.8944444444444457,1.0611111111111313,0.7583333333333258,1.1794871794871928,0.029208405843340408,1.0062785438972306,47.22222222222222,0.9444444444255556,1.3992673992674398,1.258426089029152e-12,0.9970992980934561,0
177,140.3138888888889,1.0611111111111313,0.6361111111110915,0.7638888888888999,1.3890909090909154,0.028939237972833144,0.997005259547146,47.22222222222222,0.9444444444255556,0.832727272727235,2.9339582570547314e-20,0.9979158882513013,0
178,140.95,0.6361111111110915,1.0194444444444457,0.7583333333333258,0.8388278388278214,0.02974607406503746,1.0248021154379376,50.0,0.9999999999800001,1.3443223443223595,3.993278824054869e-06,0.998556046643726,0
179,141.96944444444443,1.0194444444444457,0.7111111111111086,0.7638888888888999,1.334545454545437,0.030601102068007098,1.0542592634395913,50.0,0.9999999999800001,0.9309090909090741,1.247427654809062e-17,0.999490999550456,0
180,142.68055555555554,0.7111111111111086,0.9444444444444571,0.7388888888888943,0.9624060150375836,0.028984569960268665,0.9985670225051537,50.0,0.9999999999800001,1.2781954887218123,2.501399087861955e-09,0.9990542594489153,0
181,143.625,0.9444444444444571,0.8722222222222342,0.8055555555555571,1.1724137931034617,0.0305391169435501,1.0521237719952306,52.77777777777778,1.0555555555344445,1.082758620689668,4.926963225831927e-15,0.9979880358645923,0
182,144.49722222222223,0.8722222222222342,0.7749999999999773,0.7944444444444514,1.0979020979021035,0.027425391467785266,0.9448507097591843,47.22222222222222,0.9444444444255556,0.9755244755244383,8.254969691342372e-18,0.9994593773869078,0
183,145.2722222222222,0.7749999999999773,0.8055555555555713,0.8236111111111057,0.940978077571648,0.02984826446873748,1.0283227461490785,50.0,0.9999999999800001,0.9780775716695028,1.2221255908315132e-12,0.9979538434407557,0
184,146.07777777777778,0.8055555555555713,1.0250000000000057,0.8388888888889028,0.9602649006622546,0.02910892719193531,1.002851337598411,47.22222222222222,0.9444444444255556,1.2218543046357482,7.867346531187369e-12,0.9963548771511517,0
185,147.1027777777778,1.0250000000000057,0.8916666666666515,0.88333333333334,1.1603773584905637,0.03029243463993582,1.0436251531175833,50.0,0.9999999999800001,1.0094339622641262,2.9848175474904338e-18,0.9979505092381821,0
186,147.99444444444444,0.8916666666666515,0.9055555555555657,0.8819444444444429,1.0110236220472286,0.02948731214411508,1.0158873334947394,52.77777777777778,1.0555555555344445,1.0267716535433205,1.7860596018110485e-14,0.9972865987763166,0
187,148.9,0.9055555555555657,0.6666666666666572,0.8819444444444429,1.0267716535433205,0.02978636154598455,1.0261900866912188,50.0,0.9999999999800001,0.7559055118110143,2.320124621785403e-16,0.9978136046585231,0
188,149.56666666666666,0.6666666666666572,0.7111111111111086,0.8819444444444429,0.7559055118110143,0.027839136570532913,0.9591049221174545,47.22222222222222,0.9444444444255556,0.8062992125984237,1.913955452459426e-11,0.9985100477522961,0
189,150.27777777777777,0.7111111111111086,0.5666666666666629,0.8388888888889028,0.8476821192052809,0.02813764669586399,0.969389096333187,47.22222222222222,0.9444444444255556,0.6754966887417061,8.223069713217748e-14,0.9983248359150982,0
190,150.84444444444443,0.5666666666666629,0.9138888888888914,0.8388888888889028,0.6754966887417061,0.02837516907334235,0.9775721404004972,50.0,0.9999999999800001,1.0894039735099188,2.3530114958703052e-06,0.9993445273965693,0
191,151.75833333333333,0.9138888888888914,0.7750000000000057,0.8388888888889028,1.0894039735099188,0.028547038959178893,0.9834933460762535,47.22222222222222,0.9444444444255556,0.9238410596026405,5.7578214370662514e-18,0.9981652143340736,0
192,152.53333333333333,0.7750000000000057,0.6916666666666629,0.7902777777777885,0.9806678383128234,0.029011431479831783,0.9994924468825681,47.22222222222222,0.9444444444255556,0.8752196836555194,1.2049983034230927e-14,0.9983254251041497,0
193,153.225,0.6916666666666629,0.7416666666666742,0.7902777777777885,0.8752196836555194,0.028722299464501267,0.9895313642770551,50.0,0.9999999999800001,0.938488576449909,1.3984246052811677e-11,0.9993112666563119,0
194,153.96666666666667,0.7416666666666742,0.8111111111111029,0.75833333333334,0.9780219780219794,0.02935581507117132,1.0113570389008368,50.0,0.9999999999800001,1.0695970695970494,5.337017286444201e-12,0.9989987430120689,0
195,154.77777777777777,0.8111111111111029,0.5861111111111086,0.75833333333334,1.0695970695970494,0.03045926249374701,1.049372652338014,52.77777777777778,1.0555555555344445,0.7728937728937628,1.3552386209786382e-12,0.996980617879407,0
196,155.36388888888888,0.5861111111111086,1.0277777777777999,0.7263888888888914,0.8068833652007585,0.027539782393783466,0.9487916689154599,50.0,0.9999999999800001,1.4149139579350158,1.9563369278330356e-05,0.9965067263228506,0
197,156.39166666666668,1.0277777777777999,0.7749999999999773,0.7263888888888914,1.4149139579350158,0.029016574047661843,0.9996696169648959,50.0,0.9999999999800001,1.0669216061185118,3.144596374996636e-18,0.9988429085904749,0
198,157.16666666666666,0.7749999999999773,0.8888888888888857,0.7583333333333258,1.0219780219780021,0.027891301762983014,0.9609021004428431,47.22222222222222,0.9444444444255556,1.1721611721611798,3.233261911244484e-13,0.9986242708965976,0
199,158.05555555555554,0.8888888888888857,0.705555555555577,0.7749999999999915,1.1469534050179298,0.027368406041128873,0.9428874662851406,47.22222222222222,0.9444444444255556,0.9103942652330126,3.2479459750902364e-18,0.9988810059359403,0
200,158.76111111111112,0.705555555555577,0.6861111111111029,0.7749999999999915,0.9103942652330126,0.029972851975840476,1.0326149946171328,50.0,0.9999999999800001,0.885304659498207,2.015610595096362e-11,0.9984721694989334,0
201,159.44722222222222,0.6861111111111029,0.8333333333333428,0.7583333333333258,0.904761904761903,0.030363982695800484,1.0460901035794583,50.0,0.9999999999800001,1.0989010989011223,1.4663515957025197e-09,0.9990610403331567,0
202,160.28055555555557,0.8333333333333428,0.6555555555555372,0.7583333333333258,1.0989010989011223,0.03017749366103287,1.0396652437166751,52.77777777777778,1.0555555555344445,0.864468864468849,1.8647980566405958e-13,0.9988760784415276,0
203,160.9361111111111,0.6555555555555372,0.6777777777777771,0.7583333333333258,0.864468864468849,0.027571445802327867,0.9498825264177754,47.22222222222222,0.9444444444255556,0.8937728937729019,1.4380972541278014e-12,0.9988414154683287,0
204,161.61388888888888,0.6777777777777771,0.5972222222222285,0.7402777777777771,0.9155722326454033,0.027270545667497818,0.9395160123683857,47.22222222222222,0.9444444444255556,0.8067542213883769,3.460349818100103e-14,0.9991542947250478,0
205,162.2111111111111,0.5972222222222285,0.75,0.69583333333334,0.8582834331337335,0.05374769393978634,1.851698154484996,111.11111111111111,2.222222222177778,1.0778443113772351,0.9971466660499573,0.8750100041444879,1
206,162.9611111111111,0.75,0.8000000000000114,0.7277777777777885,1.030534351145023,0.03187902236987137,1.098285760040394,52.77777777777778,1.0555555555344445,1.0992366412213734,1.7139039076852214e-09,0.9981233959983211,0
207,163.76111111111112,0.8000000000000114,0.8194444444444287,0.7277777777777885,1.0992366412213734,0.028969683180788307,0.99805414799707,50.0,0.9999999999800001,1.1259541984732442,4.0861736737285437e-13,0.9993016308514058,0
208,164.58055555555555,0.8194444444444287,1.0583333333333371,0.7277777777777885,1.1259541984732442,0.0284695717756095,0.9808244717426067,50.0,0.9999999999800001,1.4541984732824265,3.809857429537544e-10,0.9975042821714147,0
209,165.63888888888889,1.0583333333333371,0.6527777777777715,0.7277777777777885,1.4541984732824265,0.028962946506907578,0.9978220582890671,47.22222222222222,0.9444444444255556,0.8969465648854743,6.231980027444218e-20,0.9979874426388187,0
210,166.29166666666666,0.6527777777777715,0.9166666666666856,0.7180555555555515,0.9090909090909055,0.029412651467133233,1.0133151480176328,50.0,0.9999999999800001,1.2765957446808847,1.6246067957581545e-07,0.9964321996492169,0
211,167.20833333333334,0.9166666666666856,0.74444444444444,0.7750000000000057,1.182795698924747,0.028651130856699274,0.987079486437015,50.0,0.9999999999800001,0.9605734767024963,3.759831352968315e-17,0.9997663251630347,0
212,167.95277777777778,0.74444444444444,0.8027777777777771,0.74722222222222,0.9962825278810379,0.029787569673121995,1.02623170869631,52.77777777777778,1.0555555555344445,1.0743494423791844,7.994337830607989e-11,0.9970270265876304,0
213,168.75555555555556,0.8027777777777771,0.7416666666666742,0.7750000000000057,1.0358422939068017,0.03183755234512517,1.0968570481709135,52.77777777777778,1.0555555555344445,0.9569892473118308,9.358935501579957e-12,0.9986756556336425,0
214,169.49722222222223,0.7416666666666742,0.9222222222222172,0.7750000000000057,0.9569892473118308,0.028261782974567107,0.973665799226463,47.22222222222222,0.9444444444255556,1.189964157706078,7.563327568405054e-12,0.9987463175697217,0
215,170.41944444444445,0.9222222222222172,0.9166666666666572,0.8013888888888943,1.150779896013851,0.030988721498238444,1.0676134025847241,50.0,0.9999999999800001,1.1438474870017137,1.171699659497337e-14,0.9992114257604324,0
216,171.3361111111111,0.9166666666666572,0.63611111111112,0.8111111111111029,1.1301369863013697,0.02668035861699827,0.9191830791371428,47.22222222222222,0.9444444444255556,0.7842465753424845,8.286953870497654e-20,0.9988322385554692,0
217,171.97222222222223,0.63611111111112,0.8277777777777828,0.8111111111111029,0.7842465753424845,0.030009548535283162,1.0338792526050586,52.77777777777778,1.0555555555344445,1.020547945205496,1.5793874297287402e-07,0.9960793057952344,0
218,172.8,0.8277777777777828,0.6416666666666515,0.81527777777778,1.015332197614995,0.028092165367479882,0.9678221883291576,50.0,0.9999999999800001,0.7870528109028754,3.7516240669305636e-16,0.9991637849731346,0
219,173.44166666666666,0.6416666666666515,0.8111111111111029,0.7736111111111086,0.8294434470376851,0.027742068817756323,0.9557607753178209,47.22222222222222,0.9444444444255556,1.0484739676840145,4.549264853714874e-10,0.9968812750741253,0
220,174.25277777777777,0.8111111111111029,0.8194444444444571,0.80694444444444,1.005163511187603,0.028637424098602364,0.986607265643683,47.22222222222222,0.9444444444255556,1.015490533562844,3.2071369418149552e-15,0.9993745038926192,0
221,175.07222222222222,0.8194444444444571,0.4555555555555486,0.80694444444444,1.015490533562844,0.027619130477818173,0.9515253434231251,47.22222222222222,0.9444444444255556,0.5645438898450892,1.9148624030032977e-17,0.9989548366892119,0
222,175.52777777777777,0.4555555555555486,1.0861111111111086,0.80694444444444,0.5645438898450892,0.02973418542271859,1.0243925317809004,69.44444444444444,1.3888888888611113,1.3459552495697116,0.33632808923721313,0.9836047709793831,0
223,176.61388888888888,1.0861111111111086,0.9027777777777999,0.81527777777778,1.3321976149914754,0.028394430572392968,0.9782357313312002,50.0,0.9999999999800001,1.1073253833049646,4.606160087762936e-20,0.9990131959912572,0
224,177.51666666666668,0.9027777777777999,0.6222222222222058,0.82361111111112,1.0961214165261532,0.028283130389402694,0.9744012534526177,47.22222222222222,0.9444444444255556,0.7554806070826027,6.228920648249902e-18,0.9968737433529771,0
225,178.13888888888889,0.6222222222222058,0.7055555555555486,0.81527777777778,0.7632027257239983,0.029951904835608237,1.0318933305220512,52.77777777777778,1.0555555555344445,0.8654173764906194,4.5985164121020716e-08,0.9969833894234542,0
226,178.84444444444443,0.7055555555555486,0.8694444444444684,0.7583333333333258,0.9304029304029305,0.0285974262266158,0.9852292719045688,50.0,0.9999999999800001,1.1465201465201895,1.1230556762331645e-10,0.9995567859612973,0
227,179.7138888888889,0.8694444444444684,0.8194444444444287,0.81527777777778,1.066439522998323,0.0302020392139923,1.0405108791622946,50.0,0.9999999999800001,1.0051107325383084,9.045079443737673e-15,0.9974346062216018,0
228,180.53333333333333,0.8194444444444287,1.0805555555555486,0.8152777777777658,1.005110732538326,0.028459706062711105,0.9804845813951789,50.0,0.9999999999800001,1.3253833049403858,1.3129393405808543e-11,0.9994637914558521,0
229,181.61388888888888,1.0805555555555486,0.7666666666666799,0.8194444444444429,1.3186440677966043,0.027865706731898882,0.960020308716568,47.22222222222222,0.9444444444255556,0.935593220339001,9.1303614402235e-22,0.9977835394752399,0
230,182.38055555555556,0.7666666666666799,0.8472222222222285,0.8194444444444429,0.935593220339001,0.028190699217671797,0.9712168446423954,50.0,0.9999999999800001,1.0338983050847554,2.4391654061123313e-13,0.9994405469600098,0
231,183.2277777777778,0.8472222222222285,0.9833333333333201,0.8333333333333286,1.01666666666668,0.030023733502330008,1.0343679484983468,50.0,0.9999999999800001,1.1799999999999908,1.2880969077824767e-12,0.9977257437192146,0
232,184.2111111111111,0.9833333333333201,0.6472222222222115,0.8583333333333485,1.1456310679611295,0.02848592794221133,0.9813879691001862,50.0,0.9999999999800001,0.7540453074433399,4.685504092224332e-19,0.9994960751457524,0
233,184.85833333333332,0.6472222222222115,0.7944444444444514,0.8333333333333286,0.7766666666666582,0.028013865871424466,0.9651246394351465,50.0,0.9999999999800001,0.9533333333333471,4.107943429865202e-10,0.9994994450560246,0
234,185.65277777777777,0.7944444444444514,0.7472222222222342,0.80694444444444,0.9845094664371913,0.025750839540580567,0.8871595887844309,47.22222222222222,0.9444444444255556,0.9259896729776448,2.287807039212426e-17,0.9982522582949473,0
235,186.4,0.7472222222222342,0.88055555555556,0.80694444444444,0.9259896729776448,0.028402928408969002,0.9785284960463261,50.0,0.9999999999800001,1.0912220309810785,4.356627905655053e-12,0.9991554520387893,0
236,187.28055555555557,0.88055555555556,0.799999999999983,0.8333333333333286,1.056666666666678,0.028101340006209802,0.968138270013021,47.22222222222222,0.9444444444255556,0.959999999999985,1.448980219943019e-17,0.9990440026038954,0
237,188.08055555555555,0.799999999999983,0.50555555555556,0.8097222222222058,0.9879931389365342,0.02711307825509755,0.9340909960456433,47.22222222222222,0.9444444444255556,0.6243567753001896,1.823122282806879e-17,0.9991377122889756,0
238,188.5861111111111,0.50555555555556,0.88611111111112,0.7972222222222172,0.6341463414634242,0.02698960957766894,0.9298372931353865,47.22222222222222,0.9444444444255556,1.1114982578397394,1.3981160918774549e-05,0.9958523531390531,0
239,189.47222222222223,0.88611111111112,0.6583333333333314,0.7972222222222172,1.1114982578397394,0.02735447056202241,0.94240736566962,47.22222222222222,0.9444444444255556,0.8257839721254384,3.63211946403768e-18,0.9967272452575389,0
240,190.13055555555556,0.6583333333333314,0.7638888888888857,0.7972222222222172,0.8257839721254384,0.030174509523415192,1.0395624351733808,52.77777777777778,1.0555555555344445,0.9581881533101066,4.6413211052254155e-09,0.9984616497195059,0
241,190.89444444444445,0.7638888888888857,0.6916666666666629,0.7791666666666686,0.9803921568627386,0.027980771505006382,0.9639844830353413,50.0,0.9999999999800001,0.8877005347593513,1.825188288809461e-14,0.9987274929911225,0
242,191.5861111111111,0.6916666666666629,0.6777777777777771,0.75555555555556,0.9154411764705779,0.028492752896509616,0.98162310021656,47.22222222222222,0.9444444444255556,0.8970588235294057,5.169576789212926e-13,0.9988019082361849,0
243,192.26388888888889,0.6777777777777771,0.7527777777777942,0.75555555555556,0.8970588235294057,0.028450339615391895,0.9801618915838822,47.22222222222222,0.9444444444255556,0.9963235294117806,7.541604493677134e-12,0.99855042252318,0
244,193.01666666666668,0.7527777777777942,0.8166666666666629,0.7500000000000142,1.0037037037037067,0.03025297543985948,1.0422657175287622,50.0,0.9999999999800001,1.0888888888888633,2.249798784770274e-11,0.997699531605269,0
245,193.83333333333334,0.8166666666666629,0.799999999999983,0.75833333333334,1.0769230769230624,0.03021497607177284,1.0409565755991297,52.77777777777778,1.0555555555344445,1.0549450549450232,1.1742670637943098e-12,0.9978665049886635,0
246,194.63333333333333,0.799999999999983,0.7222222222222285,0.75833333333334,1.0549450549450232,0.027203516286740354,0.937206737838693,50.0,0.9999999999800001,0.9523809523809523,1.069790542162683e-15,0.9994536705142645,0
247,195.35555555555555,0.7222222222222285,0.7277777777777885,0.7375000000000114,0.979284369114871,0.025358261252589494,0.8736346086768502,44.44444444444444,0.8888888888711112,0.986817325800376,5.27528149083038e-16,0.9961281635093275,0
248,196.08333333333334,0.7277777777777885,0.8999999999999773,0.7402777777777914,0.9831144465290771,0.027872372988299383,0.9602499724243349,47.22222222222222,0.9444444444255556,1.2157598499061384,1.4316473354036852e-11,0.9986119463486762,0
249,196.98333333333332,0.8999999999999773,0.9333333333333371,0.7402777777777914,1.2157598499061384,0.026797752924043888,0.9232275098051254,47.22222222222222,0.9444444444255556,1.2607879924952916,6.336486189402338e-16,0.9979939644097044,0
250,197.91666666666666,0.9333333333333371,0.8666666666666742,0.75833333333334,1.230769230769225,0.027853225507824236,0.9595903096246883,50.0,0.9999999999800001,1.1428571428571428,9.906138991900708e-17,0.999382572064726,0
251,198.78333333333333,0.8666666666666742,0.7111111111111086,0.7763888888888886,1.116279069767452,0.028234208898402457,0.972715826079654,47.22222222222222,0.9444444444255556,0.9159212880143084,5.4921010803760445e-17,0.998377378014736,0
252,199.49444444444444,0.7111111111111086,0.8194444444444571,0.7763888888888886,0.9159212880143084,0.026931082241797032,0.9278209283041372,47.22222222222222,0.9444444444255556,1.0554561717352582,3.240924239047982e-13,0.9984435607242019,0
253,200.3138888888889,0.8194444444444571,0.9583333333333144,0.8083333333333229,1.0137457044673825,0.02883803049121495,0.9935184921494149,47.22222222222222,0.9444444444255556,1.1855670103092701,1.94281873575064e-13,0.9983824865686722,0
254,201.2722222222222,0.9583333333333144,0.7750000000000057,0.81805555555556,1.1714770797962353,0.027483474873971177,0.9468517804685834,47.22222222222222,0.9444444444255556,0.9473684210526334,1.0431826090264266e-19,0.9992400237969321,0
255,202.04722222222222,0.7750000000000057,1.0361111111111256,0.80972222222222,0.957118353344778,0.026934241607615494,0.9279297737526869,47.22222222222222,0.9444444444255556,1.2795883361921312,2.0228538896022163e-12,0.9989796186557842,0
256,203.08333333333334,1.0361111111111256,0.5888888888888744,0.8430555555555657,1.2289950576606286,0.03137375217318812,1.0808783547708245,52.77777777777778,1.0555555555344445,0.6985172981877833,1.9624951353560207e-16,0.9963706618178199,0
257,203.67222222222222,0.5888888888888744,0.86944444444444,0.8430555555555657,0.6985172981877833,0.031376981472932025,1.0809896095603373,58.333333333333336,1.1666666666433334,1.0313014827017946,0.00011867882858496159,0.9943321359384474,0
258,204.54166666666666,0.86944444444444,0.6888888888888971,0.8680555555555571,1.0015999999999932,0.03761210831328208,1.295800181269527,72.22222222222223,1.4444444444155558,0.793600000000008,0.010052245110273361,0.9791532169232735,0
259,205.23055555555555,0.6888888888888971,0.6638888888888914,0.8430555555555657,0.8171334431630971,0.033830549359747705,1.165519136222636,58.333333333333336,1.1666666666433334,0.7874794069192687,2.3624716050107963e-05,0.9919133609001025,0
260,205.89444444444445,0.6638888888888914,0.7777777777777715,0.7972222222222314,0.8327526132404117,0.03168293363245082,1.091530174329057,52.77777777777778,1.0555555555344445,0.9756097560975419,8.510152582630326e-08,0.9961939071228254,0
261,206.67222222222222,0.7777777777777715,0.6861111111111029,0.7763888888888886,1.0017889087656453,0.028218758313788835,0.9721835275396122,50.0,0.9999999999800001,0.8837209302325479,1.0294440335443557e-14,0.9993343657167304,0
262,207.35833333333332,0.6861111111111029,0.7944444444444514,0.7763888888888886,0.8837209302325479,0.030242979518953883,1.0419213412972161,52.77777777777778,1.0555555555344445,1.0232558139534977,3.587807828608902e-09,0.9963509043702159,0
263,208.15277777777777,0.7944444444444514,0.9444444444444571,0.7763888888888886,1.0232558139534977,0.03027029296618923,1.0428623353405135,52.77777777777778,1.0555555555344445,1.216457960644024,5.007466663542459e-10,0.9958260732463835,0
264,209.09722222222223,0.9444444444444571,0.7472222222222058,0.7763888888888886,1.216457960644024,0.029116431375019118,1.0031098692850497,50.0,0.9999999999800001,0.9624329159212672,3.2928213918608813e-17,0.9988243028721714,0
265,209.84444444444443,0.7472222222222058,0.7333333333333485,0.7624999999999886,0.9799635701274976,0.029225597604358815,1.0068708288831836,50.0,0.9999999999800001,0.9617486338798157,7.461447909182239e-13,0.9986979878355835,0
266,210.57777777777778,0.7333333333333485,0.8305555555555486,0.7402777777777771,0.9906191369606216,0.029335452946151225,1.0106555295604855,50.0,0.9999999999800001,1.1219512195121868,5.797149219000097e-11,0.9969573991512621,0
267,211.40833333333333,0.8305555555555486,0.8249999999999886,0.7624999999999886,1.0892531876138505,0.03002178764110194,1.0343009103171565,52.77777777777778,1.0555555555344445,1.0819672131147553,9.281990323919964e-13,0.9972504727948726,0
268,212.23333333333332,0.8249999999999886,0.7972222222222456,0.7624999999999886,1.0819672131147553,0.029703860296685942,1.0233477803545026,52.77777777777778,1.0555555555344445,1.045537340619354,8.075276558550115e-13,0.9955136396938171,0
269,213.03055555555557,0.7972222222222456,0.6499999999999773,0.7861111111111114,1.014134275618404,0.03828743512823473,1.3190663221075507,86.11111111111111,1.7222222221877779,0.8268551236748825,0.5595630407333374,0.9682940767058956,1
270,213.68055555555554,0.6499999999999773,0.7916666666666856,0.7861111111111114,0.8268551236748825,0.03672971396573131,1.2654002168223408,69.44444444444444,1.3888888888611113,1.007067137809211,0.619484007358551,0.9801065514160802,1
271,214.47222222222223,0.7916666666666856,0.7694444444444457,0.7930555555555685,0.9982486865148937,0.032848791412866014,1.1316959292134494,55.55555555555556,1.111111111088889,0.9702276707530505,1.3038693458256034e-09,0.9956355632862502,0
272,215.24166666666667,0.7694444444444457,0.5944444444444343,0.7930555555555685,0.9702276707530505,0.030634141622154193,1.055397531464778,52.77777777777778,1.0555555555344445,0.7495621716286965,5.2635430736192035e-12,0.99796307499206,0
273,215.8361111111111,0.5944444444444343,0.7138888888889028,0.7805555555555657,0.7615658362989096,0.031105467328493154,1.0716354921402063,52.77777777777778,1.0555555555344445,0.9145907473309668,2.7195471830054885e-07,0.9989952177639694,0
274,216.55,0.7138888888889028,0.7666666666666515,0.7583333333333258,0.9413919413919691,0.029975504826014802,1.0327063897526605,50.0,0.9999999999800001,1.0109890109890012,2.2252083856089122e-11,0.9992169731586436,0
275,217.31666666666666,0.7666666666666515,0.6944444444444571,0.7680555555555486,0.9981916817359748,0.026978268379847903,0.9294465698589909,44.44444444444444,0.8888888888711112,0.904159132007258,1.0407079570862822e-16,0.9990127234350721,0
276,218.01111111111112,0.6944444444444571,0.8194444444444287,0.7680555555555486,0.904159132007258,0.029267218312794652,1.0083047320583662,50.0,0.9999999999800001,1.0669077757685244,1.0835459612890119e-10,0.9992121452299396,0
277,218.83055555555555,0.8194444444444287,0.5611111111111313,0.7680555555555486,1.0669077757685244,0.027204656663839224,0.9372460257413844,47.22222222222222,0.9444444444255556,0.7305605786618774,2.0656554434382445e-17,0.9992483144190349,0
278,219.39166666666668,0.5611111111111313,1.0722222222222229,0.7402777777777771,0.7579737335835176,0.05348856502343103,1.842770728933932,119.44444444444444,2.388888888841111,1.448405253283304,0.9986302852630615,0.8669399183822721,1
279,220.4638888888889,1.0722222222222229,0.6888888888888687,0.7402777777777771,1.448405253283304,0.029589180634064058,1.0193968737375265,50.0,0.9999999999800001,0.9305816135084163,7.116306671109413e-19,0.9971713363892452,0
280,221.15277777777777,0.6888888888888687,0.6777777777777771,0.7402777777777771,0.9305816135084163,0.02884451732670993,0.9937419745062199,50.0,0.9999999999800001,0.9155722326454033,4.1703307473994755e-12,0.9993539337332258,0
281,221.83055555555555,0.6777777777777771,0.9138888888888914,0.7041666666666799,0.9625246548323281,0.027030326756875587,0.9312400682140206,47.22222222222222,0.9444444444255556,1.2978303747534308,5.382268519760203e-10,0.9990819544752596,0
282,222.74444444444444,0.9138888888888914,0.75555555555556,0.7041666666666799,1.2978303747534308,0.028513221607556156,0.9823282816241945,50.0,0.9999999999800001,1.0729783037475207,7.862965556505491e-16,0.9983215365667404,0
283,223.5,0.75555555555556,0.73888888888888,0.7347222222222314,1.0283553875236227,0.0302211787128691,1.0411702669824985,52.77777777777778,1.0555555555344445,1.0056710775047013,1.4891038055409034e-11,0.9984811235729618,0
284,224.23888888888888,0.73888888888888,0.8388888888889028,0.74722222222222,0.9888475836431138,0.02737040556127213,0.9429563531059086,47.22222222222222,0.9444444444255556,1.1226765799256724,2.8048611068302864e-13,0.9989493058048159,0
285,225.07777777777778,0.8388888888889028,0.9805555555555543,0.74722222222222,1.1226765799256724,0.02906488806320227,1.0013341157899467,47.22222222222222,0.9444444444255556,1.3122676579925672,2.5506190041990617e-12,0.9970696407093776,0
286,226.05833333333334,0.9805555555555543,1.0444444444444514,0.7874999999999943,1.2451499118165859,0.029766330574076252,1.025499986130687,52.77777777777778,1.0555555555344445,1.3262786596120113,5.574215405663302e-14,0.9985668219733692,0
287,227.1027777777778,1.0444444444444514,0.7333333333333201,0.7972222222222314,1.3101045296167184,0.028758945000595146,0.9907938644250832,47.22222222222222,0.9444444444255556,0.9198606271776731,2.606512026109653e-20,0.9982097758923725,0
288,227.8361111111111,0.7333333333333201,0.73888888888888,0.7972222222222314,0.9198606271776731,0.028576963069837837,0.9845242818507975,50.0,0.9999999999800001,0.9268292682926612,6.621997871922303e-13,0.9991987433831004,0
289,228.575,0.73888888888888,0.63055555555556,0.74722222222222,0.9888475836431138,0.02818733414256328,0.971100912163969,50.0,0.9999999999800001,0.8438661710037259,6.061253929323662e-14,0.9996001877491537,0
290,229.20555555555555,0.63055555555556,0.8027777777777771,0.74722222222222,0.8438661710037259,0.03090912237534686,1.0648710793676182,52.77777777777778,1.0555555555344445,1.0743494423791844,1.269819307481157e-07,0.9975646124308477,0
291,230.00833333333333,0.8027777777777771,0.99444444444444,0.7791666666666686,1.030303030303027,0.029831474697387526,1.0277443103810664,50.0,0.9999999999800001,1.2762923351158557,5.57195956041312e-11,0.9992640341226517,0
292,231.00277777777777,0.99444444444444,0.5472222222222456,0.7791666666666686,1.2762923351158557,0.029421269350146145,1.0136120485337452,52.77777777777778,1.0555555555344445,0.7023172905526129,6.008766362782791e-17,0.9968558246619321,0
293,231.55,0.5472222222222456,0.9444444444444287,0.7708333333333286,0.7099099099099446,0.0486516843727443,1.6761320823647465,127.77777777777777,2.5555555555044447,1.2252252252252123,0.9971303343772888,0.8558670367288119,1
294,232.49444444444444,0.9444444444444287,0.7416666666666742,0.82083333333334,1.1505922165820357,0.029743402988788137,1.0247100923835737,50.0,0.9999999999800001,0.9035532994923877,4.2399213556659266e-17,0.9989944334884155,0
295,233.23611111111111,0.7416666666666742,0.875,0.7722222222222257,0.9604316546762645,0.027730822207827934,0.9553733107528865,47.22222222222222,0.9444444444255556,1.133093525179851,7.442217415248864e-13,0.9986852559431934,0
296,234.11111111111111,0.875,0.8527777777777885,0.7722222222222257,1.133093525179851,0.028866950409139527,0.9945148318009129,50.0,0.9999999999800001,1.1043165467625988,5.32227943154614e-15,0.9979643261342993,0
297,234.9638888888889,0.8527777777777885,0.74444444444444,0.7722222222222257,1.1043165467625988,0.02828338497122786,0.974410024223255,50.0,0.9999999999800001,0.9640287769784072,5.95991704627235e-16,0.9990728932660691,0
298,235.70833333333334,0.74444444444444,0.61388888888888,0.7736111111111086,0.9622980251346474,0.029862930975729222,1.0288280319006826,52.77777777777778,1.0555555555344445,0.7935368043087883,3.830474132326955e-12,0.9988987320858729,0
299,236.32222222222222,0.61388888888888,0.7750000000000057,0.7736111111111086,0.7935368043087883,0.027889526342120198,0.960840934217948,47.22222222222222,0.9444444444255556,1.0017953321364559,2.9256146394374127e-09,0.9967264605860978,0
300,237.09722222222223,0.7750000000000057,0.5888888888888744,0.7888888888888914,0.9823943661971871,0.03061693090352693,1.054804593357421,52.77777777777778,1.0555555555344445,0.7464788732394159,4.37604076239384e-12,0.997566482244715,0
301,237.6861111111111,0.5888888888888744,0.9027777777777999,0.7597222222222229,0.7751371115173477,0.028226191369898547,0.972439608782762,50.0,0.9999999999800001,1.1882998171846717,5.270691758596513e-07,0.9985273549656698,0
302,238.5888888888889,0.9027777777777999,0.8416666666666401,0.7597222222222229,1.1882998171846717,0.02868773611604455,0.9883405989835372,47.22222222222222,0.9444444444255556,1.1078610603290318,5.419098156153504e-16,0.9960282657964574,0
303,239.43055555555554,0.8416666666666401,0.76111111111112,0.8083333333333229,1.0412371134020424,0.02643002030751184,0.9105585047285695,47.22222222222222,0.9444444444255556,0.9415807560137688,5.337296048534093e-18,0.9987696775699236,0
304,240.19166666666666,0.76111111111112,0.625,0.7680555555555628,0.9909584086799298,0.029697108887777386,1.0231151830000906,50.0,0.9999999999800001,0.8137432188065022,2.860389334245761e-13,0.9987852881094204,0
305,240.81666666666666,0.625,0.88611111111112,0.7680555555555628,0.8137432188065022,0.03038873260362534,1.0469427793927555,52.77777777777778,1.0555555555344445,1.1537070524412303,6.762268185411813e-07,0.9982849547316275,0
306,241.70277777777778,0.88611111111112,1.0694444444444287,0.7680555555555628,1.1537070524412303,0.03038687289144215,1.0468787091905745,52.77777777777778,1.0555555555344445,1.3924050632911056,1.4587993313330827e-10,0.9975572286138294,0
307,242.7722222222222,1.0694444444444287,0.7527777777777942,0.7680555555555628,1.3924050632911056,0.030411798617275314,1.047737442228985,50.0,0.9999999999800001,0.980108499095853,9.12623199950927e-19,0.9992268871012344,0
308,243.525,0.7527777777777942,0.6972222222222229,0.7680555555555628,0.980108499095853,0.029300823270018733,1.0094624791673508,52.77777777777778,1.0555555555344445,0.9077757685352544,1.6912541245944768e-12,0.999088891722472,0
309,244.22222222222223,0.6972222222222229,0.8388888888888744,0.7680555555555628,0.9077757685352544,0.029120488293301924,1.0032496369205801,50.0,0.9999999999800001,1.0922242314647086,1.1674167188502338e-10,0.9996059188868844,0
310,245.0611111111111,0.8388888888888744,0.7888888888888914,0.7999999999999972,1.0486111111110967,0.030244891183737143,1.0419872013535587,52.77777777777778,1.0555555555344445,0.9861111111111178,2.8802185788288914e-13,0.996536108799231,0
311,245.85,0.7888888888888914,0.5666666666666629,0.8138888888888829,0.9692832764505221,0.03165397087586458,1.0905323588138534,52.77777777777778,1.0555555555344445,0.6962457337883964,8.764714648501482e-12,0.9984355022975329,0
312,246.41666666666666,0.5666666666666629,0.9194444444444514,0.7750000000000057,0.7311827956989145,0.029501642056438532,1.0163810229957808,52.77777777777778,1.0555555555344445,1.1863799283154124,1.6884692740859464e-05,0.9988292251525848,0
313,247.3361111111111,0.9194444444444514,0.7527777777777942,0.7750000000000057,1.1863799283154124,0.027900038474352216,0.9612030947950239,47.22222222222222,0.9444444444255556,0.971326164874566,3.656586639376386e-18,0.9984259838829602,0
314,248.0888888888889,0.7527777777777942,0.7111111111111086,0.7708333333333428,0.9765765765765859,0.029832118260136816,1.0277664821965957,50.0,0.9999999999800001,0.9225225225225079,1.233495293753717e-12,0.9980570786358411,0
315,248.8,0.7111111111111086,0.8499999999999943,0.7708333333333428,0.9225225225225079,0.030154273879116286,1.0388652833058964,50.0,0.9999999999800001,1.1027027027026817,5.381519119218581e-10,0.9977418459911488,0
316,249.65,0.8499999999999943,0.8777777777777658,0.7708333333333428,1.1027027027026817,0.02726545787562042,0.9393407294094491,47.22222222222222,0.9444444444255556,1.1387387387387091,5.248184377452123e-16,0.9987571966891535,0
317,250.52777777777777,0.8777777777777658,1.0861111111111086,0.7708333333333428,1.1387387387387091,0.028287156604041006,0.974539963296126,50.0,0.9999999999800001,1.4090090090089884,7.394043710640119e-12,0.9961403224569712,0
318,251.61388888888888,1.0861111111111086,0.8527777777777885,0.8138888888888829,1.334470989761099,0.028838344875980474,0.9935293232315962,47.22222222222222,0.9444444444255556,1.0477815699658912,2.0191259032569196e-20,0.9960099183789939,0
319,252.46666666666667,0.8527777777777885,0.9527777777777828,0.8444444444444343,1.0098684210526563,0.02965340430470575,1.021609486850467,50.0,0.9999999999800001,1.12828947368423,2.2552441956025931e-13,0.9969868852315852,0
320,253.41944444444445,0.9527777777777828,0.61388888888888,0.8513888888888914,1.1190864600326291,0.029741770947127728,1.0246538658125508,50.0,0.9999999999800001,0.7210440456769859,1.8567979635967704e-17,0.9992032139555738,0
321,254.03333333333333,0.61388888888888,0.5444444444444514,0.8513888888888914,0.7210440456769859,0.028010238645435875,0.9649996754194531,47.22222222222222,0.9444444444255556,0.6394779771615071,1.1817277711934082e-10,0.9973243357348711,0
322,254.57777777777778,0.5444444444444514,0.5888888888888744,0.8513888888888914,0.6394779771615071,0.0315276726237663,1.086181172312958,52.77777777777778,1.0555555555344445,0.6916802610114001,3.184737579431385e-05,0.9963518656798126,0
323,255.16666666666666,0.5888888888888744,1.2138888888888744,0.8013888888888943,0.7348353552859388,0.03226937108805676,1.1117339277306997,52.77777777777778,1.0555555555344445,1.5147313691507516,0.018621070310473442,0.9972226618653287,0
324,256.38055555555553,1.2138888888888744,0.7555555555555884,0.8513888888888914,1.4257748776508758,0.03005792908829131,1.0355460437574104,52.77777777777778,1.0555555555344445,0.8874388254486493,2.224479912282066e-21,0.998263602716252,0
325,257.1361111111111,0.7555555555555884,0.5805555555555202,0.8513888888888914,0.8874388254486493,0.02837253514587073,0.9774813971837982,47.22222222222222,0.9444444444255556,0.681892332789516,1.1108717671594586e-14,0.9983153603654393,0
326,257.71666666666664,0.5805555555555202,0.6972222222222513,0.8041666666666885,0.7219343696026999,0.03145512498852299,1.083681784665875,52.77777777777778,1.0555555555344445,0.8670120898100299,4.615199031832162e-06,0.9963847326639029,0
327,258.4138888888889,0.6972222222222513,0.8333333333333144,0.7263888888889198,0.959847036328871,0.029805655949132513,1.0268548112232332,50.0,0.9999999999800001,1.147227533460728,7.95579768730903e-10,0.998731049409251,0
328,259.2472222222222,0.8333333333333144,0.7888888888888914,0.7263888888889198,1.147227533460728,0.02993787848055994,1.0314100990779975,52.77777777777778,1.0555555555344445,1.0860420650095175,1.3829913776686187e-12,0.9972911125013355,0
329,260.0361111111111,0.7888888888888914,0.6750000000000114,0.7263888888889198,1.0860420650095175,0.026571969012277832,0.9154488755590127,47.22222222222222,0.9444444444255556,0.9292543021032266,3.158991377334784e-16,0.9968833454993618,0
330,260.7111111111111,0.6750000000000114,0.6777777777778056,0.6861111111111313,0.983805668016182,0.0285395894655506,0.983236698533034,50.0,0.9999999999800001,0.9878542510121572,2.7219452386484377e-11,0.9981579536772701,0
331,261.3888888888889,0.6777777777778056,0.5722222222221944,0.6875000000000284,0.9858585858585855,0.028975106012296713,0.9982409736329279,47.22222222222222,0.9444444444255556,0.8323232323231575,1.3098671453048993e-12,0.9989584972348549,0
332,261.9611111111111,0.5722222222221944,0.86388888888888,0.6875000000000284,0.8323232323231575,0.030064039116267573,1.0357565444635464,52.77777777777778,1.0555555555344445,1.2565656565655918,5.36367087988765e-06,0.9981012412580472,0
333,262.825,0.86388888888888,0.9611111111111086,0.7263888888889198,1.1892925430209698,0.02969853822039815,1.0231644259048926,50.0,0.9999999999800001,1.3231357552580663,1.3049476429993767e-11,0.9971553772318553,0
334,263.7861111111111,0.9611111111111086,0.8111111111111313,0.7263888888889198,1.3231357552580663,0.030167521172616348,1.039321674773658,50.0,0.9999999999800001,1.116634799235162,9.07261648485291e-16,0.998820605216779,0
335,264.59722222222223,0.8111111111111313,0.7749999999999773,0.7430555555555713,1.091588785046733,0.02804336671558231,0.9661409929691981,50.0,0.9999999999800001,1.0429906542055547,9.16770355647873e-15,0.9996413527609445,0
336,265.3722222222222,0.7749999999999773,0.9055555555555657,0.7819444444444343,0.9911190053285805,0.0268296169840462,0.9243252800865217,47.22222222222222,0.9444444444255556,1.1580817051510048,4.351425090479838e-14,0.9984033275137937,0
337,266.27777777777777,0.9055555555555657,0.7805555555555657,0.8000000000000114,1.131944444444441,0.02977985736039031,1.02596600659441,50.0,0.9999999999800001,0.9756944444444432,3.3070477072567113e-16,0.9991783973852266,0
338,267.05833333333334,0.7805555555555657,0.8444444444444343,0.7847222222222285,0.9946902654867306,0.02911450029008944,1.0030433401721088,50.0,0.9999999999800001,1.076106194690244,7.648829486450737e-13,0.997934984631931,0
339,267.90277777777777,0.8444444444444343,1.1222222222222058,0.7958333333333485,1.0610820244327768,0.02653770213902549,0.9142683243332722,47.22222222222222,0.9444444444255556,1.4101221640488182,4.162802372774388e-13,0.9976062562453685,0
340,269.025,1.1222222222222058,0.6111111111111427,0.8277777777777828,1.355704697986549,0.03143494629752128,1.0829865949349509,52.77777777777778,1.0555555555344445,0.7382550335570807,3.3737239571077527e-18,0.9976703942465583,0
341,269.6361111111111,0.6111111111111427,0.7916666666666856,0.8277777777777828,0.7382550335570807,0.02681400650479788,0.9237874729082802,47.22222222222222,0.9444444444255556,0.9563758389261916,9.858128757755935e-10,0.9966951955019625,0
342,270.4277777777778,0.7916666666666856,0.7888888888888346,0.8277777777777828,0.9563758389261916,0.026712034133795894,0.9202743537890791,47.22222222222222,0.9444444444255556,0.9530201342281165,2.955599708457713e-16,0.99857483158918,0
343,271.21666666666664,0.7888888888888346,0.7750000000000341,0.8013888888889085,0.9844020797226118,0.025524127557880034,0.8793489809388828,47.22222222222222,0.9444444444255556,0.9670710571923933,8.140738364854514e-17,0.9960400834524472,0
344,271.9916666666667,0.7750000000000341,0.8777777777777942,0.7902777777777601,0.9806678383128946,0.027152192889142685,0.935438560757087,44.44444444444444,0.8888888888711112,1.110720562390204,3.844624102313909e-15,0.9989299306420911,0
345,272.86944444444447,0.8777777777777942,0.5749999999999886,0.7902777777777601,1.110720562390204,0.02928694652646612,1.0089844020901197,52.77777777777778,1.0555555555344445,0.727592267135327,3.607105475991962e-15,0.9981623071097563,0
346,273.44444444444446,0.5749999999999886,0.8666666666666742,0.7902777777777601,0.727592267135327,0.029605813447718406,1.0199699020498139,52.77777777777778,1.0555555555344445,1.0966608084358864,5.692936156265205e-06,0.9971875293937388,0
347,274.31111111111113,0.8666666666666742,0.5472222222222172,0.7902777777777601,1.0966608084358864,0.029757274338025583,1.0251879836176045,50.0,0.9999999999800001,0.6924428822495697,1.2901381165778903e-15,0.9988782427114844,0
348,274.85833333333335,0.5472222222222172,0.8277777777777828,0.7902777777777601,0.6924428822495697,0.026841103044988088,0.9247209941402674,47.22222222222222,0.9444444444255556,1.0474516695958118,1.6299640037686913e-07,0.9970932062063282,0
349,275.68611111111113,0.8277777777777828,0.8055555555555429,0.7902777777777601,1.0474516695958118,0.030175909373033768,1.0396106623393346,50.0,0.9999999999800001,1.0193321616871773,6.41645821219429e-14,0.9988369138964444,0
350,276.4916666666667,0.8055555555555429,0.7638888888888573,0.7902777777777601,1.0193321616871773,0.027198247061117686,0.9370252041830911,50.0,0.9999999999800001,0.9666080843585054,7.453172604810637e-16,0.9996567558941267,0
351,277.25555555555553,0.7638888888888573,0.6083333333333485,0.7902777777777601,0.9666080843585054,0.027313664209586277,0.9410015184237475,47.22222222222222,0.9444444444255556,0.7697715289982789,2.9617849018572417e-16,0.9993000573820627,0
352,277.8638888888889,0.6083333333333485,0.9861111111111427,0.7819444444444343,0.7779751332149495,0.05314235555319277,1.8308432323268475,116.66666666666667,2.333333333286667,1.2611012433393107,0.9982213377952576,0.8745492330034106,1
353,278.85,0.9861111111111427,0.5777777777777828,0.7902777777777885,1.2478031634446627,0.0294697638719116,1.0152827661008343,50.0,0.9999999999800001,0.7311072056238981,7.616622004926013e-18,0.998213099218726,0
354,279.4277777777778,0.5777777777777828,0.7444444444444116,0.7847222222222001,0.7362831858407352,0.02904584715760907,1.0006781246736367,52.77777777777778,1.0555555555344445,0.9486725663716663,7.48430011299206e-08,0.9988114882012122,0
355,280.1722222222222,0.7444444444444116,0.63611111111112,0.7541666666666345,0.9871086556169415,0.030630001960295142,1.0552549131743416,55.55555555555556,1.111111111088889,0.8434622467772116,1.8189746930907802e-10,0.9976363191493636,0
356,280.80833333333334,0.63611111111112,0.7138888888889028,0.7541666666666345,0.8434622467772116,0.02626096498433727,0.9047342654546218,47.22222222222222,0.9444444444255556,0.9465930018416795,1.25654814244619e-12,0.9990710725470773,0
357,281.52222222222224,0.7138888888889028,0.6194444444444116,0.7291666666666572,0.9790476190476508,0.02799624193384265,0.9645174652421185,47.22222222222222,0.9444444444255556,0.8495238095237755,3.1068589134751814e-14,0.9994195641950757,0
358,282.14166666666665,0.6194444444444116,1.055555555555543,0.7291666666666572,0.8495238095237755,0.027146210625632074,0.9352324617509669,50.0,0.9999999999800001,1.4476190476190491,1.0157600627280772e-06,0.9990551725954417,0
359,283.1972222222222,1.055555555555543,1.02222222222224,0.7291666666666572,1.4476190476190491,0.031906218025759686,1.0992226959743305,55.55555555555556,1.111111111088889,1.4019047619048044,2.3002700005186894e-12,0.9980710165508907,0
360,284.21944444444443,1.02222222222224,0.6583333333333599,0.7291666666666572,1.4019047619048044,0.02831135506248333,0.9753736407537903,47.22222222222222,0.9444444444255556,0.902857142857191,1.4145333896873175e-19,0.99734161216561,0
361,284.8777777777778,0.6583333333333599,0.7777777777777715,0.6861111111111313,0.9595141700404962,0.029964287365407283,1.0323199294306935,50.0,0.9999999999800001,1.1336032388663542,4.053339441867365e-09,0.9985525776474262,0
362,285.65555555555557,0.7777777777777715,0.7111111111111086,0.7291666666666572,1.0666666666666718,0.030303374282884803,1.0440020421555027,50.0,0.9999999999800001,0.9752380952381045,8.507372323968143e-13,0.9990674099094757,0
363,286.3666666666667,0.7111111111111086,0.8916666666666515,0.7125000000000057,0.9980506822611971,0.029084214542710523,1.0019999454063433,50.0,0.9999999999800001,1.2514619883040623,1.7681202058028589e-09,0.9992526760737792,0
364,287.2583333333333,0.8916666666666515,0.7638888888889142,0.7291666666666572,1.222857142857138,0.02923112969979572,1.0070614188445395,50.0,0.9999999999800001,1.0476190476190959,1.6010340424501743e-15,0.9991032246575957,0
365,288.02222222222224,0.7638888888889142,0.6111111111110858,0.7388888888889085,1.0338345864661722,0.02743943734032651,0.9453346136135876,47.22222222222222,0.9444444444255556,0.8270676691728762,1.3082221641226512e-15,0.9983551483593592,0
366,288.6333333333333,0.6111111111110858,0.8527777777777601,0.7388888888889085,0.8270676691728762,0.02859221529548607,0.9850497465919688,50.0,0.9999999999800001,1.1541353383458102,4.86388884723965e-08,0.9983003134929691,0
367,289.4861111111111,0.8527777777777601,0.6000000000000227,0.7708333333333428,1.1063063063062697,0.030927333200200146,1.0654984728109584,52.77777777777778,1.0555555555344445,0.7783783783783983,2.230641208854009e-13,0.9984140142116853,0
368,290.0861111111111,0.6000000000000227,0.7527777777777942,0.7708333333333428,0.7783783783783983,0.028037195321223864,0.9659283780883264,50.0,0.9999999999800001,0.9765765765765859,6.212195646781993e-09,0.9978138809063264,0
369,290.8388888888889,0.7527777777777942,0.8666666666666742,0.7583333333333542,0.992673992673987,0.028371772851813148,0.9774551348756668,47.22222222222222,0.9444444444255556,1.1428571428571215,1.2128855862367227e-12,0.9983168583165316,0
370,291.7055555555556,0.8666666666666742,0.669444444444423,0.7583333333333542,1.1428571428571215,0.03018243576108938,1.0398355073481562,52.77777777777778,1.0555555555344445,0.8827838827838302,8.697128981620741e-14,0.9972837348207936,0
371,292.375,0.669444444444423,0.7472222222222058,0.7583333333333542,0.8827838827838302,0.030131838040485612,1.038092331055456,52.77777777777778,1.0555555555344445,0.9853479853479367,2.367509521761235e-09,0.9967719631468913,0
372,293.1222222222222,0.7472222222222058,0.6027777777778169,0.75,0.9962962962962744,0.026559321770186623,0.9150131568681633,44.44444444444444,0.8888888888711112,0.8037037037037559,8.390857929755849e-17,0.9977874914493573,0
373,293.725,0.6027777777778169,0.7999999999999545,0.75,0.8037037037037559,0.027371469378877713,0.9429930034057182,47.22222222222222,0.9444444444255556,1.066666666666606,7.14224723807888e-09,0.9959258730227503,0
374,294.525,0.7999999999999545,0.8472222222222285,0.75,1.066666666666606,0.028507379978931158,0.9821270277256325,50.0,0.9999999999800001,1.129629629629638,2.0277742430064444e-13,0.9992694341450667,0
375,295.3722222222222,0.8472222222222285,0.7444444444444684,0.75,1.129629629629638,0.027100299107866294,0.9336507330016043,47.22222222222222,0.9444444444255556,0.9925925925926246,3.962714272681441e-17,0.9986434807782765,0
376,296.1166666666667,0.7444444444444684,1.0638888888888687,0.75,0.9925925925926246,0.02806233884337591,0.9667946145750185,50.0,0.9999999999800001,1.4185185185184916,3.328511910538623e-09,0.9983958233260986,0
377,297.18055555555554,1.0638888888888687,0.9277777777778056,0.75,1.4185185185184916,0.028033192342821617,0.9657904687721018,47.22222222222222,0.9444444444255556,1.237037037037074,5.460676240750971e-19,0.9974919320798881,0
378,298.10833333333335,0.9277777777778056,0.8472222222222285,0.7763888888888744,1.19499105545623,0.028979429488515684,0.9983899246361951,50.0,0.9999999999800001,1.091234347048329,2.6095216338465114e-16,0.9987877196754857,0
379,298.9555555555556,0.8472222222222285,0.8138888888888687,0.8236111111110915,1.0286677908937927,0.026362053296724627,0.9082169272725852,44.44444444444444,0.8888888888711112,0.9881956155143329,2.9971400570756362e-18,0.9963700725295479,0
380,299.76944444444445,0.8138888888888687,0.7416666666666742,0.8069444444444116,1.008605851979362,0.027888508683092516,0.9608058741585236,47.22222222222222,0.9444444444255556,0.9191049913941948,3.6235701553602505e-16,0.9982192476295072,0
381,300.5111111111111,0.7416666666666742,0.6333333333333258,0.8069444444444116,0.9191049913941948,0.028532088858692524,0.9829782900533665,50.0,0.9999999999800001,0.7848537005163737,1.0681809847453219e-13,0.9993022109155016,0
382,301.14444444444445,0.6333333333333258,2.580555555555577,0.8069444444444116,0.7848537005163737,0.03120623525779979,1.0751071162239745,52.77777777777778,1.0555555555344445,3.1979345955251137,0.0019685341976583004,0.9980340446484646,0
383,303.725,2.580555555555577,0.9833333333332916,0.8305555555555486,3.1070234113712893,0.03213769625340685,1.107197508948035,52.77777777777778,1.0555555555344445,1.183946488294274,0.0,0.9984089825466677,0
384,304.7083333333333,0.9833333333332916,0.875,0.8472222222222285,1.16065573770486,0.029048758913245442,1.00077843953634,50.0,0.9999999999800001,1.032786885245894,4.159450826852992e-18,0.9991914291457845,0
385,305.5833333333333,0.875,0.6722222222222172,0.8611111111111143,1.0161290322580607,0.02864321060440158,0.9868066204684932,50.0,0.9999999999800001,0.7806451612903138,8.597086629610629e-17,0.9993651763837712,0
386,306.25555555555553,0.6722222222222172,1.01111111111112,0.8611111111111143,0.7806451612903138,0.028314783161264626,0.9754917445033917,47.22222222222222,0.9444444444255556,1.1741935483871027,1.6960061799409232e-08,0.9972964366982597,0
387,307.26666666666665,1.01111111111112,0.9138888888888914,0.8611111111111143,1.1741935483871027,0.02929212895793126,1.0091629455415,50.0,0.9999999999800001,1.0612903225806443,2.23444230917418e-18,0.9996114135003416,0
388,308.18055555555554,0.9138888888888914,0.8833333333333258,0.8611111111111143,1.0612903225806443,0.027723084743273105,0.9551067421285168,47.22222222222222,0.9444444444255556,1.0258064516128906,3.3672440309841654e-18,0.999137023214612,0
389,309.06388888888887,0.8833333333333258,0.8611111111111427,0.8791666666666629,1.0047393364928867,0.028186038158589284,0.9710562633435827,47.22222222222222,0.9444444444255556,0.9794628751975125,2.6559485684767036e-17,0.9994701051469375,0
390,309.925,0.8611111111111427,0.8499999999999659,0.8791666666666629,0.9794628751975125,0.029433174054584545,1.0140221855577256,52.77777777777778,1.0555555555344445,0.9668246445497284,5.965951203109471e-14,0.9966949059868883,0
391,310.775,0.8499999999999659,0.8527777777778169,0.8791666666666629,0.9668246445497284,0.029234188175345902,1.0071667884542228,50.0,0.9999999999800001,0.9699842022117391,6.728812792329217e-15,0.9993930915014575,0
392,311.6277777777778,0.8527777777778169,0.7555555555555316,0.8791666666666629,0.9699842022117391,0.028229946731103673,0.9725689872714606,47.22222222222222,0.9444444444255556,0.8593996840442102,6.886693513299212e-17,0.9993623733500641,0
393,312.3833333333333,0.7555555555555316,1.0277777777777715,0.8680555555555713,0.8703999999999565,0.02837943999840006,0.9777192809281664,47.22222222222222,0.9444444444255556,1.1839999999999713,2.6473233327717338e-11,0.9988553821403554,0
394,313.4111111111111,1.0277777777777715,0.8388888888889028,0.8680555555555713,1.1839999999999713,0.028695369274505847,0.9886035740881344,50.0,0.9999999999800001,0.9663999999999985,1.181805736604611e-19,0.9995938162035125,0
395,314.25,0.8388888888889028,0.875,0.8569444444444798,0.9789303079416289,0.027976790389032054,0.963847326916407,50.0,0.9999999999800001,1.0210696920583047,2.8494086701680993e-15,0.9985942333501282,0
396,315.125,0.875,0.8472222222222285,0.8680555555555713,1.0079999999999816,0.028689178318732814,0.9883902852837391,47.22222222222222,0.9444444444255556,0.9759999999999895,1.9311558427498977e-16,0.9970327500038467,0
397,315.97222222222223,0.8472222222222285,0.8611111111110858,0.8569444444444798,0.9886547811993183,0.02806060987799665,0.9667350488194062,47.22222222222222,0.9444444444255556,1.0048622366287783,3.5322520627123564e-16,0.9980210176163689,0
398,316.8333333333333,0.8611111111110858,0.8138888888889255,0.8569444444444514,1.0048622366288116,0.031193238832271326,1.074659367578369,52.77777777777778,1.0555555555344445,0.9497568881685926,2.6518435884692604e-13,0.997800804981506,0
399,317.64722222222224,0.8138888888889255,0.9222222222222172,0.8513888888888914,0.9559543230016715,0.02898135631040594,0.9984563068802818,50.0,0.9999999999800001,1.0831973898857983,2.311805803213718e-13,0.9994504251909739,0
400,318.56944444444446,0.9222222222222172,0.7805555555555657,0.8513888888888914,1.0831973898857983,0.02828485758399251,0.9744607582015653,50.0,0.9999999999800001,0.9168026101142016,7.602021439933839e-18,0.9992468211654288,0
401,319.35,0.7805555555555657,0.9305555555555429,0.8500000000000227,0.9183006535947585,0.027600351496895846,0.9508783760507958,47.22222222222222,0.9444444444255556,1.0947712418300213,6.186179091769231e-14,0.9995603446623265,0
402,320.28055555555557,0.9305555555555429,0.8111111111110745,0.8541666666666572,1.0894308943089404,0.028197379451332858,0.9714469898902189,47.22222222222222,0.9444444444255556,0.949593495934927,2.0830471639713557e-18,0.9974031250086963,0
403,321.09166666666664,0.8111111111110745,0.922222222222274,0.8541666666666572,0.949593495934927,0.030637175498879905,1.055502053603723,50.0,0.9999999999800001,1.07967479674804,3.566460494985879e-12,0.9987518564777755,0
404,322.0138888888889,0.922222222222274,0.7972222222222172,0.8541666666666572,1.07967479674804,0.027974522481826237,0.9637691937114314,47.22222222222222,0.9444444444255556,0.9333333333333378,9.798565435368136e-19,0.9991858550946555,0
405,322.81111111111113,0.7972222222222172,0.9222222222222172,0.8541666666666572,0.9333333333333378,0.027940310056963635,0.9625905183239905,47.22222222222222,0.9444444444255556,1.0796747967479736,4.011022877769069e-14,0.9984173527453925,0
406,323.73333333333335,0.9222222222222172,1.60277777777776,0.8541666666666572,1.0796747967479736,0.03154788932602554,1.086877671595423,50.0,0.9999999999800001,1.8764227642276423,1.1109835895695142e-07,0.9985982811578438,0
407,325.3361111111111,1.60277777777776,0.8194444444444571,0.8916666666666515,1.7975077881620045,0.03084111889982452,1.0625282456403824,50.0,0.9999999999800001,0.9190031152648273,2.1009030872472467e-29,0.9995306912186923,0
408,326.15555555555557,0.8194444444444571,0.8000000000000114,0.8708333333333371,0.9409888357256883,0.028209550721698055,0.9718663105572269,47.22222222222222,0.9444444444255556,0.9186602870813487,2.6206460351801573e-15,0.996892456369251,0
409,326.9555555555556,0.8000000000000114,0.8194444444444002,0.8708333333333371,0.9186602870813487,0.02713400086151273,0.9348118149096007,47.22222222222222,0.9444444444255556,0.940988835725623,8.383728294620132e-16,0.9992034211581591,0
410,327.775,0.8194444444444002,0.7194444444444912,0.8194444444444287,0.9999999999999654,0.027957590621622733,0.9631858627442285,50.0,0.9999999999800001,0.8779661016949892,5.872107258212864e-16,0.9997853596207218,0
411,328.49444444444447,0.7194444444444912,0.7666666666666515,0.8194444444444287,0.8779661016949892,0.026886826051997662,0.9262962283780746,47.22222222222222,0.9444444444255556,0.9355932203389826,5.824372017668167e-14,0.9982555917162462,0
412,329.2611111111111,0.7666666666666515,0.6444444444444457,0.8152777777777374,0.940374787052839,0.0292810450609673,1.008781086710949,50.0,0.9999999999800001,0.7904599659284904,2.015808445729808e-13,0.9974698036107624,0
413,329.90555555555557,0.6444444444444457,0.8277777777777828,0.8097222222222058,0.7958833619211154,0.028528551422053225,0.9828564194312718,50.0,0.9999999999800001,1.0222984562607473,1.5574022071973559e-09,0.9994370255602767,0
414,330.73333333333335,0.8277777777777828,0.8277777777777828,0.8097222222222058,1.0222984562607473,0.029026467057720027,1.0000104477452372,50.0,0.9999999999800001,1.0222984562607473,1.6736222461068498e-14,0.9981503907532592,0
415,331.56111111111113,0.8277777777777828,0.8194444444444002,0.8194444444444287,1.0101694915254493,0.028702921972677313,0.9888637772008698,47.22222222222222,0.9444444444255556,0.9999999999999654,2.8077914003706538e-15,0.996919756567213,0
416,332.38055555555553,0.8194444444444002,0.7722222222222399,0.8194444444444002,1.0,0.02915087888817681,1.0042966438583394,50.0,0.9999999999800001,0.9423728813560046,2.3289455487827265e-14,0.9967222718653768,0
417,333.15277777777777,0.7722222222222399,0.6500000000000341,0.8097222222222058,0.9536878216123911,0.030635821749389617,1.055455414664467,52.77777777777778,1.0555555555344445,0.8027444253859932,1.1166153938979573e-11,0.9968299108943126,0
418,333.8027777777778,0.6500000000000341,0.7972222222222172,0.7861111111111256,0.8268551236749397,0.02707249067134624,0.9326926857476889,47.22222222222222,0.9444444444255556,1.0141342756183493,4.0970959264141626e-11,0.9974069055834718,0
419,334.6,0.7972222222222172,0.7638888888888573,0.7847222222222285,1.0159292035398084,0.027219806617346236,0.9377679670358499,50.0,0.9999999999800001,0.9734513274335802,1.6622228555268777e-15,0.9991330316320839,0
420,335.3638888888889,0.7638888888888573,0.6555555555555657,0.7694444444444457,0.9927797833934592,0.028344617911810338,0.9765196016722388,50.0,0.9999999999800001,0.8519855595667988,2.303257411184756e-14,0.9993041497314572,0
421,336.01944444444445,0.6555555555555657,0.86388888888888,0.7694444444444457,0.8519855595667988,0.029131893549181123,1.003642567104461,50.0,0.9999999999800001,1.122743682310456,5.502850619620858e-09,0.9990220939363115,0
422,336.8833333333333,0.86388888888888,0.8916666666666515,0.7847222222222285,1.1008849557521923,0.027990523524966483,0.9643204564704593,47.22222222222222,0.9444444444255556,1.1362831858406794,1.4261581612588932e-15,0.9970705719446917,0
423,337.775,0.8916666666666515,0.7000000000000455,0.8083333333333087,1.1030927835051696,0.028410758195615414,0.978798245321512,50.0,0.9999999999800001,0.8659793814433816,4.391163058865122e-17,0.999797083576772,0
424,338.475,0.7000000000000455,0.9027777777777715,0.7847222222222285,0.8920353982301392,0.02859576407002581,0.9851720078237396,50.0,0.9999999999800001,1.1504424778760889,2.58674415221094e-10,0.9997837394779622,0
425,339.3777777777778,0.9027777777777715,0.8611111111110858,0.7847222222222285,1.1504424778760889,0.026933366870098785,0.9278996375788976,47.22222222222222,0.9444444444255556,1.097345132743322,6.280720766159504e-18,0.9989451335873758,0
426,340.2388888888889,0.8611111111110858,0.9000000000000341,0.7847222222222285,1.097345132743322,0.027467822272869206,0.946312522121874,50.0,0.9999999999800001,1.146902654867291,1.773231287824882e-15,0.9992248747076711,0
427,341.1388888888889,0.9000000000000341,0.5305555555555088,0.8291666666666515,1.0854271356784528,0.029108930580830677,1.002851454351537,50.0,0.9999999999800001,0.6398659966498715,5.864515328376404e-17,0.9993185251201866,0
428,341.6694444444444,0.5305555555555088,0.7750000000000341,0.8291666666666515,0.6398659966498715,0.04930463183900169,1.6986272171252996,119.44444444444444,2.388888888841111,0.9346733668342291,0.9929800629615784,0.8766751921999418,1
429,342.44444444444446,0.7750000000000341,0.9583333333333144,0.81805555555556,0.9473684210526682,0.02694861170336594,0.9284248476401487,50.0,0.9999999999800001,1.1714770797962353,5.490928892126767e-13,0.9992776570360403,0
430,343.40277777777777,0.9583333333333144,0.8222222222222513,0.862499999999983,1.1111111111111112,0.028711364141450136,0.9891546240668582,47.22222222222222,0.9444444444255556,0.9533011272142232,1.1344875158983687e-18,0.9977992866354481,0
431,344.225,0.8222222222222513,0.6194444444444116,0.862499999999983,0.9533011272142232,0.027006401102371836,0.9304157893093465,47.22222222222222,0.9444444444255556,0.7181964573268682,8.667915623921707e-18,0.9995253029034743,0
432,344.84444444444443,0.6194444444444116,0.8166666666666629,0.8416666666666686,0.7359735973596953,0.028893002724783592,0.9954123777468324,50.0,0.9999999999800001,0.9702970297029636,3.357288846927986e-08,0.9979483178369257,0
433,345.6611111111111,0.8166666666666629,0.8527777777778169,0.8194444444444571,0.9966101694915054,0.027880588960307682,0.9605330264326074,47.22222222222222,0.9444444444255556,1.0406779661017267,1.4181130423258719e-15,0.9986222128083693,0
434,346.5138888888889,0.8527777777778169,0.6333333333333258,0.8375000000000341,1.01824212271974,0.028761310740503757,0.9908753681306687,47.22222222222222,0.9444444444255556,0.756218905472597,1.2153007704545027e-16,0.9970169250566203,0
435,347.14722222222224,0.6333333333333258,0.8361111111111086,0.8194444444444571,0.7728813559321822,0.02793812877481677,0.9625153694975072,50.0,0.9999999999800001,1.0203389830508287,2.2432278257156213e-09,0.999169104336771,0
436,347.98333333333335,0.8361111111111086,0.7333333333332916,0.8194444444444571,1.0203389830508287,0.028481157341233434,0.9812236138994505,50.0,0.9999999999800001,0.8949152542372235,8.052439944663582e-16,0.999447061684894,0
437,348.71666666666664,0.7333333333332916,0.8916666666667084,0.7958333333333485,0.9214659685863175,0.03126682093864388,1.0771943944899574,52.77777777777778,1.0555555555344445,1.1204188481675703,4.6314432289307206e-09,0.9976825216115716,0
438,349.60833333333335,0.8916666666667084,0.669444444444423,0.8194444444444571,1.0881355932203731,0.028844271037917157,0.9937334894444504,50.0,0.9999999999800001,0.8169491525423341,1.111446987233939e-16,0.9987660332849015,0
439,350.27777777777777,0.669444444444423,0.6722222222222172,0.8194444444444571,0.8169491525423341,0.02779567760174075,0.9576076877914864,47.22222222222222,0.9444444444255556,0.8203389830508286,1.5029133536639816e-12,0.9990469881357867,0
440,350.95,0.6722222222222172,0.6694444444444798,0.7749999999999773,0.8673835125448218,0.028195970174012236,0.9713984379241257,47.22222222222222,0.9444444444255556,0.8637992831541929,1.2851274948724734e-12,0.9988822396222258,0
441,351.61944444444447,0.6694444444444798,0.6277777777777374,0.7027777777777544,0.9525691699605563,0.030509807943708285,1.0511140278194582,50.0,0.9999999999800001,0.8932806324110394,1.5191262137115302e-10,0.9992067711336521,0
442,352.2472222222222,0.6277777777777374,0.6583333333333599,0.7027777777777544,0.8932806324110394,0.026612786922199656,0.9168551209796414,47.22222222222222,0.9444444444255556,0.9367588932807013,2.587669445039409e-12,0.9960693034015501,0
443,352.90555555555557,0.6583333333333599,0.8499999999999659,0.6708333333333485,0.9813664596273466,0.0266733025081469,0.9189399843589265,47.22222222222222,0.9444444444255556,1.2670807453415354,1.0528146132671168e-09,0.9965863709212512,0
444,353.75555555555553,0.8499999999999659,0.7805555555555657,0.6708333333333485,1.2670807453415354,0.028370012516447732,0.9773944883714453,50.0,0.9999999999800001,1.1635610766045437,1.228896677344174e-13,0.9992025418525404,0
445,354.5361111111111,0.7805555555555657,0.5888888888889028,0.7027777777777544,1.1106719367589446,0.02812433224503675,0.968930391182927,50.0,0.9999999999800001,0.8379446640316682,1.6284667502821336e-14,0.9993339786455809,0
446,355.125,0.5888888888889028,0.73888888888888,0.6708333333333485,0.8778467908902701,0.052347756322089975,1.8034679568138812,116.66666666666667,2.333333333286667,1.1014492753622809,0.9976680874824524,0.8450729618944066,1
447,355.8638888888889,0.73888888888888,0.7444444444444684,0.6708333333333485,1.1014492753622809,0.030539464717702875,1.0521357533977738,52.77777777777778,1.0555555555344445,1.1097308488612943,7.791196576789616e-10,0.9989217499871974,0
448,356.60833333333335,0.7444444444444684,0.7416666666666742,0.6708333333333485,1.1097308488612943,0.028951281854643438,0.9974201914648939,50.0,0.9999999999800001,1.1055900621117876,1.0448455468881068e-11,0.9997443211063141,0
449,357.35,0.7416666666666742,0.6638888888888914,0.7055555555555486,1.0511811023622257,0.028070836172783387,0.9670873618173375,50.0,0.9999999999800001,0.9409448818897767,1.4065150140494392e-13,0.9994227209783857,0
450,358.0138888888889,0.6638888888888914,0.7666666666666515,0.7041666666666799,0.9428007889546209,0.03016599344427773,1.0392690419714334,52.77777777777778,1.0555555555344445,1.0887573964496622,3.0571885023533696e-09,0.9981276038201402,0
451,358.78055555555557,0.7666666666666515,0.9388888888888687,0.7402777777777771,1.035647279549699,0.029159362877787948,1.0045889315223129,50.0,0.9999999999800001,1.268292682926803,1.2899716017589213e-10,0.9989286272029146,0
452,359.71944444444443,0.9388888888888687,0.7833333333333599,0.7430555555555713,1.2635514018691048,0.0275653639624514,0.9496729968389297,47.22222222222222,0.9444444444255556,1.0542056074766488,2.468551586524397e-18,0.9989884102871657,0
453,360.5027777777778,0.7833333333333599,0.7972222222222172,0.75555555555556,1.036764705882382,0.027273119303042246,0.9396046784271244,47.22222222222222,0.9444444444255556,1.0551470588235166,4.435766278620317e-15,0.9981761656061349,0
454,361.3,0.7972222222222172,0.7527777777777942,0.75555555555556,1.0551470588235166,0.027293125048621993,0.9402939098983503,47.22222222222222,0.9444444444255556,0.9963235294117806,2.8752535512129593e-15,0.9947452290637404,0
455,362.0527777777778,0.7527777777777942,0.7972222222222172,0.7486111111111313,1.0055658627087147,0.029112416362524332,1.002971545374164,50.0,0.9999999999800001,1.0649350649350295,1.7387276514402306e-12,0.9991960968288236,0
456,362.85,0.7972222222222172,0.919444444444423,0.7597222222222229,1.0493601462522777,0.028651418064964046,0.987089381243189,47.22222222222222,0.9444444444255556,1.2102376599634077,9.029161966711552e-13,0.9977528067959969,0
457,363.76944444444445,0.919444444444423,0.7583333333333258,0.7750000000000057,1.1863799283153758,0.029714129019684628,1.0237015550754587,50.0,0.9999999999800001,0.978494623655897,2.2285029207654776e-16,0.9993088309827816,0
458,364.52777777777777,0.7583333333333258,0.9250000000000114,0.7750000000000057,0.978494623655897,0.027190746714368,0.9367668046645937,47.22222222222222,0.9444444444255556,1.19354838709678,1.0530278905795942e-12,0.9969000068274824,0
459,365.4527777777778,0.9250000000000114,0.8222222222221944,0.7902777777777885,1.1704745166959563,0.029964397119492114,1.0323237106428989,50.0,0.9999999999800001,1.04042179261858,3.681714732024522e-16,0.9993250390675963,0
460,366.275,0.8222222222221944,0.6861111111111313,0.7972222222222172,1.0313588850173934,0.030927262316082785,1.065496030734291,52.77777777777778,1.0555555555344445,0.8606271777003792,8.325291411120928e-13,0.9978526551906886,0
461,366.9611111111111,0.6861111111111313,0.63611111111112,0.7972222222222172,0.8606271777003792,0.02591929065681599,0.8929630121164815,47.22222222222222,0.9444444444255556,0.7979094076655213,4.7308810277731875e-15,0.9987828477731372,0
462,367.59722222222223,0.63611111111112,0.8194444444444571,0.7902777777777885,0.8049209138840073,0.029300600621833255,1.0094548085641317,50.0,0.9999999999800001,1.0369068541300546,7.836656656934338e-09,0.9991215725614903,0
463,368.4166666666667,0.8194444444444571,1.0166666666666515,0.7972222222222172,1.0278745644599527,0.02839962825462896,0.9784148001972016,50.0,0.9999999999800001,1.275261324041801,2.8223087929213353e-12,0.999710303789749,0
464,369.43333333333334,1.0166666666666515,0.6333333333333258,0.8083333333333371,1.257731958762862,0.03179499015363936,1.0953907093264337,52.77777777777778,1.0555555555344445,0.7835051546391623,1.1241500462230302e-15,0.9967682225979926,0
465,370.06666666666666,0.6333333333333258,0.9055555555555657,0.8083333333333371,0.7835051546391623,0.028138723142808207,0.9694261817348834,47.22222222222222,0.9444444444255556,1.1202749140893544,9.590800154057888e-09,0.9987140322512038,0
466,370.97222222222223,0.9055555555555657,0.7527777777777942,0.8208333333333258,1.103214890016943,0.028781561831119126,0.9915730521496481,47.22222222222222,0.9444444444255556,0.9170896785110267,1.2761280923686306e-17,0.9981922099551925,0
467,371.725,0.7527777777777942,0.7055555555555202,0.7888888888888914,0.9542253521126938,0.027240634136705338,0.9384855099913292,47.22222222222222,0.9444444444255556,0.8943661971830509,2.400861737674874e-15,0.9985394652646643,0
468,372.43055555555554,0.7055555555555202,0.6444444444444457,0.7861111111111256,0.8975265017667229,0.03044134803902236,1.048755469342416,50.0,0.9999999999800001,0.8197879858657109,4.543556850200581e-11,0.9979897088602461,0
469,373.075,0.6444444444444457,0.5861111111111086,0.7291666666666572,0.883809523809537,0.030717506363793733,1.0582695865601277,50.0,0.9999999999800001,0.8038095238095307,6.673537833457033e-10,0.9988320638359123,0
470,373.6611111111111,0.5861111111111086,1.1972222222222513,0.6958333333333258,0.8423153692614825,0.054263941443292156,1.8694837463760665,116.66666666666667,2.333333333286667,1.7205588822355895,0.9989594221115112,0.8602530168789804,1
471,374.85833333333335,1.1972222222222513,0.6194444444444116,0.7291666666666572,1.641904761904823,0.029749261327431893,1.0249119219702931,50.0,0.9999999999800001,0.8495238095237755,1.206488866667711e-21,0.9994931214932443,0
472,375.47777777777776,0.6194444444444116,0.7555555555555884,0.7291666666666572,0.8495238095237755,0.03133751973115389,1.0796300864056285,52.77777777777778,1.0555555555344445,1.0361904761905347,1.1268486588278392e-07,0.9981846727088339,0
473,376.23333333333335,0.7555555555555884,0.8527777777777601,0.7291666666666572,1.0361904761905347,0.02983584090903445,1.0278947336914648,52.77777777777778,1.0555555555344445,1.1695238095238005,2.6765845095866325e-10,0.9983431234738236,0
474,377.0861111111111,0.8527777777777601,0.5749999999999886,0.7291666666666572,1.1695238095238005,0.026844330461823093,0.9248321840604122,47.22222222222222,0.9444444444255556,0.7885714285714233,9.939633023828083e-18,0.9976754111853697,0
475,377.6611111111111,0.5749999999999886,0.7666666666667084,0.7291666666666572,0.7885714285714233,0.02868455678507369,0.9882310657020194,52.77777777777778,1.0555555555344445,1.0514285714286422,4.95997198868281e-08,0.9991190704826057,0
476,378.4277777777778,0.7666666666667084,0.7472222222222058,0.7291666666666572,1.0514285714286422,0.02891913850663543,0.9963127992435257,50.0,0.9999999999800001,1.0247619047618957,4.260123070282118e-13,0.9985470354594568,0
477,379.175,0.7472222222222058,0.6472222222221831,0.726388888888863,1.028680688336534,0.03060425395643521,1.0543678512795092,52.77777777777778,1.0555555555344445,0.8910133843212016,5.954625681425796e-11,0.9972432903008788,0
478,379.8222222222222,0.6472222222221831,0.7361111111111427,0.6972222222221944,0.9282868525896223,0.029292962457657674,1.0091916610042864,52.77777777777778,1.0555555555344445,1.0557768924303663,8.140224050379175e-10,0.9990423767988377,0
479,380.55833333333334,0.7361111111111427,0.8444444444444343,0.7416666666666742,0.9925093632959126,0.027657902826546666,0.9528611158316312,47.22222222222222,0.9444444444255556,1.138576779026192,8.276148321349763e-13,0.9987648368884319,0
480,381.40277777777777,0.8444444444444343,0.8444444444444343,0.7513888888888971,1.123844731977793,0.028778774407671518,0.9914770207392682,50.0,0.9999999999800001,1.123844731977793,3.075832774243614e-14,0.9988020782105211,0
481,382.2472222222222,0.8444444444444343,0.625,0.7513888888888971,1.123844731977793,0.02897844177834885,0.9983558963652308,50.0,0.9999999999800001,0.831792975970416,2.6519216679663383e-15,0.9987941453689155,0
482,382.8722222222222,0.625,0.7777777777777715,0.7513888888888971,0.831792975970416,0.050752807600125995,1.7485192997000045,113.88888888888889,2.277777777732222,1.035120147874287,0.9973280429840088,0.8535533583487634,1
483,383.65,0.7777777777777715,0.7277777777778169,0.7569444444444571,1.027522935779791,0.029357256803771596,1.0114067090057195,50.0,0.9999999999800001,0.9614678899082926,1.2340334917121387e-13,0.9993849040711937,0
484,384.3777777777778,0.7277777777778169,0.8305555555555202,0.7416666666666742,0.9812734082397432,0.029024485275737404,0.9999421720338377,47.22222222222222,0.9444444444255556,1.1198501872658584,1.3968358587856944e-11,0.9963176248335488,0
485,385.2083333333333,0.8305555555555202,0.7333333333333485,0.7569444444444571,1.0972477064219532,0.03131133326854047,1.0787279188717418,52.77777777777778,1.0555555555344445,0.9688073394495451,2.7061653699173016e-12,0.99694201055559,0
486,385.94166666666666,0.7333333333333485,0.6944444444444571,0.7416666666666742,0.9887640449438305,0.028337314342842184,0.9762679814781774,50.0,0.9999999999800001,0.9363295880149888,2.896310036422378e-13,0.9987422117449802,0
487,386.6361111111111,0.6944444444444571,0.7722222222222399,0.7347222222222456,0.9451795841209701,0.027212668714948193,0.9375220543328388,47.22222222222222,0.9444444444255556,1.0510396975425238,5.142238089332618e-13,0.9992543267345997,0
488,387.40833333333336,0.7722222222222399,0.783333333333303,0.7541666666666913,1.0239410681399532,0.029167335903992876,1.0048636156404047,47.22222222222222,0.9444444444255556,1.0386740331490971,1.0820119485718122e-13,0.9983090861401596,0
489,388.19166666666666,0.783333333333303,0.8388888888889028,0.7750000000000057,1.0107526881719964,0.029602561819658802,1.019857878012396,50.0,0.9999999999800001,1.082437275985673,1.2425367809307253e-12,0.9982763562739206,0
490,389.03055555555557,0.8388888888889028,0.8083333333333371,0.7750000000000057,1.082437275985673,0.02570465318097031,0.8855683912728036,44.44444444444444,0.8888888888711112,1.0430107526881693,2.3749339731326363e-18,0.997589974969043,0
491,389.8388888888889,0.8083333333333371,0.9222222222222172,0.7750000000000057,1.0430107526881693,0.026106394621115834,0.8994090573324677,44.44444444444444,0.8888888888711112,1.189964157706078,7.2491207796303e-16,0.9981404304785193,0
492,390.7611111111111,0.9222222222222172,0.5638888888888687,0.7805555555555372,1.1814946619217295,0.02702035405162127,0.930896491800578,47.22222222222222,0.9444444444255556,0.7224199288256138,1.6592926432735492e-19,0.9985885873659075,0
493,391.325,0.5638888888888687,0.8444444444444343,0.7777777777777715,0.7249999999999799,0.028955573825107727,0.9975680570420985,50.0,0.9999999999800001,1.0857142857142816,1.3845112789567793e-06,0.9983118557752303,0
494,392.1694444444444,0.8444444444444343,0.8638888888889369,0.7958333333333201,1.0610820244328147,0.02953131841575313,1.0174034233212021,52.77777777777778,1.0555555555344445,1.0855148342060121,2.1183472727684394e-13,0.9979623471402985,0
495,393.03333333333336,0.8638888888889369,0.7111111111111086,0.7958333333333201,1.0855148342060121,0.028671053836448294,0.9877658664866305,47.22222222222222,0.9444444444255556,0.8935427574171146,1.608182709357425e-16,0.9966818549439808,0
496,393.74444444444447,0.7111111111111086,0.9777777777777601,0.7958333333333201,0.8935427574171146,0.028272778762272723,0.9740446225453651,47.22222222222222,0.9444444444255556,1.2286212914485148,2.3969101703436024e-10,0.999529465358055,0
497,394.72222222222223,0.9777777777777601,0.6527777777777715,0.82361111111112,1.187183811129814,0.028629586907796423,0.9863372612827895,50.0,0.9999999999800001,0.7925801011804223,1.958305225671062e-18,0.9984787532164978,0
498,395.375,0.6527777777777715,0.7361111111110858,0.82361111111112,0.7925801011804223,0.02859123669918536,0.9850160323089702,50.0,0.9999999999800001,0.8937605396289647,4.3730832843813516e-10,0.9978811993811781,0
499,396.1111111111111,0.7361111111110858,0.6555555555555657,0.82361111111112,0.8937605396289647,0.027963367353162478,0.9633848808294152,50.0,0.9999999999800001,0.795952782462061,9.027194004243219e-14,0.999300209568915,0
500,396.76666666666665,0.6555555555555657,0.9694444444444343,0.7722222222222115,0.8489208633093774,0.02650975238322271,0.9133054083931709,44.44444444444444,0.8888888888711112,1.2553956834532418,6.04264693837564e-10,0.9976795370181448,0
501,397.7361111111111,0.9694444444444343,0.705555555555577,0.7902777777777601,1.2267135325131957,0.027584444426470445,0.9503303508093226,50.0,0.9999999999800001,0.8927943760984655,5.170399435254449e-19,0.9989124316667561,0
502,398.44166666666666,0.705555555555577,0.6000000000000227,0.7236111111110972,0.975047984644962,0.028024088844534428,0.9654768379957447,50.0,0.9999999999800001,0.8291746641075329,2.7495976957954416e-13,0.9992338639230587,0
503,399.0416666666667,0.6000000000000227,0.8111111111110745,0.7236111111110972,0.8291746641075329,0.029326468314241,1.0103459939300725,52.77777777777778,1.0555555555344445,1.1209213051823126,7.215890462930474e-08,0.9986090334034485,0
504,399.85277777777776,0.8111111111110745,0.7666666666667084,0.7236111111110972,1.1209213051823126,0.03032483092810769,1.0447412595516048,50.0,0.9999999999800001,1.0595009596929763,9.31499669065694e-13,0.9972316587377379,0
505,400.61944444444447,0.7666666666667084,0.5277777777777715,0.7236111111110972,1.0595009596929763,0.02774199255443492,0.9557581479185571,50.0,0.9999999999800001,0.7293666026871454,1.4439529894038142e-14,0.9972366219204869,0
506,401.14722222222224,0.5277777777777715,0.86388888888888,0.7208333333333314,0.7321772639691646,0.05039344555308896,1.7361386747742928,111.11111111111111,2.222222222177778,1.1984585741811085,0.997499406337738,0.8818190172808942,1
507,402.0111111111111,0.86388888888888,0.6222222222222058,0.7208333333333314,1.1984585741811085,0.027840881387499645,0.9591650339868275,47.22222222222222,0.9444444444255556,0.8631984585741606,4.3099282978842495e-17,0.9990454280732171,0
508,402.6333333333333,0.6222222222222058,0.7138888888889028,0.7208333333333314,0.8631984585741606,0.028810792940447742,0.9925801128666714,50.0,0.9999999999800001,0.9903660886320065,1.032092966646303e-09,0.9977723580424539,0
509,403.34722222222223,0.7138888888889028,0.6611111111110972,0.7097222222222399,1.0058708414872743,0.028654685519277284,0.9872019505215746,50.0,0.9999999999800001,0.9315068493150257,1.4466118190489818e-12,0.9986351285383834,0
510,404.0083333333333,0.6611111111110972,0.6694444444444798,0.7097222222222399,0.9315068493150257,0.026499066891713836,0.912937275298402,50.0,0.9999999999800001,0.9432485322896546,4.964587768663264e-13,0.9991725522051562,0
511,404.6777777777778,0.6694444444444798,0.6777777777777487,0.6875000000000284,0.9737373737373849,0.028259125973497442,0.9735742610856328,47.22222222222222,0.9444444444255556,0.9858585858585028,6.097181353553749e-12,0.997340035789402,0
512,405.35555555555555,0.6777777777777487,0.9916666666666742,0.6736111111111143,1.0061855670102615,0.02678398120130778,0.9227530508710715,47.22222222222222,0.9444444444255556,1.4721649484536126,1.542335503756931e-08,0.9989766455458449,0
513,406.34722222222223,0.9916666666666742,0.8666666666666742,0.6958333333333258,1.4251497005988287,0.029549957052154505,1.0180455555895225,50.0,0.9999999999800001,1.2455089820359526,1.7540439798663225e-15,0.9994725433547447,0
514,407.2138888888889,0.8666666666666742,0.6777777777777487,0.6958333333333258,1.2455089820359526,0.02820578819241539,0.9717366851162413,50.0,0.9999999999800001,0.9740518962075537,1.6078461990493486e-15,0.9983692197105034,0
515,407.89166666666665,0.6777777777777487,0.6500000000000341,0.6777777777777487,1.0,0.027494455739312626,0.9472300896870252,47.22222222222222,0.9444444444255556,0.9590163934427144,5.331784818339569e-13,0.9991846358043879,0
516,408.5416666666667,0.6500000000000341,0.6749999999999545,0.6777777777777487,0.9590163934427144,0.02734855887977811,0.942203698306441,50.0,0.9999999999800001,0.9959016393442379,8.42939433531864e-12,0.999782715416619,0
517,409.21666666666664,0.6749999999999545,0.75,0.6763888888888516,0.9979466119096386,0.028979842964539333,0.9984041695783273,50.0,0.9999999999800001,1.108829568788562,4.0974418302752724e-10,0.9982946931220216,0
518,409.96666666666664,0.75,0.580555555555577,0.6777777777777487,1.1065573770492279,0.029779333347104777,1.0259479534583102,52.77777777777778,1.0555555555344445,0.8565573770492487,2.377575740453164e-11,0.9974230837407785,0
519,410.5472222222222,0.580555555555577,0.7555555555555884,0.6763888888888516,0.8583162217659928,0.04835237830317752,1.6658204865358377,108.33333333333333,2.166666666623333,1.1170431211500074,0.9982110261917114,0.8974921755853343,1
520,411.3027777777778,0.7555555555555884,0.7749999999999773,0.6777777777777487,1.114754098360752,0.02960817759221495,1.0200513507907791,50.0,0.9999999999800001,1.1434426229508352,7.939315871396957e-11,0.9971184906171766,0
521,412.0777777777778,0.7749999999999773,1.2805555555555657,0.7138888888888744,1.085603112840457,0.027251508277036603,0.938860142354265,47.22222222222222,0.9444444444255556,1.7937743190661986,6.492669513136207e-08,0.9978413766401636,0
522,413.35833333333335,1.2805555555555657,0.7361111111110858,0.7527777777777942,1.701107011070087,0.02946456608508701,1.0151036936315805,50.0,0.9999999999800001,0.9778597785977311,1.4929310960443432e-23,0.9992040035257439,0
523,414.09444444444443,0.7361111111110858,0.9194444444444798,0.7430555555555429,0.9906542056074594,0.02942827279332726,1.0138533288913367,47.22222222222222,0.9444444444255556,1.237383177570162,2.2781829200901882e-10,0.997110627782104,0
524,415.0138888888889,0.9194444444444798,0.5944444444444343,0.7430555555555429,1.237383177570162,0.02836288623141774,0.977148975906238,47.22222222222222,0.9444444444255556,0.8,1.6229232333092425e-17,0.9963212493633613,0
