beat_index,peak_time_s,rr_prev_s,rr_next_s,rr_baseline_s,prematurity_index,aa_ratio,morph_index,qrs_width_ms,width_index,pause_index,pvc_score,morphology_score,is_pvc_candidate
0,0.05,,0.8222222222222222,0.8916666666666515,,0.020016774961799867,0.9480735883526914,36.111111111111114,0.9999999999723078,0.9221183800623209,0.0,,0
1,0.8722222222222222,0.8222222222222222,0.8305555555555555,0.8916666666666515,0.9221183800623209,0.01797286534180658,0.8512659491903546,33.333333333333336,0.923076923051361,0.9314641744548444,0.0,0.9896205046029896,0
2,1.7027777777777777,0.8305555555555555,0.8444444444444443,0.8916666666666515,0.9314641744548444,0.026505359418387407,1.2553985975425486,38.888888888888886,1.0769230768932543,0.9470404984423836,0.0,0.9965567048178514,0
3,2.547222222222222,0.8444444444444443,0.827777777777778,0.8916666666666515,0.9470404984423836,0.018466558299649553,0.874649199238371,36.111111111111114,0.9999999999723078,0.9283489096573369,0.0,0.9917263123431685,0
4,3.375,0.827777777777778,0.8444444444444441,0.8916666666666515,0.9283489096573369,0.019080265895022226,0.9037168169367594,36.111111111111114,0.9999999999723078,0.9470404984423834,0.0,0.9904017239959488,0
5,4.219444444444444,0.8444444444444441,0.8305555555555557,0.8916666666666515,0.9470404984423834,0.02267084333814203,1.0737807581687158,38.888888888888886,1.0769230768932543,0.9314641744548446,0.0,0.9928267891205239,0
6,5.05,0.8305555555555557,0.844444444444445,0.8916666666666515,0.9314641744548446,0.020021637960342998,0.948303919187091,36.111111111111114,0.9999999999723078,0.9470404984423844,0.0,0.9930118246547813,0
7,5.894444444444445,0.844444444444445,0.8416666666666659,0.8916666666666515,0.9470404984423844,0.022344361614186285,1.0583172931423563,36.111111111111114,0.9999999999723078,0.943925233644875,0.0,0.9949870156661765,0
8,6.736111111111111,0.8416666666666659,0.8305555555555557,0.8916666666666515,0.943925233644875,0.022906047226579376,1.0849209440843217,38.888888888888886,1.0769230768932543,0.9314641744548446,0.0,0.9957713682186127,0
9,7.566666666666666,0.8305555555555557,0.8416666666666668,0.8916666666666515,0.9314641744548446,0.019940663543174506,0.9444686506987253,33.333333333333336,0.923076923051361,0.943925233644876,0.0,0.989722202231796,0
10,8.408333333333333,0.8416666666666668,0.8416666666666668,0.8916666666666515,0.943925233644876,0.026347700113473514,1.2479312296357725,38.888888888888886,1.0769230768932543,0.943925233644876,0.0,0.9968011961061272,0
11,9.25,0.8416666666666668,0.8166666666666664,0.8916666666666515,0.943925233644876,0.025519926214475755,1.2087245855952014,36.111111111111114,0.9999999999723078,0.915887850467305,0.0,0.9976027223894524,0
12,10.066666666666666,0.8166666666666664,0.8388888888888886,0.8916666666666515,0.915887850467305,0.01875444355045577,0.8882845827247987,36.111111111111114,0.9999999999723078,0.9408099688473677,0.0,0.9916684522744762,0
13,10.905555555555555,0.8388888888888886,0.8333333333333339,0.8916666666666515,0.9408099688473677,0.01910528287176991,0.9049017198474519,36.111111111111114,0.9999999999723078,0.934579439252353,0.0,0.9937677143751061,0
14,11.738888888888889,0.8333333333333339,0.8499999999999996,0.8916666666666515,0.934579439252353,0.019533522813428107,0.9251848563136735,36.111111111111114,0.9999999999723078,0.9532710280373989,0.0,0.9931974629264941,0
15,12.588888888888889,0.8499999999999996,0.8333333333333339,0.8916666666666515,0.9532710280373989,0.021934792748559702,1.0389184926436161,36.111111111111114,0.9999999999723078,0.934579439252353,0.0,0.9947473904537539,0
16,13.422222222222222,0.8333333333333339,0.8249999999999993,0.8916666666666515,0.934579439252353,0.02666638163012465,1.2630252460100242,38.888888888888886,1.0769230768932543,0.9252336448598281,0.0,0.998062945515259,0
17,14.247222222222222,0.8249999999999993,0.8527777777777779,0.8916666666666515,0.9252336448598281,0.01893283392869955,0.8967338562142564,36.111111111111114,0.9999999999723078,0.9563862928349073,0.0,0.9931886153216974,0
18,15.1,0.8527777777777779,0.8472222222222232,0.8916666666666515,0.9563862928349073,0.019079734753652888,0.9036916599819097,36.111111111111114,0.9999999999723078,0.9501557632398927,0.0,0.991069154815158,0
19,15.947222222222223,0.8472222222222232,0.8194444444444429,0.8916666666666515,0.9501557632398927,0.02617302894033187,1.239658112401942,36.111111111111114,0.9999999999723078,0.9190031152648114,0.0,0.9959006052611349,0
20,16.766666666666666,0.8194444444444429,0.8472222222222214,0.8916666666666515,0.9190031152648114,0.02047996276847227,0.9700119938546351,36.111111111111114,0.9999999999723078,0.9501557632398907,0.0,0.9925091803003111,0
21,17.613888888888887,0.8472222222222214,0.8305555555555557,0.8916666666666515,0.9501557632398907,0.020432994497115296,0.9677873908579431,38.888888888888886,1.0769230768932543,0.9314641744548446,0.0,0.9928070156322965,0
22,18.444444444444443,0.8305555555555557,0.844444444444445,0.8916666666666515,0.9314641744548446,0.02097619258408073,0.9935153995146048,38.888888888888886,1.0769230768932543,0.9470404984423844,0.0,0.9908836284412341,0
23,19.288888888888888,0.844444444444445,0.8333333333333357,0.8916666666666515,0.9470404984423844,0.019655134195480248,0.9309448520965474,36.111111111111114,0.9999999999723078,0.934579439252355,0.0,0.9918376945088605,0
24,20.122222222222224,0.8333333333333357,0.8138888888888864,0.8916666666666515,0.934579439252355,0.02651307594111071,1.255764082562081,38.888888888888886,1.0769230768932543,0.9127725856697947,0.0,0.9978464878683422,0
25,20.93611111111111,0.8138888888888864,0.847222222222225,0.8916666666666515,0.9127725856697947,0.021704484118989845,1.0280101655388958,36.111111111111114,0.9999999999723078,0.9501557632398946,0.0,0.9950185708790926,0
26,21.783333333333335,0.847222222222225,0.8361111111111086,0.8916666666666515,0.9501557632398946,0.022215080549790548,1.0521940308854927,36.111111111111114,0.9999999999723078,0.9376947040498573,0.0,0.9948348108042816,0
27,22.619444444444444,0.8361111111111086,0.8249999999999993,0.8916666666666515,0.9376947040498573,0.022020330155968715,1.042969882387239,36.111111111111114,0.9999999999723078,0.9252336448598281,0.0,0.9955017454344173,0
28,23.444444444444443,0.8249999999999993,0.8361111111111121,0.8916666666666515,0.9252336448598281,0.02611191814981307,1.2367636637924733,38.888888888888886,1.0769230768932543,0.9376947040498613,0.0,0.997615425475294,0
29,24.280555555555555,0.8361111111111121,0.8249999999999993,0.8916666666666515,0.9376947040498613,0.019337442411314215,0.9158977133651952,36.111111111111114,0.9999999999723078,0.9252336448598281,0.0,0.9928306036451418,0
30,25.105555555555554,0.8249999999999993,0.8500000000000014,0.8916666666666515,0.9252336448598281,0.02626556603050309,1.244041034790877,38.888888888888886,1.0769230768932543,0.9532710280374009,0.0,0.998353650661747,0
31,25.955555555555556,0.8500000000000014,0.8194444444444429,0.8916666666666515,0.9532710280374009,0.018795487665941232,0.890228594281272,36.111111111111114,0.9999999999723078,0.9190031152648114,0.0,0.9926058439610557,0
32,26.775,0.8194444444444429,0.8194444444444464,0.8916666666666515,0.9190031152648114,0.019020247660984493,0.9008741161211017,36.111111111111114,0.9999999999723078,0.9190031152648154,0.0,0.9934523771049592,0
33,27.594444444444445,0.8194444444444464,0.844444444444445,0.8916666666666515,0.9190031152648154,0.026407259328093537,1.250752189477307,38.888888888888886,1.0769230768932543,0.9470404984423844,0.0,0.9981172852577176,0
34,28.43888888888889,0.844444444444445,0.8361111111111086,0.8916666666666515,0.9470404984423844,0.025903802369750314,1.2269064777685779,38.888888888888886,1.0769230768932543,0.9376947040498573,0.0,0.9983405405531681,0
35,29.275,0.8361111111111086,0.8194444444444464,0.8916666666666515,0.9376947040498573,0.019528187165109866,0.9249321389175437,36.111111111111114,0.9999999999723078,0.9190031152648154,0.0,0.9912325693181733,0
36,30.094444444444445,0.8194444444444464,0.8499999999999979,0.8916666666666515,0.9190031152648154,0.02676296969547414,1.2676000385968766,38.888888888888886,1.0769230768932543,0.9532710280373969,0.0,0.9960854335510227,0
37,30.944444444444443,0.8499999999999979,0.8277777777777793,0.8916666666666515,0.9532710280373969,0.02590462194368095,1.2269452960297023,36.111111111111114,0.9999999999723078,0.9283489096573383,0.0,0.9946386095810991,0
38,31.772222222222222,0.8277777777777793,0.8499999999999979,0.8916666666666515,0.9283489096573383,0.022477203283414442,1.0646091997191276,38.888888888888886,1.0769230768932543,0.9532710280373969,0.0,0.9964914672423659,0
39,32.62222222222222,0.8499999999999979,0.8222222222222229,0.8916666666666515,0.9532710280373969,0.025483786119040425,1.2070128478138569,36.111111111111114,0.9999999999723078,0.9221183800623217,0.0,0.9970965310559882,0
40,33.44444444444444,0.8222222222222229,0.8194444444444429,0.8916666666666515,0.9221183800623217,0.02222762710218194,1.052788285203177,36.111111111111114,0.9999999999723078,0.9190031152648114,0.0,0.995591325957996,0
41,34.263888888888886,0.8194444444444429,0.8638888888888943,0.8916666666666515,0.9190031152648114,0.02645805900771892,1.253158263115119,38.888888888888886,1.0769230768932543,0.9688473520249447,0.0,0.9972757300779024,0
42,35.12777777777778,0.8638888888888943,0.8388888888888886,0.8916666666666515,0.9688473520249447,0.019317452059756504,0.9149508912937117,36.111111111111114,0.9999999999723078,0.9408099688473677,0.0,0.9939281222333541,0
43,35.96666666666667,0.8388888888888886,0.8249999999999957,0.8916666666666515,0.9408099688473677,0.02564093386262464,1.2144559861538615,38.888888888888886,1.0769230768932543,0.9252336448598241,0.0,0.9990569106054562,0
44,36.791666666666664,0.8249999999999957,0.8472222222222214,0.8916666666666515,0.9252336448598241,0.018621506918905236,0.8819881783570542,36.111111111111114,0.9999999999723078,0.9501557632398907,0.0,0.9937096005649677,0
45,37.638888888888886,0.8472222222222214,0.8250000000000028,0.8916666666666515,0.9501557632398907,0.022153340054722925,1.0492697569793745,36.111111111111114,0.9999999999723078,0.925233644859832,0.0,0.9956762326926734,0
46,38.46388888888889,0.8250000000000028,0.8555555555555543,0.8916666666666515,0.925233644859832,0.021925895908009085,1.0384971031059946,36.111111111111114,0.9999999999723078,0.9595015576324136,0.0,0.9947675912002123,0
47,39.31944444444444,0.8555555555555543,0.8333333333333357,0.8916666666666515,0.9595015576324136,0.025620721851897274,1.213498665427886,38.888888888888886,1.0769230768932543,0.934579439252355,0.0,0.9993995934610607,0
48,40.15277777777778,0.8333333333333357,0.8333333333333357,0.8916666666666515,0.934579439252355,0.02014934117025855,0.9543524480185263,36.111111111111114,0.9999999999723078,0.934579439252355,0.0,0.9918297357370154,0
49,40.986111111111114,0.8333333333333357,0.86666666666666,0.8916666666666515,0.934579439252355,0.02428078838560493,1.150034119717301,38.888888888888886,1.0769230768932543,0.971962616822439,0.0,0.9950658515442372,0
50,41.852777777777774,0.86666666666666,0.8333333333333357,0.8916666666666515,0.971962616822439,0.02144938110122861,1.0159274781974008,36.111111111111114,0.9999999999723078,0.934579439252355,0.0,0.9954071578065411,0
51,42.68611111111111,0.8333333333333357,0.81666666666667,0.8916666666666515,0.934579439252355,0.022741499567505458,1.0771273164949142,36.111111111111114,0.9999999999723078,0.915887850467309,0.0,0.9955426087572744,0
52,43.50277777777778,0.81666666666667,0.8361111111111086,0.8916666666666515,0.915887850467309,0.019449681521775352,0.9212138013169996,36.111111111111114,0.9999999999723078,0.9376947040498573,0.0,0.9909097206653728,0
53,44.33888888888889,0.8361111111111086,0.8277777777777757,0.8916666666666515,0.9376947040498573,0.022084077302579913,1.0459891992427397,36.111111111111114,0.9999999999723078,0.9283489096573343,0.0,0.9959993450754442,0
54,45.166666666666664,0.8277777777777757,0.81111111111111,0.8916666666666515,0.9283489096573343,0.01857600074716975,0.8798328261781048,33.333333333333336,0.923076923051361,0.9096573208722883,0.0,0.9925071059638784,0
55,45.977777777777774,0.81111111111111,0.81666666666667,0.8916666666666515,0.9096573208722883,0.025391984413220374,1.202664756134762,36.111111111111114,0.9999999999723078,0.915887850467309,0.0,0.9994439330782487,0
56,46.794444444444444,0.81666666666667,0.8194444444444429,0.8916666666666515,0.915887850467309,0.021569392452835075,1.021611690213459,36.111111111111114,0.9999999999723078,0.9190031152648114,0.0,0.9959278606224784,0
57,47.61388888888889,0.8194444444444429,0.8416666666666686,0.8916666666666515,0.9190031152648114,0.02502032109999593,1.1850613124381526,36.111111111111114,0.9999999999723078,0.943925233644878,0.0,0.9941554380112458,0
58,48.455555555555556,0.8416666666666686,0.8277777777777757,0.8916666666666515,0.943925233644878,0.018909487360671377,0.895628070463633,36.111111111111114,0.9999999999723078,0.9283489096573343,0.0,0.9943732181821533,0
59,49.28333333333333,0.8277777777777757,0.5388888888888914,0.8916666666666515,0.9283489096573343,0.025150565841028545,1.1912302182299452,36.111111111111114,0.9999999999723078,0.604361370716524,0.0,0.9981461646967362,0
60,49.82222222222222,0.5388888888888914,0.9805555555555543,0.8916666666666515,0.604361370716524,0.02060248364194076,0.9758150667462,30.555555555555557,0.8461538461304142,1.0996884735202666,0.0,0.987427628954519,0
61,50.80277777777778,0.9805555555555543,0.8611111111111143,0.8916666666666515,1.0996884735202666,0.0191255544824232,0.9058618634615172,36.111111111111114,0.9999999999723078,0.9657320872274343,0.0,0.9919238402843756,0
62,51.66388888888889,0.8611111111111143,0.8583333333333343,0.8916666666666515,0.9657320872274343,0.02082346162218925,0.9862814574150732,36.111111111111114,0.9999999999723078,0.962616822429924,0.0,0.9911733352639737,0
63,52.522222222222226,0.8583333333333343,0.8583333333333272,0.8916666666666515,0.962616822429924,0.025927875700688288,1.2280466858834975,38.888888888888886,1.0769230768932543,0.962616822429916,0.0,0.9987996696540344,0
64,53.38055555555555,0.8583333333333272,0.8500000000000014,0.8916666666666515,0.962616822429916,0.018188081605714255,0.8614594421973051,36.111111111111114,0.9999999999723078,0.9532710280374009,0.0,0.9921617684502779,0
65,54.230555555555554,0.8500000000000014,0.87777777777778,0.8916666666666515,0.9532710280374009,0.022853105366169694,1.0824134082965406,38.888888888888886,1.0769230768932543,0.9844236760124803,0.0,0.9960904902793453,0
66,55.108333333333334,0.87777777777778,0.8583333333333343,0.8916666666666515,0.9844236760124803,0.022127170221074396,1.0480302502086232,36.111111111111114,0.9999999999723078,0.962616822429924,0.0,0.9963499804184403,0
67,55.96666666666667,0.8583333333333343,0.8166666666666629,0.8916666666666515,0.962616822429924,0.01858605334703616,0.8803089570456301,36.111111111111114,0.9999999999723078,0.915887850467301,0.0,0.9929034263837,0
68,56.78333333333333,0.8166666666666629,0.8305555555555557,0.8916666666666515,0.915887850467301,0.022079491060877737,1.0457719767063456,36.111111111111114,0.9999999999723078,0.9314641744548446,0.0,0.9961593856055295,0
69,57.61388888888889,0.8305555555555557,0.8527777777777814,0.8916666666666515,0.9314641744548446,0.019290252248924736,0.9136626007320702,36.111111111111114,0.9999999999723078,0.9563862928349113,0.0,0.9936551389390748,0
70,58.46666666666667,0.8527777777777814,0.8388888888888886,0.8916666666666515,0.9563862928349113,0.023435031099706558,1.1099757113849227,38.888888888888886,1.0769230768932543,0.9408099688473677,0.0,0.9945164383328319,0
71,59.30555555555556,0.8388888888888886,0.8194444444444429,0.8916666666666515,0.9408099688473677,0.02675033703261907,1.2670017057472387,38.888888888888886,1.0769230768932543,0.9190031152648114,0.0,0.9972801628241006,0
72,60.125,0.8194444444444429,0.8388888888888886,0.8916666666666515,0.9190031152648114,0.019583859731174807,0.9275690117196169,36.111111111111114,0.9999999999723078,0.9408099688473677,0.0,0.9920614575993084,0
73,60.96388888888889,0.8388888888888886,0.8388888888888886,0.8916666666666515,0.9408099688473677,0.02008658663309749,0.951380145070362,36.111111111111114,0.9999999999723078,0.9408099688473677,0.0,0.9926698881620832,0
74,61.80277777777778,0.8388888888888886,0.8222222222222229,0.8916666666666515,0.9408099688473677,0.026732809664972768,1.2661715403299565,38.888888888888886,1.0769230768932543,0.9221183800623217,0.0,0.9953976995603162,0
75,62.625,0.8222222222222229,0.8277777777777757,0.8916666666666515,0.9221183800623217,0.019800117628533013,0.9378118406043539,36.111111111111114,0.9999999999723078,0.9283489096573343,0.0,0.9913076258135145,0
76,63.452777777777776,0.8277777777777757,0.8472222222222214,0.8916666666666515,0.9283489096573343,0.022135164709040714,1.0484089007608592,36.111111111111114,0.9999999999723078,0.9501557632398907,0.0,0.9961666461455747,0
77,64.3,0.8472222222222214,0.8555555555555543,0.8916666666666515,0.9501557632398907,0.021782234526905274,1.0316927322045522,36.111111111111114,0.9999999999723078,0.9595015576324136,0.0,0.9953453121105813,0
78,65.15555555555555,0.8555555555555543,0.8444444444444485,0.8916666666666515,0.9595015576324136,0.019764099807023577,0.9361058941994876,36.111111111111114,0.9999999999723078,0.9470404984423884,0.0,0.9917363246482493,0
79,66.0,0.8444444444444485,0.8361111111111086,0.8916666666666515,0.9470404984423884,0.023350452013401354,1.1059697115170122,38.888888888888886,1.0769230768932543,0.9376947040498573,0.0,0.9939955912198287,0
80,66.83611111111111,0.8361111111111086,0.86944444444444,0.8916666666666515,0.9376947040498573,0.022001274609376103,1.0420673363741797,36.111111111111114,0.9999999999723078,0.9750778816199493,0.0,0.9957517043326297,0
81,67.70555555555555,0.86944444444444,0.8444444444444485,0.8916666666666515,0.9750778816199493,0.020007962816475836,0.9476562103158007,38.888888888888886,1.0769230768932543,0.9470404984423884,0.0,0.9918990905078168,0
82,68.55,0.8444444444444485,0.8361111111111086,0.8916666666666515,0.9470404984423884,0.026023382776965313,1.2325702785547363,38.888888888888886,1.0769230768932543,0.9376947040498573,0.0,0.9980436681526242,0
83,69.3861111111111,0.8361111111111086,0.8444444444444485,0.8916666666666515,0.9376947040498573,0.01866280352531998,0.8839441488820331,33.333333333333336,0.923076923051361,0.9470404984423884,0.0,0.9932369409488534,0
84,70.23055555555555,0.8444444444444485,0.8499999999999943,0.8916666666666515,0.9470404984423884,0.02233031197295553,1.0576518465955411,38.888888888888886,1.0769230768932543,0.953271028037393,0.0,0.996533717440492,0
85,71.08055555555555,0.8499999999999943,0.8472222222222285,0.8916666666666515,0.953271028037393,0.019013564081758562,0.9005575553888229,36.111111111111114,0.9999999999723078,0.9501557632398986,0.0,0.9936274504955209,0
86,71.92777777777778,0.8472222222222285,0.8527777777777743,0.8916666666666515,0.9501557632398986,0.026117783385019286,1.2370414645170706,38.888888888888886,1.0769230768932543,0.9563862928349033,0.0,0.9977106501268067,0
87,72.78055555555555,0.8527777777777743,0.8444444444444485,0.8916666666666515,0.9563862928349033,0.01939984245107327,0.9188532259150749,36.111111111111114,0.9999999999723078,0.9470404984423884,0.0,0.9924166922654507,0
88,73.625,0.8444444444444485,0.8555555555555543,0.8916666666666515,0.9470404984423884,0.025788176556908102,1.2214299822043966,38.888888888888886,1.0769230768932543,0.9595015576324136,0.0,0.9978229691530083,0
89,74.48055555555555,0.8555555555555543,0.8527777777777743,0.8916666666666515,0.9595015576324136,0.022359750590693683,1.0590461759022558,36.111111111111114,0.9999999999723078,0.9563862928349033,0.0,0.9961620139426667,0
90,75.33333333333333,0.8527777777777743,0.8444444444444485,0.8916666666666515,0.9563862928349033,0.02253293442910823,1.0672488470839878,38.888888888888886,1.0769230768932543,0.9470404984423884,0.0,0.9960590294186874,0
91,76.17777777777778,0.8444444444444485,0.8472222222222285,0.8916666666666515,0.9470404984423884,0.026537630028032062,1.2569270611807983,38.888888888888886,1.0769230768932543,0.9501557632398986,0.0,0.9966403688728855,0
92,77.025,0.8472222222222285,0.86388888888888,0.8916666666666515,0.9501557632398986,0.022820157653664457,1.0808528743902313,38.888888888888886,1.0769230768932543,0.9688473520249287,0.0,0.9949218787803504,0
93,77.88888888888889,0.86388888888888,0.8444444444444485,0.8916666666666515,0.9688473520249287,0.01911487320278682,0.9053559558349196,36.111111111111114,0.9999999999723078,0.9470404984423884,0.0,0.9931649383916574,0
94,78.73333333333333,0.8444444444444485,0.8222222222222229,0.8916666666666515,0.9470404984423884,0.01857535374409796,0.8798021815550265,36.111111111111114,0.9999999999723078,0.9221183800623217,0.0,0.992164523478233,0
95,79.55555555555556,0.8222222222222229,0.8638888888888943,0.8916666666666515,0.9221183800623217,0.026121934820695778,1.2372380929213036,38.888888888888886,1.0769230768932543,0.9688473520249447,0.0,0.9975173931309158,0
96,80.41944444444445,0.8638888888888943,0.8444444444444343,0.8916666666666515,0.9688473520249447,0.019404069834189897,0.9190534514902923,36.111111111111114,0.9999999999723078,0.9470404984423724,0.0,0.9936780287168738,0
97,81.26388888888889,0.8444444444444343,0.8194444444444429,0.8916666666666515,0.9470404984423724,0.023229755603433617,1.1002530524289333,38.888888888888886,1.0769230768932543,0.9190031152648114,0.0,0.9965177093554664,0
98,82.08333333333333,0.8194444444444429,0.8333333333333428,0.8916666666666515,0.9190031152648114,0.01959004686193652,0.9278620586901732,36.111111111111114,0.9999999999723078,0.934579439252363,0.0,0.9926746996198528,0
99,82.91666666666667,0.8333333333333428,0.8194444444444429,0.8916666666666515,0.934579439252363,0.019891616322116633,0.9421455804261261,36.111111111111114,0.9999999999723078,0.9190031152648114,0.0,0.992912138857323,0
100,83.73611111111111,0.8194444444444429,0.8388888888888886,0.8916666666666515,0.9190031152648114,0.02157888499544623,1.0220612945554735,36.111111111111114,0.9999999999723078,0.9408099688473677,0.0,0.9942702298202952,0
101,84.575,0.8388888888888886,0.8250000000000028,0.8916666666666515,0.9408099688473677,0.019653679641443413,0.9308759586675216,36.111111111111114,0.9999999999723078,0.925233644859832,0.0,0.9937893799846531,0
102,85.4,0.8250000000000028,0.7972222222222172,0.8916666666666515,0.925233644859832,0.01904770930887552,0.9021748083209096,36.111111111111114,0.9999999999723078,0.8940809968847447,0.0,0.991968971965661,0
103,86.19722222222222,0.7972222222222172,0.8611111111111143,0.8916666666666515,0.8940809968847447,0.0255751395238251,1.2113397061837856,38.888888888888886,1.0769230768932543,0.9657320872274343,0.0,0.9985072519028225,0
104,87.05833333333334,0.8611111111111143,0.8583333333333343,0.8916666666666515,0.9657320872274343,0.02284121067053759,1.0818500284917614,38.888888888888886,1.0769230768932543,0.962616822429924,0.0,0.996369314864594,0
105,87.91666666666667,0.8583333333333343,0.8194444444444429,0.8916666666666515,0.962616822429924,0.02369296561776491,1.1221925097733887,38.888888888888886,1.0769230768932543,0.9190031152648114,0.0,0.9949920853082086,0
106,88.73611111111111,0.8194444444444429,0.8333333333333286,0.8916666666666515,0.9190031152648114,0.021898536425654966,1.0372012498698742,36.111111111111114,0.9999999999723078,0.934579439252347,0.0,0.9949865655872134,0
107,89.56944444444444,0.8333333333333286,0.8250000000000028,0.8916666666666515,0.934579439252347,0.0229172876858133,1.0854533366670918,38.888888888888886,1.0769230768932543,0.925233644859832,0.0,0.9965422482182164,0
108,90.39444444444445,0.8250000000000028,0.8416666666666686,0.8916666666666515,0.925233644859832,0.02618056046743185,1.2400148352974674,38.888888888888886,1.0769230768932543,0.943925233644878,0.0,0.9977102608785202,0
109,91.23611111111111,0.8416666666666686,0.8277777777777686,0.8916666666666515,0.943925233644878,0.01867383499616516,0.8844666429485827,36.111111111111114,0.9999999999723078,0.9283489096573264,0.0,0.992363633525587,0
110,92.06388888888888,0.8277777777777686,0.8194444444444571,0.8916666666666515,0.9283489096573264,0.02184804697715392,1.034809870004452,36.111111111111114,0.9999999999723078,0.9190031152648273,0.0,0.9954282473951678,0
111,92.88333333333334,0.8194444444444571,0.8416666666666544,0.8916666666666515,0.9190031152648273,0.01931200074092096,0.9146926952846376,36.111111111111114,0.9999999999723078,0.943925233644862,0.0,0.9940717314164231,0
112,93.725,0.8416666666666544,0.8250000000000028,0.8916666666666515,0.943925233644862,0.018928455550767897,0.896526478927718,36.111111111111114,0.9999999999723078,0.925233644859832,0.0,0.9930154895921939,0
113,94.55,0.8250000000000028,0.8083333333333371,0.8916666666666515,0.925233644859832,0.02593778989324475,1.2285162612337006,36.111111111111114,0.9999999999723078,0.906542056074786,0.0,0.9940271247163721,0
114,95.35833333333333,0.8083333333333371,0.8305555555555486,0.8916666666666515,0.906542056074786,0.021890369190879427,1.0368144173458866,36.111111111111114,0.9999999999723078,0.9314641744548368,0.0,0.9938318948288472,0
115,96.18888888888888,0.8305555555555486,0.8333333333333428,0.8916666666666515,0.9314641744548368,0.021559133119031217,1.0211257676094385,36.111111111111114,0.9999999999723078,0.934579439252363,0.0,0.9936081104143066,0
116,97.02222222222223,0.8333333333333428,0.8583333333333343,0.8916666666666515,0.934579439252363,0.01839141541517622,0.8710901351904532,33.333333333333336,0.923076923051361,0.962616822429924,0.0,0.9930723473506493,0
117,97.88055555555556,0.8583333333333343,0.8472222222222143,0.8916666666666515,0.962616822429924,0.018356160531100976,0.8694203245183563,36.111111111111114,0.9999999999723078,0.9501557632398827,0.0,0.9920176082379611,0
118,98.72777777777777,0.8472222222222143,0.8527777777777743,0.8916666666666515,0.9501557632398827,0.02221263479186985,1.0520781901223057,36.111111111111114,0.9999999999723078,0.9563862928349033,0.0,0.9949013410586971,0
119,99.58055555555555,0.8527777777777743,0.8666666666666742,0.8916666666666515,0.9563862928349033,0.02222717455307975,1.052766850688774,36.111111111111114,0.9999999999723078,0.9719626168224549,0.0,0.9946293266586848,0
120,100.44722222222222,0.8666666666666742,0.8499999999999943,0.8916666666666515,0.9719626168224549,0.01868435077204818,0.884964711663186,36.111111111111114,0.9999999999723078,0.953271028037393,0.0,0.9930782612576825,0
121,101.29722222222222,0.8499999999999943,0.8472222222222285,0.8916666666666515,0.953271028037393,0.021937670308195597,1.0390547852429437,36.111111111111114,0.9999999999723078,0.9501557632398986,0.0,0.9954586571223416,0
122,102.14444444444445,0.8472222222222285,0.8472222222222143,0.8916666666666515,0.9501557632398986,0.01842423833250925,0.8726447583040923,36.111111111111114,0.9999999999723078,0.9501557632398827,0.0,0.9926058609142514,0
123,102.99166666666666,0.8472222222222143,0.8666666666666742,0.8916666666666515,0.9501557632398827,0.025965316959918786,1.229820051925672,36.111111111111114,0.9999999999723078,0.9719626168224549,0.0,0.9947722157383148,0
124,103.85833333333333,0.8666666666666742,0.8527777777777743,0.8916666666666515,0.9719626168224549,0.022311579178588073,1.0567645874037022,36.111111111111114,0.9999999999723078,0.9563862928349033,0.0,0.9948226502164715,0
125,104.71111111111111,0.8527777777777743,0.8527777777777743,0.8916666666666515,0.9563862928349033,0.021250113504082523,1.0064893770932397,36.111111111111114,0.9999999999723078,0.9563862928349033,0.0,0.9962843065168472,0
126,105.56388888888888,0.8527777777777743,0.8638888888888943,0.8916666666666515,0.9563862928349033,0.020080758017512756,0.951104078795795,36.111111111111114,0.9999999999723078,0.9688473520249447,0.0,0.9910525048665699,0
127,106.42777777777778,0.8638888888888943,0.8555555555555543,0.8916666666666515,0.9688473520249447,0.01919812167431451,0.9092989325270568,36.111111111111114,0.9999999999723078,0.9595015576324136,0.0,0.994493427056711,0
128,107.28333333333333,0.8555555555555543,0.8388888888888886,0.8916666666666515,0.9595015576324136,0.025100134593745774,1.1888415950042897,36.111111111111114,0.9999999999723078,0.9408099688473677,0.0,0.9976166591234227,0
129,108.12222222222222,0.8388888888888886,0.8583333333333343,0.8916666666666515,0.9408099688473677,0.026220915869521935,1.2419262266650568,38.888888888888886,1.0769230768932543,0.962616822429924,0.0,0.9984319575181413,0
130,108.98055555555555,0.8583333333333343,0.8499999999999943,0.8916666666666515,0.962616822429924,0.021351635869377703,1.0112978776307708,36.111111111111114,0.9999999999723078,0.953271028037393,0.0,0.9937804196967365,0
131,109.83055555555555,0.8499999999999943,0.8555555555555685,0.8916666666666515,0.953271028037393,0.023599303527082244,1.1177563029131132,38.888888888888886,1.0769230768932543,0.9595015576324296,0.0,0.9948052361482362,0
132,110.68611111111112,0.8555555555555685,0.8472222222222143,0.8916666666666515,0.9595015576324296,0.026274646405399536,1.2444711172406266,38.888888888888886,1.0769230768932543,0.9501557632398827,0.0,0.9983949599514838,0
133,111.53333333333333,0.8472222222222143,0.8416666666666686,0.8916666666666515,0.9501557632398827,0.026151146542462783,1.2386216755379067,38.888888888888886,1.0769230768932543,0.943925233644878,0.0,0.9983513093555263,0
134,112.375,0.8416666666666686,0.86944444444444,0.8916666666666515,0.943925233644878,0.026068040718991395,1.2346854552216027,38.888888888888886,1.0769230768932543,0.9750778816199493,0.0,0.9970316952631691,0
135,113.24444444444444,0.86944444444444,0.8361111111111086,0.8916666666666515,0.9750778816199493,0.018740425337221422,0.8876206247321278,36.111111111111114,0.9999999999723078,0.9376947040498573,0.0,0.9927408367923476,0
136,114.08055555555555,0.8361111111111086,0.8250000000000028,0.8916666666666515,0.9376947040498573,0.01843649372779684,0.8732252222703986,36.111111111111114,0.9999999999723078,0.925233644859832,0.0,0.9927145361296249,0
137,114.90555555555555,0.8250000000000028,0.8527777777777885,0.8916666666666515,0.925233644859832,0.018798492866822003,0.8903709324745219,36.111111111111114,0.9999999999723078,0.9563862928349193,0.0,0.993468857965677,0
138,115.75833333333334,0.8527777777777885,0.8472222222222143,0.8916666666666515,0.9563862928349193,0.026131316520639845,1.2376824473164443,38.888888888888886,1.0769230768932543,0.9501557632398827,0.0,0.9982897657480314,0
139,116.60555555555555,0.8472222222222143,0.8444444444444485,0.8916666666666515,0.9501557632398827,0.018973683509039763,0.8986686538172546,36.111111111111114,0.9999999999723078,0.9470404984423884,0.0,0.9930028691987183,0
140,117.45,0.8444444444444485,0.8277777777777686,0.8916666666666515,0.9470404984423884,0.019671226871508758,0.9317070648474857,36.111111111111114,0.9999999999723078,0.9283489096573264,0.0,0.9911576367628464,0
141,118.27777777777777,0.8277777777777686,0.8222222222222229,0.8916666666666515,0.9283489096573264,0.01933044063635541,0.915566081625182,38.888888888888886,1.0769230768932543,0.9221183800623217,0.0,0.9918621792739057,0
142,119.1,0.8222222222222229,0.8555555555555543,0.8916666666666515,0.9221183800623217,0.025988073165213232,1.2308978757635263,36.111111111111114,0.9999999999723078,0.9595015576324136,0.0,0.997336234623333,0
143,119.95555555555555,0.8555555555555543,0.8333333333333428,0.8916666666666515,0.9595015576324136,0.018970612995820296,0.8985232221734648,36.111111111111114,0.9999999999723078,0.934579439252363,0.0,0.9908137265104924,0
144,120.78888888888889,0.8333333333333428,0.8277777777777686,0.8916666666666515,0.934579439252363,0.021744921975607574,1.0299254622788565,36.111111111111114,0.9999999999723078,0.9283489096573264,0.0,0.9954831151178698,0
145,121.61666666666666,0.8277777777777686,0.8388888888888886,0.8916666666666515,0.9283489096573264,0.0255726127803722,1.2112200296256583,38.888888888888886,1.0769230768932543,0.9408099688473677,0.0,0.9990163601328932,0
146,122.45555555555555,0.8388888888888886,0.8555555555555685,0.8916666666666515,0.9408099688473677,0.02135831917898121,1.0116144255926658,33.333333333333336,0.923076923051361,0.9595015576324296,0.0,0.9945231314507634,0
147,123.31111111111112,0.8555555555555685,0.8472222222222143,0.8916666666666515,0.9595015576324296,0.020662189146541762,0.9786429554595171,36.111111111111114,0.9999999999723078,0.9501557632398827,0.0,0.9903918827760161,0
148,124.15833333333333,0.8472222222222143,0.8333333333333286,0.8916666666666515,0.9501557632398827,0.025949120926832,1.229052943775884,36.111111111111114,0.9999999999723078,0.934579439252347,0.0,0.9966234861418073,0
149,124.99166666666666,0.8333333333333286,0.8388888888888886,0.8916666666666515,0.934579439252347,0.022223863745831882,1.0526100377699186,36.111111111111114,0.9999999999723078,0.9408099688473677,0.0,0.9965234003408028,0
150,125.83055555555555,0.8388888888888886,0.8611111111111143,0.8916666666666515,0.9408099688473677,0.018574766026678995,0.8797743449348218,36.111111111111114,0.9999999999723078,0.9657320872274343,0.0,0.9901214656890394,0
151,126.69166666666666,0.8611111111111143,0.8416666666666686,0.8916666666666515,0.9657320872274343,0.02069664541834699,0.9802749406975976,36.111111111111114,0.9999999999723078,0.943925233644878,0.0,0.9906459542396708,0
152,127.53333333333333,0.8416666666666686,0.8305555555555486,0.8916666666666515,0.943925233644878,0.02253655526972757,1.067420344408876,38.888888888888886,1.0769230768932543,0.9314641744548368,0.0,0.9965204104766863,0
153,128.36388888888888,0.8305555555555486,0.825000000000017,0.8916666666666515,0.9314641744548368,0.021761476673471534,1.0307095582102908,36.111111111111114,0.9999999999723078,0.9252336448598479,0.0,0.9943524050621392,0
154,129.1888888888889,0.825000000000017,0.8305555555555486,0.8916666666666515,0.9252336448598479,0.025378534304591478,1.2020277058219189,36.111111111111114,0.9999999999723078,0.9314641744548368,0.0,0.9971853099134305,0
155,130.01944444444445,0.8305555555555486,0.8416666666666686,0.8916666666666515,0.9314641744548368,0.02568975463658258,1.2167683309966641,38.888888888888886,1.0769230768932543,0.943925233644878,0.0,0.9979837713532806,0
156,130.86111111111111,0.8416666666666686,0.8194444444444287,0.8916666666666515,0.943925233644878,0.020340889292054312,0.9634249242550675,36.111111111111114,0.9999999999723078,0.9190031152647954,0.0,0.9908029306085406,0
157,131.68055555555554,0.8194444444444287,0.8222222222222229,0.8916666666666515,0.9190031152647954,0.018123609058892255,0.8584057675203193,33.333333333333336,0.923076923051361,0.9221183800623217,0.0,0.9911108818451022,0
158,132.50277777777777,0.8222222222222229,0.8583333333333485,0.8916666666666515,0.9221183800623217,0.02624423385954919,1.243030658848588,38.888888888888886,1.0769230768932543,0.96261682242994,0.0,0.9988555211453201,0
159,133.36111111111111,0.8583333333333485,0.8333333333333428,0.8916666666666515,0.96261682242994,0.020997431745047593,0.9945213701362401,36.111111111111114,0.9999999999723078,0.934579439252363,0.0,0.9917222617515513,0
160,134.19444444444446,0.8333333333333428,0.8333333333333144,0.8916666666666515,0.934579439252363,0.021431089739932796,1.0150611270208165,33.333333333333336,0.923076923051361,0.9345794392523311,0.0,0.9955064772232323,0
161,135.02777777777777,0.8333333333333144,0.8333333333333428,0.8916666666666515,0.9345794392523311,0.021260477489687325,1.0069802564202408,36.111111111111114,0.9999999999723078,0.934579439252363,0.0,0.9953603005931857,0
162,135.86111111111111,0.8333333333333428,0.8472222222222285,0.8916666666666515,0.934579439252363,0.0207166429302491,0.9812221019112967,33.333333333333336,0.923076923051361,0.9501557632398986,0.0,0.990948158275591,0
163,136.70833333333334,0.8472222222222285,0.8555555555555543,0.8916666666666515,0.9501557632398986,0.018439599340963585,0.8733723163864413,36.111111111111114,0.9999999999723078,0.9595015576324136,0.0,0.9921236722632932,0
164,137.5638888888889,0.8555555555555543,0.8333333333333144,0.8916666666666515,0.9595015576324136,0.018132970509215723,0.858849162813382,36.111111111111114,0.9999999999723078,0.9345794392523311,0.0,0.992811221557766,0
165,138.3972222222222,0.8333333333333144,0.8527777777777885,0.8916666666666515,0.9345794392523311,0.02590335148348888,1.2268851220128862,36.111111111111114,0.9999999999723078,0.9563862928349193,0.0,0.9970334015603366,0
166,139.25,0.8527777777777885,0.8444444444444343,0.8916666666666515,0.9563862928349193,0.0188424135451094,0.8924511894163262,36.111111111111114,0.9999999999723078,0.9470404984423724,0.0,0.9924893610772652,0
167,140.09444444444443,0.8444444444444343,0.830555555555577,0.8916666666666515,0.9470404984423724,0.02496908364216565,1.1826345038940227,36.111111111111114,0.9999999999723078,0.9314641744548686,0.0,0.9974878384241104,0
168,140.925,0.830555555555577,0.8249999999999886,0.8916666666666515,0.9314641744548686,0.020261911233179615,0.9596842111870854,36.111111111111114,0.9999999999723078,0.9252336448598161,0.0,0.9892723726021325,0
169,141.75,0.8249999999999886,0.8361111111111086,0.8916666666666515,0.9252336448598161,0.02536452928343362,1.2013643726581387,36.111111111111114,0.9999999999723078,0.9376947040498573,0.0,0.9960618184852568,0
170,142.5861111111111,0.8361111111111086,0.8388888888889028,0.8916666666666515,0.9376947040498573,0.025910319378811407,1.2272151490793992,36.111111111111114,0.9999999999723078,0.9408099688473835,0.0,0.9969431156887589,0
171,143.425,0.8388888888889028,0.8416666666666686,0.8916666666666515,0.9408099688473835,0.025507618937724106,1.2081416643176701,36.111111111111114,0.9999999999723078,0.943925233644878,0.0,0.998546934709312,0
172,144.26666666666668,0.8416666666666686,0.8361111111111086,0.8916666666666515,0.943925233644878,0.025284474925853284,1.1975726818288566,36.111111111111114,0.9999999999723078,0.9376947040498573,0.0,0.9987098189119819,0
173,145.1027777777778,0.8361111111111086,0.8499999999999943,0.8916666666666515,0.9376947040498573,0.022030847943984022,1.0434680464043815,38.888888888888886,1.0769230768932543,0.953271028037393,0.0,0.9965773987078883,0
174,145.95277777777778,0.8499999999999943,0.8499999999999943,0.8916666666666515,0.953271028037393,0.019032482173206036,0.9014535909828494,36.111111111111114,0.9999999999723078,0.953271028037393,0.0,0.9934026084558777,0
175,146.80277777777778,0.8499999999999943,0.8333333333333428,0.8916666666666515,0.953271028037393,0.021915822608483085,1.0380199918207655,38.888888888888886,1.0769230768932543,0.934579439252363,0.0,0.9964209642182882,0
176,147.63611111111112,0.8333333333333428,0.8444444444444343,0.8916666666666515,0.934579439252363,0.018408600409170247,0.8719040844381631,36.111111111111114,0.9999999999723078,0.9470404984423724,0.0,0.99148928530235,0
177,148.48055555555555,0.8444444444444343,0.8611111111111143,0.8916666666666515,0.9470404984423724,0.026230930148901925,1.2424005425228646,36.111111111111114,0.9999999999723078,0.9657320872274343,0.0,0.9968035664819475,0
178,149.34166666666667,0.8611111111111143,0.8527777777777885,0.8916666666666515,0.9657320872274343,0.018642633093306306,0.8829887974882984,36.111111111111114,0.9999999999723078,0.9563862928349193,0.0,0.9906334653323627,0
179,150.19444444444446,0.8527777777777885,0.8249999999999886,0.8916666666666515,0.9563862928349193,0.018891601545254797,0.8947809275430092,36.111111111111114,0.9999999999723078,0.9252336448598161,0.0,0.9929274896908981,0
180,151.01944444444445,0.8249999999999886,0.8222222222222229,0.8916666666666515,0.9252336448598161,0.026049792447720575,1.2338211449589367,38.888888888888886,1.0769230768932543,0.9221183800623217,0.0,0.9987142636607953,0
181,151.84166666666667,0.8222222222222229,0.8611111111111143,0.8916666666666515,0.9221183800623217,0.022230629212668728,1.0529304770231516,36.111111111111114,0.9999999999723078,0.9657320872274343,0.0,0.9955651173667777,0
182,152.70277777777778,0.8611111111111143,0.8499999999999943,0.8916666666666515,0.9657320872274343,0.026255529138336047,1.243565647902086,36.111111111111114,0.9999999999723078,0.953271028037393,0.0,0.9952460424375474,0
183,153.55277777777778,0.8499999999999943,0.8166666666666629,0.8916666666666515,0.953271028037393,0.019295446881814893,0.913908639080093,36.111111111111114,0.9999999999723078,0.915887850467301,0.0,0.99207335229827,0
184,154.36944444444444,0.8166666666666629,0.8333333333333428,0.8916666666666515,0.915887850467301,0.022547431741911164,1.0679354971261041,38.888888888888886,1.0769230768932543,0.934579439252363,0.0,0.9963686975616628,0
185,155.20277777777778,0.8333333333333428,0.8388888888888744,0.8916666666666515,0.934579439252363,0.017873443435216057,0.8465569346801736,36.111111111111114,0.9999999999723078,0.9408099688473517,0.0,0.9887857558350762,0
186,156.04166666666666,0.8388888888888744,0.8527777777777885,0.8916666666666515,0.9408099688473517,0.022366376606983474,1.0593600102263332,38.888888888888886,1.0769230768932543,0.9563862928349193,0.0,0.9960735718611746,0
187,156.89444444444445,0.8527777777777885,0.8277777777777828,0.8916666666666515,0.9563862928349193,0.025947759724961696,1.2289884718744855,36.111111111111114,0.9999999999723078,0.9283489096573423,0.0,0.9956889250273586,0
188,157.72222222222223,0.8277777777777828,0.8305555555555486,0.8916666666666515,0.9283489096573423,0.02236529897695142,1.0593089694081517,38.888888888888886,1.0769230768932543,0.9314641744548368,0.0,0.996979923536524,0
189,158.55277777777778,0.8305555555555486,0.8611111111111143,0.8916666666666515,0.9314641744548368,0.02252752184159982,1.0669924855436717,36.111111111111114,0.9999999999723078,0.9657320872274343,0.0,0.9952936803410002,0
190,159.4138888888889,0.8611111111111143,0.8444444444444343,0.8916666666666515,0.9657320872274343,0.025663341174734833,1.2155172850313376,36.111111111111114,0.9999999999723078,0.9470404984423724,0.0,0.9975802620581169,0
191,160.25833333333333,0.8444444444444343,0.830555555555577,0.8916666666666515,0.9470404984423724,0.020201483024530516,0.9568220923532067,33.333333333333336,0.923076923051361,0.9314641744548686,0.0,0.9895635214449446,0
192,161.0888888888889,0.830555555555577,0.8388888888888744,0.8916666666666515,0.9314641744548686,0.01938145019988195,0.9179820961942224,36.111111111111114,0.9999999999723078,0.9408099688473517,0.0,0.9923012446541367,0
193,161.92777777777778,0.8388888888888744,0.8416666666666686,0.8916666666666515,0.9408099688473517,0.026848947805807013,1.2716723017730691,38.888888888888886,1.0769230768932543,0.943925233644878,0.0,0.9974897312601108,0
194,162.76944444444445,0.8416666666666686,0.8416666666666686,0.8916666666666515,0.943925233644878,0.02626231336984267,1.2438869759242561,38.888888888888886,1.0769230768932543,0.943925233644878,0.0,0.9985684599574918,0
195,163.61111111111111,0.8416666666666686,0.8277777777777828,0.8916666666666515,0.943925233644878,0.019849107924922033,0.9401322146996133,38.888888888888886,1.0769230768932543,0.9283489096573423,0.0,0.9910575857098658,0
196,164.4388888888889,0.8277777777777828,0.8361111111111086,0.8916666666666515,0.9283489096573423,0.02199213024325867,1.0416342230472473,36.111111111111114,0.9999999999723078,0.9376947040498573,0.0,0.9951493299897178,0
197,165.275,0.8361111111111086,0.8333333333333144,0.8916666666666515,0.9376947040498573,0.020563179034580444,0.9739534451707963,36.111111111111114,0.9999999999723078,0.9345794392523311,0.0,0.9889619221191237,0
198,166.10833333333332,0.8333333333333144,0.8277777777777828,0.8916666666666515,0.9345794392523311,0.01855789976267793,0.8789754919995157,36.111111111111114,0.9999999999723078,0.9283489096573423,0.0,0.9925154982874799,0
199,166.9361111111111,0.8277777777777828,0.8194444444444571,0.8916666666666515,0.9283489096573423,0.02036545761742325,0.9645885772629471,36.111111111111114,0.9999999999723078,0.9190031152648273,0.0,0.9906561939933048,0
200,167.75555555555556,0.8194444444444571,0.8388888888888744,0.8916666666666515,0.9190031152648273,0.026040186453643567,1.2333661671070268,36.111111111111114,0.9999999999723078,0.9408099688473517,0.0,0.9954338512494367,0
201,168.59444444444443,0.8388888888888744,0.8583333333333485,0.8916666666666515,0.9408099688473517,0.02633571100577782,1.2473633781024513,38.888888888888886,1.0769230768932543,0.96261682242994,0.0,0.9966973867576643,0
202,169.45277777777778,0.8583333333333485,0.8305555555555486,0.8916666666666515,0.96261682242994,0.026369143409453313,1.2489468688985645,38.888888888888886,1.0769230768932543,0.9314641744548368,0.0,0.9981273352111475,0
203,170.28333333333333,0.8305555555555486,0.8416666666666686,0.8916666666666515,0.9314641744548368,0.02639715198320342,1.2502734656690522,38.888888888888886,1.0769230768932543,0.943925233644878,0.0,0.9983612171418192,0
204,171.125,0.8416666666666686,0.8666666666666742,0.8916666666666515,0.943925233644878,0.01932789599315665,0.9154455572643332,36.111111111111114,0.9999999999723078,0.9719626168224549,0.0,0.9926012226634728,0
205,171.99166666666667,0.8666666666666742,0.8499999999999943,0.8916666666666515,0.9719626168224549,0.018124788272492285,0.8584616197378393,36.111111111111114,0.9999999999723078,0.953271028037393,0.0,0.9920097850167717,0
206,172.84166666666667,0.8499999999999943,0.8277777777777828,0.8916666666666515,0.953271028037393,0.019673419552414646,0.9318109188828398,36.111111111111114,0.9999999999723078,0.9283489096573423,0.0,0.9936824723550964,0
207,173.66944444444445,0.8277777777777828,0.8305555555555486,0.8916666666666515,0.9283489096573423,0.01873799272917203,0.8875054067988272,36.111111111111114,0.9999999999723078,0.9314641744548368,0.0,0.9929430264177078,0
208,174.5,0.8305555555555486,0.8444444444444343,0.8916666666666515,0.9314641744548368,0.018846965827112188,0.8926668034871149,36.111111111111114,0.9999999999723078,0.9470404984423724,0.0,0.9933437420624621,0
209,175.34444444444443,0.8444444444444343,0.8555555555555543,0.8916666666666515,0.9470404984423724,0.018828575711816335,0.8917957749307149,36.111111111111114,0.9999999999723078,0.9595015576324136,0.0,0.9923015323639015,0
210,176.2,0.8555555555555543,0.8166666666666913,0.8916666666666515,0.9595015576324136,0.026012511247736632,1.232055359955392,36.111111111111114,0.9999999999723078,0.9158878504673329,0.0,0.997241793857333,0
211,177.01666666666668,0.8166666666666913,0.8333333333333144,0.8916666666666515,0.9158878504673329,0.02625714633717451,1.2436422448318505,38.888888888888886,1.0769230768932543,0.9345794392523311,0.0,0.9986868684553822,0
212,177.85,0.8333333333333144,0.8527777777777885,0.8916666666666515,0.9345794392523311,0.021480901437172656,1.0174204059073633,38.888888888888886,1.0769230768932543,0.9563862928349193,0.0,0.9930803870850478,0
213,178.70277777777778,0.8527777777777885,0.8333333333333144,0.8916666666666515,0.9563862928349193,0.025656049640067315,1.2151719291261018,36.111111111111114,0.9999999999723078,0.9345794392523311,0.0,0.9963373701366394,0
214,179.5361111111111,0.8333333333333144,0.8277777777777828,0.8916666666666515,0.9345794392523311,0.026219080319693912,1.2418392877692868,38.888888888888886,1.0769230768932543,0.9283489096573423,0.0,0.9972624559538401,0
215,180.36388888888888,0.8277777777777828,0.8277777777777828,0.8916666666666515,0.9283489096573423,0.022585224813875378,1.0697255264100602,38.888888888888886,1.0769230768932543,0.9283489096573423,0.0,0.9965380497783398,0
216,181.19166666666666,0.8277777777777828,0.8388888888889028,0.8916666666666515,0.9283489096573423,0.022388288892912372,1.0603978627070283,36.111111111111114,0.9999999999723078,0.9408099688473835,0.0,0.9958699293556156,0
217,182.03055555555557,0.8388888888889028,0.8527777777777601,0.8916666666666515,0.9408099688473835,0.019150837526690962,0.9070593683817234,36.111111111111114,0.9999999999723078,0.9563862928348874,0.0,0.9894101962958841,0
218,182.88333333333333,0.8527777777777601,0.830555555555577,0.8916666666666515,0.9563862928348874,0.021126662632176933,1.0006422557994168,36.111111111111114,0.9999999999723078,0.9314641744548686,0.0,0.9908401311093098,0
219,183.7138888888889,0.830555555555577,0.8388888888888744,0.8916666666666515,0.9314641744548686,0.019560019855599933,0.9264398609735408,36.111111111111114,0.9999999999723078,0.9408099688473517,0.0,0.993599356251906,0
220,184.55277777777778,0.8388888888888744,0.8555555555555543,0.8916666666666515,0.9408099688473517,0.019618591152892828,0.9292140291452329,38.888888888888886,1.0769230768932543,0.9595015576324136,0.0,0.9920740696185988,0
221,185.40833333333333,0.8555555555555543,0.8305555555555486,0.8916666666666515,0.9595015576324136,0.02619621706942077,1.2407563938580932,38.888888888888886,1.0769230768932543,0.9314641744548368,0.0,0.9980458363385898,0
222,186.23888888888888,0.8305555555555486,0.8222222222222229,0.8916666666666515,0.9314641744548368,0.017936031047205682,0.8495213313923647,33.333333333333336,0.923076923051361,0.9221183800623217,0.0,0.9898517912012713,0
223,187.0611111111111,0.8222222222222229,0.830555555555577,0.8916666666666515,0.9221183800623217,0.022383756084709158,1.0601831709923673,36.111111111111114,0.9999999999723078,0.9314641744548686,0.0,0.9949930200693071,0
224,187.89166666666668,0.830555555555577,0.8388888888888744,0.8916666666666515,0.9314641744548686,0.026326813693322196,1.2469419662135433,38.888888888888886,1.0769230768932543,0.9408099688473517,0.0,0.9987104907953736,0
225,188.73055555555555,0.8388888888888744,0.8416666666666686,0.8916666666666515,0.9408099688473517,0.026222457578193074,1.2419992480820847,38.888888888888886,1.0769230768932543,0.943925233644878,0.0,0.9988370798342985,0
226,189.57222222222222,0.8416666666666686,0.8249999999999886,0.8916666666666515,0.943925233644878,0.018938109235681063,0.8969837156061499,36.111111111111114,0.9999999999723078,0.9252336448598161,0.0,0.990504835504925,0
227,190.3972222222222,0.8249999999999886,0.8388888888889028,0.8916666666666515,0.9252336448598161,0.01951072409121068,0.9241050187062776,36.111111111111114,0.9999999999723078,0.9408099688473835,0.0,0.9910059020460352,0
228,191.23611111111111,0.8388888888889028,0.8444444444444343,0.8916666666666515,0.9408099688473835,0.02229464190039917,1.0559623709557415,36.111111111111114,0.9999999999723078,0.9470404984423724,0.0,0.9953742441939163,0
229,192.08055555555555,0.8444444444444343,0.8277777777777828,0.8916666666666515,0.9470404984423724,0.025868235766251663,1.2252219028323639,36.111111111111114,0.9999999999723078,0.9283489096573423,0.0,0.9985746702921826,0
230,192.90833333333333,0.8277777777777828,0.8305555555555486,0.8916666666666515,0.9283489096573423,0.025621308947911738,1.2135264726159172,36.111111111111114,0.9999999999723078,0.9314641744548368,0.0,0.9975342024830236,0
231,193.73888888888888,0.8305555555555486,0.8472222222222285,0.8916666666666515,0.9314641744548368,0.025577729304419976,1.2114623684301422,36.111111111111114,0.9999999999723078,0.9501557632398986,0.0,0.9956886177421624,0
232,194.5861111111111,0.8472222222222285,0.8388888888889028,0.8916666666666515,0.9501557632398986,0.02006220974872296,0.9502255594647423,38.888888888888886,1.0769230768932543,0.9408099688473835,0.0,0.9909849829280875,0
233,195.425,0.8388888888889028,0.8361111111111086,0.8916666666666515,0.9408099688473835,0.0230587420675048,1.092153175352115,36.111111111111114,0.9999999999723078,0.9376947040498573,0.0,0.996026472701544,0
234,196.26111111111112,0.8361111111111086,0.8277777777777828,0.8916666666666515,0.9376947040498573,0.021937420841701458,1.039042969523642,36.111111111111114,0.9999999999723078,0.9283489096573423,0.0,0.9947741789713059,0
235,197.0888888888889,0.8277777777777828,0.8499999999999943,0.8916666666666515,0.9283489096573423,0.026163807964831608,1.2392213705518023,38.888888888888886,1.0769230768932543,0.953271028037393,0.0,0.9977154064198741,0
236,197.9388888888889,0.8499999999999943,0.8305555555555486,0.8916666666666515,0.953271028037393,0.026548848771055535,1.2574584251979974,38.888888888888886,1.0769230768932543,0.9314641744548368,0.0,0.9969767596647626,0
237,198.76944444444445,0.8305555555555486,0.8138888888888971,0.8916666666666515,0.9314641744548368,0.01913513429645066,0.906315601322791,36.111111111111114,0.9999999999723078,0.9127725856698067,0.0,0.9916695352019775,0
238,199.58333333333334,0.8138888888888971,0.8333333333333144,0.8916666666666515,0.9127725856698067,0.023156399730283012,1.0967786283013023,41.666666666666664,1.153846153814201,0.9345794392523311,0.0,0.996450907458427,0
239,200.41666666666666,0.8333333333333144,0.8333333333333428,0.8916666666666515,0.9345794392523311,0.02589003279459094,1.226254296258002,38.888888888888886,1.0769230768932543,0.934579439252363,0.0,0.9974486644187184,0
240,201.25,0.8333333333333428,0.8388888888889028,0.8916666666666515,0.934579439252363,0.02542575001878236,1.2042640286893644,36.111111111111114,0.9999999999723078,0.9408099688473835,0.0,0.9941819986886057,0
241,202.0888888888889,0.8388888888889028,0.8277777777777544,0.8916666666666515,0.9408099688473835,0.026198233233723788,1.2408518873693666,38.888888888888886,1.0769230768932543,0.9283489096573104,0.0,0.9972483769613637,0
242,202.91666666666666,0.8277777777777544,0.8138888888888971,0.8916666666666515,0.9283489096573104,0.018814246867569936,0.8911171042253913,36.111111111111114,0.9999999999723078,0.9127725856698067,0.0,0.9930122581435565,0
243,203.73055555555555,0.8138888888888971,0.875,0.8916666666666515,0.9127725856698067,0.026051487466385605,1.2339014277433087,38.888888888888886,1.0769230768932543,0.9813084112149699,0.0,0.998537537166134,0
244,204.60555555555555,0.875,0.8444444444444343,0.8916666666666515,0.9813084112149699,0.019658168250999378,0.9310885569595322,36.111111111111114,0.9999999999723078,0.9470404984423724,0.0,0.993530252420844,0
245,205.45,0.8444444444444343,0.825000000000017,0.8916666666666515,0.9470404984423724,0.0261767516245507,1.2398344334422888,38.888888888888886,1.0769230768932543,0.9252336448598479,0.0,0.9977739049406725,0
246,206.275,0.825000000000017,0.8499999999999943,0.8916666666666515,0.9252336448598479,0.026719873165111648,1.2655588165586467,41.666666666666664,1.153846153814201,0.953271028037393,0.0,0.9977940194737906,0
247,207.125,0.8499999999999943,0.8333333333333428,0.8916666666666515,0.953271028037393,0.018971891318813924,0.8985837686036443,36.111111111111114,0.9999999999723078,0.934579439252363,0.0,0.9920737680179206,0
248,207.95833333333334,0.8333333333333428,0.8611111111111143,0.8916666666666515,0.934579439252363,0.021624067758144988,1.02420132880401,36.111111111111114,0.9999999999723078,0.9657320872274343,0.0,0.9948038240382693,0
249,208.81944444444446,0.8611111111111143,0.8361111111111086,0.8916666666666515,0.9657320872274343,0.022500690622354196,1.0657216529365898,38.888888888888886,1.0769230768932543,0.9376947040498573,0.0,0.9964281753503534,0
250,209.65555555555557,0.8361111111111086,0.8138888888888687,0.8916666666666515,0.9376947040498573,0.026004213050154875,1.2316623245152072,38.888888888888886,1.0769230768932543,0.9127725856697748,0.0,0.9985457351097902,0
251,210.46944444444443,0.8138888888888687,0.8694444444444684,0.8916666666666515,0.9127725856697748,0.02601508462460722,1.2321772452565227,38.888888888888886,1.0769230768932543,0.9750778816199812,0.0,0.9988993010514996,0
252,211.3388888888889,0.8694444444444684,0.8611111111110858,0.8916666666666515,0.9750778816199812,0.02620686489996127,1.241260717203286,38.888888888888886,1.0769230768932543,0.9657320872274024,0.0,0.9979779359861296,0
253,212.2,0.8611111111110858,0.8277777777777828,0.8916666666666515,0.9657320872274024,0.019709801550117454,0.9335341141118099,36.111111111111114,0.9999999999723078,0.9283489096573423,0.0,0.9912816173898782,0
254,213.02777777777777,0.8277777777777828,0.8361111111111086,0.8916666666666515,0.9283489096573423,0.018570147298936898,0.8795555837311598,36.111111111111114,0.9999999999723078,0.9376947040498573,0.0,0.9914246765265723,0
255,213.86388888888888,0.8361111111111086,0.8500000000000227,0.8916666666666515,0.9376947040498573,0.021384125643277564,1.0128367217545016,33.333333333333336,0.923076923051361,0.9532710280374249,0.0,0.9951215759017416,0
256,214.7138888888889,0.8500000000000227,0.8666666666666458,0.8916666666666515,0.9532710280374249,0.019131935223615712,0.9061640805874167,36.111111111111114,0.9999999999723078,0.971962616822423,0.0,0.9901820259921355,0
257,215.58055555555555,0.8666666666666458,0.8388888888889028,0.8916666666666515,0.971962616822423,0.01896359889314336,0.8981910065439896,36.111111111111114,0.9999999999723078,0.9408099688473835,0.0,0.9910140862685367,0
258,216.41944444444445,0.8388888888889028,0.8444444444444343,0.8916666666666515,0.9408099688473835,0.02636484512420631,1.248743285118177,38.888888888888886,1.0769230768932543,0.9470404984423724,0.0,0.9976419977288646,0
259,217.26388888888889,0.8444444444444343,0.8611111111111143,0.8916666666666515,0.9470404984423724,0.02000893836257177,0.9477024160352306,38.888888888888886,1.0769230768932543,0.9657320872274343,0.0,0.9910818972753583,0
260,218.125,0.8611111111111143,0.8555555555555543,0.8916666666666515,0.9657320872274343,0.01869493224148164,0.8854658918840242,36.111111111111114,0.9999999999723078,0.9595015576324136,0.0,0.9901587589057654,0
261,218.98055555555555,0.8555555555555543,0.8333333333333428,0.8916666666666515,0.9595015576324136,0.019237635868481772,0.9111704809621327,36.111111111111114,0.9999999999723078,0.934579439252363,0.0,0.9939339818108639,0
262,219.8138888888889,0.8333333333333428,0.8499999999999943,0.8916666666666515,0.934579439252363,0.019461554439845114,0.9217761496503399,36.111111111111114,0.9999999999723078,0.953271028037393,0.0,0.9932431911236821,0
263,220.6638888888889,0.8499999999999943,0.86388888888888,0.8916666666666515,0.953271028037393,0.02197376620553152,1.0407644296275855,36.111111111111114,0.9999999999723078,0.9688473520249287,0.0,0.9960626212061932,0
264,221.52777777777777,0.86388888888888,0.8388888888889028,0.8916666666666515,0.9688473520249287,0.01947060676260855,0.9222049034401806,36.111111111111114,0.9999999999723078,0.9408099688473835,0.0,0.9920101924126312,0
265,222.36666666666667,0.8388888888889028,0.8444444444444343,0.8916666666666515,0.9408099688473835,0.021950829425852195,1.039678053073054,36.111111111111114,0.9999999999723078,0.9470404984423724,0.0,0.9932982180909038,0
266,223.2111111111111,0.8444444444444343,0.86388888888888,0.8916666666666515,0.9470404984423724,0.025911219986904273,1.2272578054387744,36.111111111111114,0.9999999999723078,0.9688473520249287,0.0,0.9964303966382801,0
267,224.075,0.86388888888888,0.875,0.8916666666666515,0.9688473520249287,0.02413640568838084,1.1431955844330448,38.888888888888886,1.0769230768932543,0.9813084112149699,0.0,0.9960935383221745,0
268,224.95,0.875,0.8666666666666742,0.8916666666666515,0.9813084112149699,0.019105775502168215,0.9049250527704799,36.111111111111114,0.9999999999723078,0.9719626168224549,0.0,0.993140620097038,0
269,225.81666666666666,0.8666666666666742,0.875,0.8916666666666515,0.9719626168224549,0.01879057588605907,0.8899959529698236,36.111111111111114,0.9999999999723078,0.9813084112149699,0.0,0.9918100499428593,0
270,226.69166666666666,0.875,0.8611111111111143,0.8916666666666515,0.9813084112149699,0.022829772459933024,1.081308269622368,41.666666666666664,1.153846153814201,0.9657320872274343,0.0,0.9928770419272639,0
271,227.55277777777778,0.8611111111111143,0.875,0.8916666666666515,0.9657320872274343,0.023578008432172594,1.116747683038841,41.666666666666664,1.153846153814201,0.9813084112149699,0.0,0.9917385412811821,0
272,228.42777777777778,0.875,0.8333333333333428,0.8916666666666515,0.9813084112149699,0.02200984726971236,1.0424733714553671,38.888888888888886,1.0769230768932543,0.934579439252363,0.0,0.9929683250017818,0
273,229.26111111111112,0.8333333333333428,0.8305555555555486,0.8916666666666515,0.934579439252363,0.021940575556019068,1.0391923892642863,41.666666666666664,1.153846153814201,0.9314641744548368,0.0,0.9924397025423859,0
274,230.09166666666667,0.8305555555555486,0.8888888888888857,0.8916666666666515,0.9314641744548368,0.02112486516443126,1.000557120621605,38.888888888888886,1.0769230768932543,0.9968847352025056,0.0,0.9927439454741736,0
275,230.98055555555555,0.8888888888888857,0.8555555555555543,0.8916666666666515,0.9968847352025056,0.02387427354512851,1.130779969922211,38.888888888888886,1.0769230768932543,0.9595015576324136,0.0,0.9930936116580851,0
276,231.8361111111111,0.8555555555555543,0.8499999999999943,0.8916666666666515,0.9595015576324136,0.023413931697954013,1.1089763603121447,38.888888888888886,1.0769230768932543,0.953271028037393,0.0,0.993171263957387,0
277,232.6861111111111,0.8499999999999943,0.8611111111111143,0.8916666666666515,0.953271028037393,0.022880932189239752,1.0837313966363622,36.111111111111114,0.9999999999723078,0.9657320872274343,0.0,0.9957061094565566,0
278,233.54722222222222,0.8611111111111143,0.8555555555555543,0.8916666666666515,0.9657320872274343,0.02218372607805082,1.0507089591599068,36.111111111111114,0.9999999999723078,0.9595015576324136,0.0,0.9948293142527209,0
279,234.40277777777777,0.8555555555555543,0.88055555555556,0.8916666666666515,0.9595015576324136,0.01828100530127662,0.8658606757458129,36.111111111111114,0.9999999999723078,0.9875389408099906,0.0,0.9901642315150898,0
280,235.28333333333333,0.88055555555556,0.875,0.8916666666666515,0.9875389408099906,0.02586082413777348,1.2248708588095252,38.888888888888886,1.0769230768932543,0.9813084112149699,0.0,0.999240762352932,0
281,236.15833333333333,0.875,0.8583333333333485,0.8916666666666515,0.9813084112149699,0.02289437804299436,1.08436824542154,38.888888888888886,1.0769230768932543,0.96261682242994,0.0,0.9963330038705165,0
282,237.01666666666668,0.8583333333333485,0.8916666666666515,0.8916666666666515,0.96261682242994,0.02181193104308302,1.0330992766008367,36.111111111111114,0.9999999999723078,1.0,0.0,0.9957299756480695,0
283,237.90833333333333,0.8916666666666515,0.8722222222222342,0.8916666666666515,1.0,0.018164168123851444,0.8603268051664672,36.111111111111114,0.9999999999723078,0.9781931464174756,0.0,0.9910944659670493,0
284,238.78055555555557,0.8722222222222342,0.875,0.8916666666666515,0.9781931464174756,0.020531112986454735,0.9724346703747141,36.111111111111114,0.9999999999723078,0.9813084112149699,0.0,0.9899111646527619,0
285,239.65555555555557,0.875,0.8861111111110915,0.8916666666666515,0.9813084112149699,0.018747471386090817,0.8879543534595609,36.111111111111114,0.9999999999723078,0.9937694704049793,0.0,0.990785597967605,0
286,240.54166666666666,0.8861111111110915,0.9111111111111256,0.8916666666666515,0.9937694704049793,0.019848248167154383,0.9400914931731215,36.111111111111114,0.9999999999723078,1.0218068535825882,0.0,0.9931405762512224,0
287,241.45277777777778,0.9111111111111256,0.8972222222222115,0.8916666666666515,1.0218068535825882,0.02634148946672907,1.2476370688553156,38.888888888888886,1.0769230768932543,1.0062305295950207,0.0,0.9988617677673732,0
288,242.35,0.8972222222222115,0.8888888888888857,0.8916666666666515,1.0062305295950207,0.020479974426889223,0.9700125460433476,36.111111111111114,0.9999999999723078,0.9968847352025056,0.0,0.9902606283716626,0
289,243.23888888888888,0.8888888888888857,0.9305555555555713,0.8916666666666515,0.9968847352025056,0.02366739361336387,1.1209813185590132,38.888888888888886,1.0769230768932543,1.0436137071651446,0.0,0.9965900212039859,0
290,244.16944444444445,0.9305555555555713,0.8888888888888857,0.8916666666666515,1.0436137071651446,0.019143280453393693,0.9067014355173104,36.111111111111114,0.9999999999723078,0.9968847352025056,0.0,0.9937320292357392,0
291,245.05833333333334,0.8888888888888857,0.86388888888888,0.8916666666666515,0.9968847352025056,0.02564861165675457,1.2148196368341178,38.888888888888886,1.0769230768932543,0.9688473520249287,0.0,0.9992164489409012,0
292,245.92222222222222,0.86388888888888,0.8722222222222342,0.8916666666666515,0.9688473520249287,0.019013080606400078,0.9005346560846705,36.111111111111114,0.9999999999723078,0.9781931464174756,0.0,0.9940972830943211,0
293,246.79444444444445,0.8722222222222342,0.8944444444444457,0.8916666666666515,0.9781931464174756,0.021911437330987334,1.0378122877435976,38.888888888888886,1.0769230768932543,1.0031152647975263,0.0,0.9971148735084633,0
294,247.6888888888889,0.8944444444444457,0.88055555555556,0.8916666666666515,1.0031152647975263,0.020211377353089862,0.9572907268659843,38.888888888888886,1.0769230768932543,0.9875389408099906,0.0,0.9924530472178852,0
295,248.56944444444446,0.88055555555556,0.86388888888888,0.8916666666666515,0.9875389408099906,0.019428873821078805,0.9202282663593258,38.888888888888886,1.0769230768932543,0.9688473520249287,0.0,0.9917801530131883,0
296,249.43333333333334,0.86388888888888,0.8833333333333258,0.8916666666666515,0.9688473520249287,0.01844255236773428,0.8735121834075943,36.111111111111114,0.9999999999723078,0.990654205607485,0.0,0.9930441134786587,0
297,250.31666666666666,0.8833333333333258,0.86388888888888,0.8916666666666515,0.990654205607485,0.019393860775516674,0.9185699101151957,36.111111111111114,0.9999999999723078,0.9688473520249287,0.0,0.9937888391541136,0
298,251.18055555555554,0.86388888888888,0.8527777777777885,0.8916666666666515,0.9688473520249287,0.02599058965359081,1.2310170666007483,36.111111111111114,0.9999999999723078,0.9563862928349193,0.0,0.9972309960244364,0
299,252.03333333333333,0.8527777777777885,0.8499999999999943,0.8916666666666515,0.9563862928349193,0.019465753717141484,0.9219750440228078,38.888888888888886,1.0769230768932543,0.953271028037393,0.0,0.9924563411248701,0
300,252.88333333333333,0.8499999999999943,0.8472222222222285,0.8916666666666515,0.953271028037393,0.02539216287700011,1.2026732088848364,36.111111111111114,0.9999999999723078,0.9501557632398986,0.0,0.9987606006286702,0
301,253.73055555555555,0.8472222222222285,0.8722222222222342,0.8916666666666515,0.9501557632398986,0.025712523180980707,1.2178467392632453,36.111111111111114,0.9999999999723078,0.9781931464174756,0.0,0.996698200894763,0
302,254.6027777777778,0.8722222222222342,0.8499999999999943,0.8916666666666515,0.9781931464174756,0.019026013299093546,0.9011471995334709,36.111111111111114,0.9999999999723078,0.953271028037393,0.0,0.9911589301453985,0
303,255.45277777777778,0.8499999999999943,0.8611111111110858,0.8916666666666515,0.953271028037393,0.01850200353938222,0.8763280259068779,36.111111111111114,0.9999999999723078,0.9657320872274024,0.0,0.9921289181593014,0
304,256.31388888888887,0.8611111111110858,0.8805555555555884,0.8916666666666515,0.9657320872274024,0.018844620637412837,0.8925557260324363,36.111111111111114,0.9999999999723078,0.9875389408100225,0.0,0.9904647934111585,0
305,257.19444444444446,0.8805555555555884,0.86388888888888,0.8916666666666515,0.9875389408100225,0.018326582697105274,0.8680194013793631,36.111111111111114,0.9999999999723078,0.9688473520249287,0.0,0.9911046534113293,0
306,258.05833333333334,0.86388888888888,0.8583333333333485,0.8916666666666515,0.9688473520249287,0.017921260556116436,0.8488217425467371,33.333333333333336,0.923076923051361,0.96261682242994,0.0,0.9901743547601931,0
307,258.9166666666667,0.8583333333333485,0.8555555555555543,0.8916666666666515,0.96261682242994,0.026648348234156367,1.2621711130910869,38.888888888888886,1.0769230768932543,0.9595015576324136,0.0,0.998461286545085,0
308,259.77222222222224,0.8555555555555543,0.8722222222222058,0.8916666666666515,0.9595015576324136,0.021219315966008616,1.0050306839476215,33.333333333333336,0.923076923051361,0.9781931464174437,0.0,0.9955131244262725,0
309,260.64444444444445,0.8722222222222058,0.8694444444444684,0.8916666666666515,0.9781931464174437,0.019406757359551805,0.9191807433151999,36.111111111111114,0.9999999999723078,0.9750778816199812,0.0,0.9916288883646613,0
310,261.5138888888889,0.8694444444444684,0.8444444444444343,0.8916666666666515,0.9750778816199812,0.019382080105103106,0.918011930995507,36.111111111111114,0.9999999999723078,0.9470404984423724,0.0,0.993071434493032,0
311,262.35833333333335,0.8444444444444343,0.8694444444444116,0.8916666666666515,0.9470404984423724,0.023523380235339553,1.1141602756919744,38.888888888888886,1.0769230768932543,0.9750778816199175,0.0,0.9972266918579074,0
312,263.22777777777776,0.8694444444444116,0.8694444444444684,0.8916666666666515,0.9750778816199175,0.019083080661835224,0.9038501354197752,36.111111111111114,0.9999999999723078,0.9750778816199812,0.0,0.9920899370433407,0
313,264.09722222222223,0.8694444444444684,0.8527777777777601,0.8916666666666515,0.9750778816199812,0.018989858783304742,0.8994347787471824,36.111111111111114,0.9999999999723078,0.9563862928348874,0.0,0.9924563557996032,0
314,264.95,0.8527777777777601,0.875,0.8916666666666515,0.9563862928348874,0.019215478415147275,0.9101210163839635,36.111111111111114,0.9999999999723078,0.9813084112149699,0.0,0.9914823655637098,0
315,265.825,0.875,0.86388888888888,0.8916666666666515,0.9813084112149699,0.026950483241475275,1.2764814213751365,38.888888888888886,1.0769230768932543,0.9688473520249287,0.0,0.9970378052643714,0
316,266.68888888888887,0.86388888888888,0.875,0.8916666666666515,0.9688473520249287,0.02616978701076915,1.2395045618025282,36.111111111111114,0.9999999999723078,0.9813084112149699,0.0,0.9964710799640281,0
317,267.56388888888887,0.875,0.8666666666666742,0.8916666666666515,0.9813084112149699,0.021257414730717794,1.0068351920483805,36.111111111111114,0.9999999999723078,0.9719626168224549,0.0,0.9912932557457412,0
318,268.43055555555554,0.8666666666666742,0.8777777777777942,0.8916666666666515,0.9719626168224549,0.01913470188906157,0.9062951207995404,36.111111111111114,0.9999999999723078,0.9844236760124963,0.0,0.9921275016202358,0
319,269.30833333333334,0.8777777777777942,0.8833333333333258,0.8916666666666515,0.9844236760124963,0.018908320783047387,0.8955728167358883,36.111111111111114,0.9999999999723078,0.990654205607485,0.0,0.9909364275125276,0
320,270.19166666666666,0.8833333333333258,0.8722222222222058,0.8916666666666515,0.990654205607485,0.025941957095840715,1.2287136364215663,36.111111111111114,0.9999999999723078,0.9781931464174437,0.0,0.9953059520941807,0
321,271.06388888888887,0.8722222222222058,0.8777777777777942,0.8916666666666515,0.9781931464174437,0.025964886757823203,1.2297996758538394,36.111111111111114,0.9999999999723078,0.9844236760124963,0.0,0.9972699591978162,0
322,271.94166666666666,0.8777777777777942,0.8805555555555316,0.8916666666666515,0.9844236760124963,0.01947444872792865,0.9223868741050006,36.111111111111114,0.9999999999723078,0.9875389408099587,0.0,0.9928641517299177,0
323,272.8222222222222,0.8805555555555316,0.9250000000000114,0.8916666666666515,0.9875389408099587,0.023621163100624832,1.118791658726821,36.111111111111114,0.9999999999723078,1.0373831775701239,0.0,0.9930976587355755,0
324,273.7472222222222,0.9250000000000114,0.9055555555555657,0.8916666666666515,1.0373831775701239,0.026470027788173103,1.253725151869929,38.888888888888886,1.0769230768932543,1.0155763239875675,0.0,0.9980230913250822,0
325,274.65277777777777,0.9055555555555657,0.9166666666666856,0.8916666666666515,1.0155763239875675,0.026470026740424066,1.253725102244393,38.888888888888886,1.0769230768932543,1.0280373831776088,0.0,0.998516794825417,0
326,275.56944444444446,0.9166666666666856,0.9694444444444343,0.8916666666666515,1.0280373831776088,0.02229602446247381,1.056027854560854,38.888888888888886,1.0769230768932543,1.0872274143302252,0.0,0.9951164355669713,0
327,276.5388888888889,0.9694444444444343,0.9138888888888914,0.8916666666666515,1.0872274143302252,0.01911813040705647,0.9055102299048343,36.111111111111114,0.9999999999723078,1.0249221183800825,0.0,0.991378692778105,0
328,277.4527777777778,0.9138888888888914,0.9055555555555657,0.8916666666666515,1.0249221183800825,0.025719939084715312,1.2181979857791283,36.111111111111114,0.9999999999723078,1.0155763239875675,0.0,0.9977864645488065,0
329,278.35833333333335,0.9055555555555657,0.9166666666666288,0.8916666666666515,1.0155763239875675,0.0263164988726561,1.2464534155323879,38.888888888888886,1.0769230768932543,1.0280373831775451,0.0,0.9986325983636136,0
330,279.275,0.9166666666666288,0.9138888888888914,0.8916666666666515,1.0280373831775451,0.020581282278608105,0.9748108863699347,36.111111111111114,0.9999999999723078,1.0249221183800825,0.0,0.9910362217513473,0
331,280.18888888888887,0.9138888888888914,0.9083333333333599,0.8916666666666515,1.0249221183800825,0.019938657400065358,0.9443736318308072,38.888888888888886,1.0769230768932543,1.0186915887850938,0.0,0.9919577798392001,0
332,281.09722222222223,0.9083333333333599,0.8805555555555316,0.8916666666666515,1.0186915887850938,0.02306488350674228,1.0924440581914656,36.111111111111114,0.9999999999723078,0.9875389408099587,0.0,0.9960447158396951,0
333,281.97777777777776,0.8805555555555316,0.9222222222222172,0.8916666666666515,0.9875389408099587,0.02613817279006676,1.2380071873392848,38.888888888888886,1.0769230768932543,1.0342679127725976,0.0,0.9988601303135869,0
334,282.9,0.9222222222222172,0.8805555555555884,0.8916666666666515,1.0342679127725976,0.023580681385626516,1.116874284680584,38.888888888888886,1.0769230768932543,0.9875389408100225,0.0,0.9963675327271599,0
335,283.78055555555557,0.8805555555555884,0.8694444444444116,0.8916666666666515,0.9875389408100225,0.026021766421828803,1.2324937215860314,38.888888888888886,1.0769230768932543,0.9750778816199175,0.0,0.9969994650732095,0
336,284.65,0.8694444444444116,0.875,0.8916666666666515,0.9750778816199175,0.01960584672825251,0.9286104028156521,36.111111111111114,0.9999999999723078,0.9813084112149699,0.0,0.9929161162018126,0
337,285.525,0.875,0.8583333333333485,0.8916666666666515,0.9813084112149699,0.01966686806643341,0.9315006146087934,38.888888888888886,1.0769230768932543,0.96261682242994,0.0,0.9926106084531112,0
338,286.3833333333333,0.8583333333333485,0.875,0.8916666666666515,0.96261682242994,0.02205049306812222,1.0443985171405956,38.888888888888886,1.0769230768932543,0.9813084112149699,0.0,0.9969289868735679,0
339,287.2583333333333,0.875,0.8611111111111427,0.8916666666666515,0.9813084112149699,0.021427521651309917,1.0148921282390093,36.111111111111114,0.9999999999723078,0.9657320872274662,0.0,0.9964438786426881,0
340,288.11944444444447,0.8611111111111427,0.8583333333332916,0.8916666666666515,0.9657320872274662,0.0261476654226384,1.2384567959421833,38.888888888888886,1.0769230768932543,0.9626168224298761,0.0,0.9975016800557979,0
341,288.97777777777776,0.8583333333332916,0.8694444444444684,0.8916666666666515,0.9626168224298761,0.023715236905294663,1.123247365989031,41.666666666666664,1.153846153814201,0.9750778816199812,0.0,0.9973225731570738,0
342,289.84722222222223,0.8694444444444684,0.8527777777777601,0.8916666666666515,0.9750778816199812,0.025464017580111388,1.206076531665291,38.888888888888886,1.0769230768932543,0.9563862928348874,0.0,0.9994080142789645,0
343,290.7,0.8527777777777601,0.8388888888889028,0.8916666666666515,0.9563862928348874,0.021878753194659643,1.0362642378469715,36.111111111111114,0.9999999999723078,0.9408099688473835,0.0,0.9963563838126439,0
344,291.5388888888889,0.8388888888889028,0.86388888888888,0.8916666666666515,0.9408099688473835,0.019449948457967867,0.9212264444702739,36.111111111111114,0.9999999999723078,0.9688473520249287,0.0,0.99210000404156,0
345,292.40277777777777,0.86388888888888,0.875,0.8916666666666515,0.9688473520249287,0.0225089268104708,1.0661117513633822,36.111111111111114,0.9999999999723078,0.9813084112149699,0.0,0.9946896176479929,0
346,293.27777777777777,0.875,0.8444444444444343,0.8916666666666515,0.9813084112149699,0.020374024907128755,0.9649943579698319,38.888888888888886,1.0769230768932543,0.9470404984423724,0.0,0.9926366805319161,0
347,294.1222222222222,0.8444444444444343,0.8527777777778169,0.8916666666666515,0.9470404984423724,0.018704177521562372,0.8859037848951707,36.111111111111114,0.9999999999723078,0.9563862928349511,0.0,0.9923786551494876,0
348,294.975,0.8527777777778169,0.8944444444444457,0.8916666666666515,0.9563862928349511,0.01935432316251381,0.9166972524714914,36.111111111111114,0.9999999999723078,1.0031152647975263,0.0,0.9933685198496462,0
349,295.86944444444447,0.8944444444444457,0.8805555555555316,0.8916666666666515,1.0031152647975263,0.022669517234085595,1.0737179486385233,38.888888888888886,1.0769230768932543,0.9875389408099587,0.0,0.9945889391510117,0
350,296.75,0.8805555555555316,0.8611111111110858,0.8916666666666515,0.9875389408099587,0.02151572223999922,1.0190696567756028,36.111111111111114,0.9999999999723078,0.9657320872274024,0.0,0.9951869112202822,0
351,297.6111111111111,0.8611111111110858,0.8583333333333485,0.8916666666666515,0.9657320872274024,0.018984103639512674,0.8991621923871496,36.111111111111114,0.9999999999723078,0.96261682242994,0.0,0.9929384166349164,0
352,298.46944444444443,0.8583333333333485,0.8694444444444684,0.8916666666666515,0.96261682242994,0.018746035623067328,0.887886350047208,36.111111111111114,0.9999999999723078,0.9750778816199812,0.0,0.9929150373837173,0
353,299.3388888888889,0.8694444444444684,0.8916666666666515,0.8916666666666515,0.9750778816199812,0.026350563038678415,1.2480668290905985,38.888888888888886,1.0769230768932543,1.0,0.0,0.9973086717075299,0
354,300.23055555555555,0.8916666666666515,0.8527777777777601,0.8916666666666515,1.0,0.01891030772199772,0.8956669260189308,36.111111111111114,0.9999999999723078,0.9563862928348874,0.0,0.9936964469275756,0
355,301.0833333333333,0.8527777777777601,0.875,0.8916666666666515,0.9563862928348874,0.018167722350730824,0.860495147401307,36.111111111111114,0.9999999999723078,0.9813084112149699,0.0,0.9928216064173758,0
356,301.9583333333333,0.875,0.8972222222222399,0.8916666666666515,0.9813084112149699,0.023388478641951135,1.1077708029641082,41.666666666666664,1.153846153814201,1.0062305295950524,0.0,0.9966142603672488,0
357,302.85555555555555,0.8972222222222399,0.8694444444444684,0.8916666666666515,1.0062305295950524,0.018811363008024,0.8909805132374204,36.111111111111114,0.9999999999723078,0.9750778816199812,0.0,0.9921197406195004,0
358,303.725,0.8694444444444684,0.8666666666666174,0.8916666666666515,0.9750778816199812,0.018200299372738187,0.8620381239403002,33.333333333333336,0.923076923051361,0.9719626168223912,0.0,0.992216548720882,0
359,304.59166666666664,0.8666666666666174,0.875,0.8916666666666515,0.9719626168223912,0.023506162767886057,1.1133447883728567,41.666666666666664,1.153846153814201,0.9813084112149699,0.0,0.9970380681159359,0
360,305.46666666666664,0.875,0.8555555555555543,0.8916666666666515,0.9813084112149699,0.01989070781511174,0.9421025499430529,38.888888888888886,1.0769230768932543,0.9595015576324136,0.0,0.991567126009635,0
361,306.3222222222222,0.8555555555555543,0.8472222222222285,0.8916666666666515,0.9595015576324136,0.0185304541938219,0.8776755613663656,36.111111111111114,0.9999999999723078,0.9501557632398986,0.0,0.992195209455661,0
362,307.1694444444444,0.8472222222222285,0.8333333333333712,0.8916666666666515,0.9501557632398986,0.025697693618177978,1.2171443525477572,36.111111111111114,0.9999999999723078,0.9345794392523948,0.0,0.9961634559306309,0
363,308.0027777777778,0.8333333333333712,0.8444444444444343,0.8916666666666515,0.9345794392523948,0.02576438035080241,1.220302899817006,36.111111111111114,0.9999999999723078,0.9470404984423724,0.0,0.9971686418071495,0
364,308.84722222222223,0.8444444444444343,0.8583333333333485,0.8916666666666515,0.9470404984423724,0.02284446384672522,1.0820041117757886,38.888888888888886,1.0769230768932543,0.96261682242994,0.0,0.9975782345876034,0
365,309.7055555555556,0.8583333333333485,0.8194444444444002,0.8916666666666515,0.96261682242994,0.02205934096582182,1.044817588551322,36.111111111111114,0.9999999999723078,0.9190031152647635,0.0,0.9969283902557864,0
366,310.525,0.8194444444444002,0.8583333333333485,0.8916666666666515,0.9190031152647635,0.019967337365248056,0.945732028353548,36.111111111111114,0.9999999999723078,0.96261682242994,0.0,0.9867695800866583,0
367,311.3833333333333,0.8583333333333485,0.8555555555555543,0.8916666666666515,0.96261682242994,0.026076949344998986,1.2351074029650542,36.111111111111114,0.9999999999723078,0.9595015576324136,0.0,0.9932432992273603,0
368,312.2388888888889,0.8555555555555543,0.86388888888888,0.8916666666666515,0.9595015576324136,0.01934170745791995,0.9160997228321403,36.111111111111114,0.9999999999723078,0.9688473520249287,0.0,0.9923600312248282,0
369,313.10277777777776,0.86388888888888,0.8583333333333485,0.8916666666666515,0.9688473520249287,0.026219546575422303,1.2418613714836888,38.888888888888886,1.0769230768932543,0.96261682242994,0.0,0.995993861348013,0
370,313.9611111111111,0.8583333333333485,0.830555555555577,0.8916666666666515,0.96261682242994,0.01962286564338184,0.9294164859118215,36.111111111111114,0.9999999999723078,0.9314641744548686,0.0,0.9940821432628085,0
371,314.7916666666667,0.830555555555577,0.8527777777777601,0.8916666666666515,0.9314641744548686,0.019913412341383604,0.9431779260581111,36.111111111111114,0.9999999999723078,0.9563862928348874,0.0,0.9920980518427711,0
372,315.64444444444445,0.8527777777777601,0.8611111111110858,0.8916666666666515,0.9563862928348874,0.01914832024666557,0.9069401400489318,36.111111111111114,0.9999999999723078,0.9657320872274024,0.0,0.9940178061201628,0
373,316.50555555555553,0.8611111111110858,0.830555555555577,0.8916666666666515,0.9657320872274024,0.019582425394709623,0.9275010758747044,36.111111111111114,0.9999999999723078,0.9314641744548686,0.0,0.9918154417285701,0
374,317.3361111111111,0.830555555555577,0.8249999999999886,0.8916666666666515,0.9314641744548686,0.0191088263722076,0.9050695540356116,36.111111111111114,0.9999999999723078,0.9252336448598161,0.0,0.9935243758585514,0
375,318.1611111111111,0.8249999999999886,0.5444444444444798,0.8916666666666515,0.9252336448598161,0.019141229250308762,0.9066042824308177,36.111111111111114,0.9999999999723078,0.6105919003115765,0.0,0.990435788707535,0
376,318.7055555555556,0.5444444444444798,0.9916666666666174,0.8916666666666515,0.6105919003115765,0.020161960726831185,0.954950160102819,30.555555555555557,0.8461538461304142,1.112149532710244,0.0,0.9809810941989856,0
377,319.6972222222222,0.9916666666666174,0.8583333333333485,0.8916666666666515,1.112149532710244,0.023497710916550976,1.112944475283522,36.111111111111114,0.9999999999723078,0.96261682242994,0.0,0.9936510467036721,0
378,320.55555555555554,0.8583333333333485,0.8555555555555543,0.8916666666666515,0.96261682242994,0.02585332225297067,1.2245155398903693,36.111111111111114,0.9999999999723078,0.9595015576324136,0.0,0.9943358617107881,0
379,321.4111111111111,0.8555555555555543,0.7722222222222399,0.8916666666666515,0.9595015576324136,0.02218360963990647,1.0507034441891112,36.111111111111114,0.9999999999723078,0.8660436137071996,0.0,0.9968669502332574,0
380,322.18333333333334,0.7722222222222399,0.42222222222221717,0.8916666666666515,0.8660436137071996,0.016861272380253693,0.7986165124125392,30.555555555555557,0.8461538461304142,0.4735202492211862,0.0,0.989886274700665,0
381,322.60555555555555,0.42222222222221717,0.8888888888889142,0.8916666666666515,0.4735202492211862,0.02080942299123458,0.9856165323584569,36.111111111111114,0.9999999999723078,0.9968847352025375,0.0,0.9900696215191832,0
382,323.49444444444447,0.8888888888889142,0.8944444444444457,0.8916666666666515,0.9968847352025375,0.022229246232188474,1.0528649736006952,36.111111111111114,0.9999999999723078,1.0031152647975263,0.0,0.9906479223049126,0
383,324.3888888888889,0.8944444444444457,0.8333333333333144,0.8916666666666515,1.0031152647975263,0.026257322138954556,1.2436505714990966,36.111111111111114,0.9999999999723078,0.9345794392523311,0.0,0.9933766535156388,0
384,325.22222222222223,0.8333333333333144,0.8555555555555543,0.8916666666666515,0.9345794392523311,0.021617635906687235,1.02389669089391,36.111111111111114,0.9999999999723078,0.9595015576324136,0.0,0.9958689673299047,0
385,326.0777777777778,0.8555555555555543,0.86388888888888,0.8916666666666515,0.9595015576324136,0.025782012645605406,1.2211380349992054,38.888888888888886,1.0769230768932543,0.9688473520249287,0.0,0.9992221955580359,0
386,326.94166666666666,0.86388888888888,0.8444444444444343,0.8916666666666515,0.9688473520249287,0.025961438342010194,1.2296363452493733,38.888888888888886,1.0769230768932543,0.9470404984423724,0.0,0.9957580008864879,0
387,327.7861111111111,0.8444444444444343,0.8833333333333258,0.8916666666666515,0.9470404984423724,0.019060494670048563,0.9027803735665021,36.111111111111114,0.9999999999723078,0.990654205607485,0.0,0.9917722033505212,0
388,328.6694444444444,0.8833333333333258,0.8638888888889369,0.8916666666666515,0.990654205607485,0.026411514392953403,1.25095372616931,38.888888888888886,1.0769230768932543,0.9688473520249924,0.0,0.997834810180185,0
389,329.53333333333336,0.8638888888889369,0.8583333333332916,0.8916666666666515,0.9688473520249924,0.0257035090410499,1.2174197939632945,38.888888888888886,1.0769230768932543,0.9626168224298761,0.0,0.9994221558683798,0
390,330.39166666666665,0.8583333333332916,0.8555555555555543,0.8916666666666515,0.9626168224298761,0.018723997792342337,0.8868425512686922,36.111111111111114,0.9999999999723078,0.9595015576324136,0.0,0.9938406516749333,0
391,331.2472222222222,0.8555555555555543,0.8361111111111086,0.8916666666666515,0.9595015576324136,0.022884098952030665,1.0838813870403294,36.111111111111114,0.9999999999723078,0.9376947040498573,0.0,0.9955468035161735,0
392,332.0833333333333,0.8361111111111086,0.8527777777778169,0.8916666666666515,0.9376947040498573,0.0266341520966706,1.2614987279025356,38.888888888888886,1.0769230768932543,0.9563862928349511,0.0,0.9964425916195392,0
393,332.93611111111113,0.8527777777778169,0.8305555555555202,0.8916666666666515,0.9563862928349511,0.018819235642993235,0.8913533923500306,36.111111111111114,0.9999999999723078,0.9314641744548048,0.0,0.9924157524252704,0
394,333.76666666666665,0.8305555555555202,0.5194444444444457,0.8916666666666515,0.9314641744548048,0.018234258425631023,0.8636465589251873,33.333333333333336,0.923076923051361,0.5825545171339677,0.0,0.9923474839308748,0
395,334.2861111111111,0.5194444444444457,1.01111111111112,0.8916666666666515,0.5825545171339677,0.019985906694043327,0.94661154516971,30.555555555555557,0.8461538461304142,1.133956386292864,0.0,0.9828704816122213,0
396,335.2972222222222,1.01111111111112,0.8999999999999773,0.8916666666666515,1.133956386292864,0.019735197727177658,0.9347369774482792,38.888888888888886,1.0769230768932543,1.009345794392515,0.0,0.9928546864632357,0
397,336.1972222222222,0.8999999999999773,0.8333333333333712,0.8916666666666515,1.009345794392515,0.018752583243860355,0.8881964712506618,33.333333333333336,0.923076923051361,0.9345794392523948,0.0,0.9926545804719168,0
398,337.03055555555557,0.8333333333333712,0.8388888888889028,0.8916666666666515,0.9345794392523948,0.018926921798079827,0.896453834337498,36.111111111111114,0.9999999999723078,0.9408099688473835,0.0,0.9920986082258167,0
399,337.86944444444447,0.8388888888889028,0.8388888888888459,0.8916666666666515,0.9408099688473835,0.0182819766650245,0.865906683372706,36.111111111111114,0.9999999999723078,0.9408099688473198,0.0,0.9911962538391889,0
400,338.7083333333333,0.8388888888888459,0.8388888888889028,0.8916666666666515,0.9408099688473198,0.02315673322123068,1.096794423750871,36.111111111111114,0.9999999999723078,0.9408099688473835,0.0,0.994665776507986,0
401,339.5472222222222,0.8388888888889028,0.8277777777777828,0.8916666666666515,0.9408099688473835,0.01910288267800807,0.9047880371829432,36.111111111111114,0.9999999999723078,0.9283489096573423,0.0,0.9926228869355231,0
402,340.375,0.8277777777777828,0.8333333333333144,0.8916666666666515,0.9283489096573423,0.024328624444346258,1.152299824554873,38.888888888888886,1.0769230768932543,0.9345794392523311,0.0,0.9959262383302929,0
403,341.2083333333333,0.8333333333333144,0.8333333333333712,0.8916666666666515,0.9345794392523311,0.023429601023817366,1.1097185215257612,38.888888888888886,1.0769230768932543,0.9345794392523948,0.0,0.9933480173929403,0
404,342.0416666666667,0.8333333333333712,0.8333333333333144,0.8916666666666515,0.9345794392523948,0.023900234241657697,1.1320095711322726,38.888888888888886,1.0769230768932543,0.9345794392523311,0.0,0.9963494367078114,0
405,342.875,0.8333333333333144,0.8138888888888687,0.8916666666666515,0.9345794392523311,0.022852956412135885,1.0824063532446853,41.666666666666664,1.153846153814201,0.9127725856697748,0.0,0.9914203913773021,0
406,343.68888888888887,0.8138888888888687,0.8194444444444571,0.8916666666666515,0.9127725856697748,0.021505789009186302,1.0185991796983158,36.111111111111114,0.9999999999723078,0.9190031152648273,0.0,0.9903134496425887,0
407,344.5083333333333,0.8194444444444571,0.8388888888889028,0.8916666666666515,0.9190031152648273,0.021833827832571873,1.034136395108874,33.333333333333336,0.923076923051361,0.9408099688473835,0.0,0.9951572551856409,0
408,345.34722222222223,0.8388888888889028,0.8277777777777828,0.8916666666666515,0.9408099688473835,0.025630278698492607,1.2139513154607842,38.888888888888886,1.0769230768932543,0.9283489096573423,0.0,0.9988553044147385,0
409,346.175,0.8277777777777828,0.8222222222221944,0.8916666666666515,0.9283489096573423,0.025699728310794763,1.2172407236332128,36.111111111111114,0.9999999999723078,0.9221183800622899,0.0,0.9963096812623023,0
410,346.9972222222222,0.8222222222221944,0.8388888888889028,0.8916666666666515,0.9221183800622899,0.026275301676350934,1.2445021534631662,36.111111111111114,0.9999999999723078,0.9408099688473835,0.0,0.9935512386167252,0
411,347.8361111111111,0.8388888888889028,0.8527777777777601,0.8916666666666515,0.9408099688473835,0.019179861193653176,0.9084340439793925,36.111111111111114,0.9999999999723078,0.9563862928348874,0.0,0.9923310117364031,0
412,348.68888888888887,0.8527777777777601,0.8444444444444912,0.8916666666666515,0.9563862928348874,0.019320028249236725,0.9150729098111526,36.111111111111114,0.9999999999723078,0.9470404984424361,0.0,0.9913601883889415,0
413,349.53333333333336,0.8444444444444912,0.8611111111110858,0.8916666666666515,0.9470404984424361,0.01908951496537478,0.9041548894701623,36.111111111111114,0.9999999999723078,0.9657320872274024,0.0,0.9937015608239399,0
414,350.39444444444445,0.8611111111110858,0.88611111111112,0.8916666666666515,0.9657320872274024,0.02658460656142039,1.259152055499955,38.888888888888886,1.0769230768932543,0.9937694704050112,0.0,0.9969843959759324,0
415,351.28055555555557,0.88611111111112,0.9250000000000114,0.8916666666666515,0.9937694704050112,0.01873119048428434,0.8871832255917229,36.111111111111114,0.9999999999723078,1.0373831775701239,0.0,0.9928095322913093,0
416,352.2055555555556,0.9250000000000114,0.8861111111110631,0.8916666666666515,1.0373831775701239,0.01926650486216778,0.9125378306220182,36.111111111111114,0.9999999999723078,0.9937694704049475,0.0,0.9928662165216364,0
417,353.09166666666664,0.8861111111110631,0.8722222222222626,0.8916666666666515,0.9937694704049475,0.025927119120867263,1.2280108512724195,36.111111111111114,0.9999999999723078,0.9781931464175074,0.0,0.9975512258893093,0
418,353.9638888888889,0.8722222222222626,0.9111111111110972,0.8916666666666515,0.9781931464175074,0.02347908503811031,1.1120622800526139,38.888888888888886,1.0769230768932543,1.0218068535825564,0.0,0.996610538124113,0
419,354.875,0.9111111111110972,0.86388888888888,0.8916666666666515,1.0218068535825564,0.019482033834703778,0.9227461347457411,36.111111111111114,0.9999999999723078,0.9688473520249287,0.0,0.9915885733828869,0
420,355.7388888888889,0.86388888888888,0.8500000000000227,0.8916666666666515,0.9688473520249287,0.022108534057511637,1.0471475678336757,36.111111111111114,0.9999999999723078,0.9532710280374249,0.0,0.996458064415515,0
421,356.5888888888889,0.8500000000000227,0.875,0.8916666666666515,0.9532710280374249,0.019009165798303387,0.9003492352980041,36.111111111111114,0.9999999999723078,0.9813084112149699,0.0,0.9920933525151336,0
422,357.4638888888889,0.875,0.875,0.8916666666666515,0.9813084112149699,0.023476690767533098,1.1119488779335434,38.888888888888886,1.0769230768932543,0.9813084112149699,0.0,0.9958121245821815,0
423,358.3388888888889,0.875,0.8611111111110858,0.8916666666666515,0.9813084112149699,0.026222747803297582,1.242012994290292,38.888888888888886,1.0769230768932543,0.9657320872274024,0.0,0.9980624562025738,0
424,359.2,0.8611111111110858,0.8611111111111427,0.8916666666666515,0.9657320872274024,0.026059704994232158,1.2342906423459474,38.888888888888886,1.0769230768932543,0.9657320872274662,0.0,0.9987114226281457,0
425,360.06111111111113,0.8611111111111427,0.8861111111110631,0.8916666666666515,0.9657320872274662,0.019056491548816636,0.9025907699206498,36.111111111111114,0.9999999999723078,0.9937694704049475,0.0,0.9902318814873943,0
426,360.9472222222222,0.8861111111110631,0.8916666666667084,0.8916666666666515,0.9937694704049475,0.02222694878589094,1.052756157462256,38.888888888888886,1.0769230768932543,1.0000000000000637,0.0,0.9947687065400515,0
427,361.8388888888889,0.8916666666667084,0.8694444444444116,0.8916666666666515,1.0000000000000637,0.019544425609399153,0.9257012558295332,36.111111111111114,0.9999999999723078,0.9750778816199175,0.0,0.991221938432516,0
428,362.7083333333333,0.8694444444444116,0.8722222222222626,0.8916666666666515,0.9750778816199175,0.019597540342661795,0.9282169795589956,36.111111111111114,0.9999999999723078,0.9781931464175074,0.0,0.9908355661705477,0
429,363.5805555555556,0.8722222222222626,0.8777777777777374,0.8916666666666515,0.9781931464175074,0.019669367623684292,0.9316190035209262,38.888888888888886,1.0769230768932543,0.9844236760124324,0.0,0.9924089732914725,0
430,364.4583333333333,0.8777777777777374,0.8944444444444457,0.8916666666666515,0.9844236760124324,0.020280552970265105,0.9605671575461016,36.111111111111114,0.9999999999723078,1.0031152647975263,0.0,0.9895569426871811,0
431,365.35277777777776,0.8944444444444457,0.8916666666667084,0.8916666666666515,1.0031152647975263,0.02206757712773042,1.0452076857368,36.111111111111114,0.9999999999723078,1.0000000000000637,0.0,0.9952840328416741,0
432,366.24444444444447,0.8916666666667084,0.9277777777777487,0.8916666666666515,1.0000000000000637,0.02240507334551663,1.0611928407311817,38.888888888888886,1.0769230768932543,1.0404984423675863,0.0,0.9958446614474141,0
433,367.1722222222222,0.9277777777777487,0.9583333333333144,0.8916666666666515,1.0404984423675863,0.026157003512514203,1.2388990847921009,38.888888888888886,1.0769230768932543,1.074766355140184,0.0,0.9988673654221236,0
434,368.13055555555553,0.9583333333333144,0.9250000000000114,0.8916666666666515,1.074766355140184,0.021569154422480218,1.0216004161549208,36.111111111111114,0.9999999999723078,1.0373831775701239,0.0,0.996243437476085,0
435,369.05555555555554,0.9250000000000114,0.9222222222222172,0.8916666666666515,1.0373831775701239,0.023236945203391285,1.1005935803033635,38.888888888888886,1.0769230768932543,1.0342679127725976,0.0,0.9965072774593327,0
436,369.97777777777776,0.9222222222222172,0.9000000000000341,0.8916666666666515,1.0342679127725976,0.023017552318765108,1.0902022660290343,38.888888888888886,1.0769230768932543,1.0093457943925788,0.0,0.9968468225989433,0
437,370.8777777777778,0.9000000000000341,0.9138888888888914,0.8916666666666515,1.0093457943925788,0.019484382393964952,0.9228573717961875,36.111111111111114,0.9999999999723078,1.0249221183800825,0.0,0.99295394315648,0
438,371.7916666666667,0.9138888888888914,0.9055555555555088,0.8916666666666515,1.0249221183800825,0.021849418853471442,1.0348748474898668,36.111111111111114,0.9999999999723078,1.0155763239875037,0.0,0.9959864299824668,0
439,372.6972222222222,0.9055555555555088,0.9000000000000341,0.8916666666666515,1.0155763239875037,0.026093082243041767,1.2358715207895858,38.888888888888886,1.0769230768932543,1.0093457943925788,0.0,0.9987999964832025,0
440,373.59722222222223,0.9000000000000341,0.8972222222222399,0.8916666666666515,1.0093457943925788,0.018395416122714437,0.8712796245142301,36.111111111111114,0.9999999999723078,1.0062305295950524,0.0,0.9933594656911616,0
441,374.49444444444447,0.8972222222222399,0.8777777777777374,0.8916666666666515,1.0062305295950524,0.01833840106875333,0.8685791661785498,36.111111111111114,0.9999999999723078,0.9844236760124324,0.0,0.9925990150472099,0
442,375.3722222222222,0.8777777777777374,0.8916666666667084,0.8916666666666515,0.9844236760124324,0.02590498635076966,1.2269625557899222,38.888888888888886,1.0769230768932543,1.0000000000000637,0.0,0.9987859532143237,0
443,376.2638888888889,0.8916666666667084,0.8888888888888573,0.8916666666666515,1.0000000000000637,0.02698742500160362,1.2782311291653168,38.888888888888886,1.0769230768932543,0.9968847352024738,0.0,0.9973798967346977,0
444,377.15277777777777,0.8888888888888573,0.9000000000000341,0.8916666666666515,0.9968847352024738,0.02257150194252449,1.0690755569764743,38.888888888888886,1.0769230768932543,1.0093457943925788,0.0,0.9951092216044167,0
445,378.0527777777778,0.9000000000000341,0.8861111111110631,0.8916666666666515,1.0093457943925788,0.02562216217850004,1.2135668849893935,36.111111111111114,0.9999999999723078,0.9937694704049475,0.0,0.9978935786925351,0
446,378.93888888888887,0.8861111111110631,0.8722222222222626,0.8916666666666515,0.9937694704049475,0.018858555301269914,0.8932157267963295,36.111111111111114,0.9999999999723078,0.9781931464175074,0.0,0.9938162041499384,0
447,379.81111111111113,0.8722222222222626,0.8972222222221831,0.8916666666666515,0.9781931464175074,0.019218167970908057,0.9102484043765878,36.111111111111114,0.9999999999723078,1.0062305295949887,0.0,0.9932448006980885,0
448,380.7083333333333,0.8972222222221831,0.8722222222222626,0.8916666666666515,1.0062305295949887,0.026193771176246914,1.240640546688782,38.888888888888886,1.0769230768932543,0.9781931464175074,0.0,0.998789860704342,0
449,381.5805555555556,0.8722222222222626,0.8472222222222285,0.8916666666666515,0.9781931464175074,0.02205942273019085,1.0448214612350533,36.111111111111114,0.9999999999723078,0.9501557632398986,0.0,0.9968919300184349,0
450,382.4277777777778,0.8472222222222285,0.8805555555555316,0.8916666666666515,0.9501557632398986,0.025741039778864796,1.219197398064934,38.888888888888886,1.0769230768932543,0.9875389408099587,0.0,0.9991470968856018,0
451,383.30833333333334,0.8805555555555316,0.875,0.8916666666666515,0.9875389408099587,0.022433610619004812,1.0625444788112108,36.111111111111114,0.9999999999723078,0.9813084112149699,0.0,0.9962528339271626,0
452,384.18333333333334,0.875,0.86388888888888,0.8916666666666515,0.9813084112149699,0.02569018552034942,1.216788739355142,38.888888888888886,1.0769230768932543,0.9688473520249287,0.0,0.9985573994199619,0
453,385.0472222222222,0.86388888888888,0.8583333333333485,0.8916666666666515,0.9688473520249287,0.01921300868875132,0.910004040379041,36.111111111111114,0.9999999999723078,0.96261682242994,0.0,0.9933008979111757,0
454,385.90555555555557,0.8583333333333485,0.8777777777777942,0.8916666666666515,0.96261682242994,0.022743903401231697,1.0772411715625256,38.888888888888886,1.0769230768932543,0.9844236760124963,0.0,0.9972404819799312,0
455,386.78333333333336,0.8777777777777942,0.8777777777777374,0.8916666666666515,0.9844236760124963,0.02593748424420425,1.2285017844869142,36.111111111111114,0.9999999999723078,0.9844236760124324,0.0,0.9959095225871716,0
456,387.6611111111111,0.8777777777777374,0.875,0.8916666666666515,0.9844236760124324,0.025496340728072067,1.2076074837258712,36.111111111111114,0.9999999999723078,0.9813084112149699,0.0,0.9955962661447106,0
457,388.5361111111111,0.875,0.8833333333333258,0.8916666666666515,0.9813084112149699,0.025937489288621527,1.228502023410457,38.888888888888886,1.0769230768932543,0.990654205607485,0.0,0.9989507447411909,0
458,389.4194444444444,0.8833333333333258,0.8638888888889369,0.8916666666666515,0.990654205607485,0.021351021980828014,1.0112688014423605,36.111111111111114,0.9999999999723078,0.9688473520249924,0.0,0.9958363691384595,0
459,390.28333333333336,0.8638888888889369,0.8944444444444457,0.8916666666666515,0.9688473520249924,0.01964637497370712,0.9305299807282338,36.111111111111114,0.9999999999723078,1.0031152647975263,0.0,0.993351472350981,0
460,391.1777777777778,0.8944444444444457,0.8722222222222058,0.8916666666666515,1.0031152647975263,0.019398693326612086,0.9187987988381129,36.111111111111114,0.9999999999723078,0.9781931464174437,0.0,0.9939333518837093,0
461,392.05,0.8722222222222058,0.8694444444444116,0.8916666666666515,0.9781931464174437,0.026097758275514034,1.2360929961717937,38.888888888888886,1.0769230768932543,0.9750778816199175,0.0,0.9978904340442758,0
462,392.9194444444444,0.8694444444444116,0.8972222222222399,0.8916666666666515,0.9750778816199175,0.022825859171955478,1.0811229208345532,38.888888888888886,1.0769230768932543,1.0062305295950524,0.0,0.9962898308927353,0
463,393.81666666666666,0.8972222222222399,0.8694444444444684,0.8916666666666515,1.0062305295950524,0.0258286418766465,1.2233465797063137,38.888888888888886,1.0769230768932543,0.9750778816199812,0.0,0.9990672970574332,0
464,394.68611111111113,0.8694444444444684,0.8611111111110858,0.8916666666666515,0.9750778816199812,0.023370184901244595,1.1069043390892261,38.888888888888886,1.0769230768932543,0.9657320872274024,0.0,0.9960617037326103,0
465,395.5472222222222,0.8611111111110858,0.86388888888888,0.8916666666666515,0.9657320872274024,0.01855133569645763,0.8786645918756176,36.111111111111114,0.9999999999723078,0.9688473520249287,0.0,0.993506488032476,0
466,396.4111111111111,0.86388888888888,0.8583333333333485,0.8916666666666515,0.9688473520249287,0.0248543994235613,1.1772026059550613,36.111111111111114,0.9999999999723078,0.96261682242994,0.0,0.9977819038291598,0
467,397.26944444444445,0.8583333333333485,0.8555555555555543,0.8916666666666515,0.96261682242994,0.021686953654747546,1.0271798534545864,36.111111111111114,0.9999999999723078,0.9595015576324136,0.0,0.9954808924192375,0
468,398.125,0.8555555555555543,0.8416666666666401,0.8916666666666515,0.9595015576324136,0.025373322699636356,1.2017808636098088,38.888888888888886,1.0769230768932543,0.9439252336448462,0.0,0.9973752704296466,0
469,398.96666666666664,0.8416666666666401,0.8277777777777828,0.8916666666666515,0.9439252336448462,0.01879870736675413,0.890381092039224,36.111111111111114,0.9999999999723078,0.9283489096573423,0.0,0.9936457925197806,0
470,399.7944444444444,0.8277777777777828,0.8555555555555543,0.8916666666666515,0.9283489096573423,0.025931549612174396,1.2282206968544243,38.888888888888886,1.0769230768932543,0.9595015576324136,0.0,0.998630250990602,0
471,400.65,0.8555555555555543,0.5333333333333599,0.8916666666666515,0.9595015576324136,0.025625905211048756,1.21374416980708,38.888888888888886,1.0769230768932543,0.5981308411215353,0.0,0.9994807847598612,0
472,401.18333333333334,0.5333333333333599,0.9388888888888687,0.8916666666666515,0.5981308411215353,0.01719905363470413,0.8146151678700866,33.333333333333336,0.923076923051361,1.0529595015576276,0.0,0.9879081717632525,0
473,402.1222222222222,0.9388888888888687,0.8694444444444684,0.8916666666666515,1.0529595015576276,0.025690981509679633,1.2168264405563607,36.111111111111114,0.9999999999723078,0.9750778816199812,0.0,0.9940222235627427,0
474,402.9916666666667,0.8694444444444684,0.8555555555555543,0.8916666666666515,0.9750778816199812,0.019055669858358482,0.9025518514124153,36.111111111111114,0.9999999999723078,0.9595015576324136,0.0,0.9941519133798268,0
475,403.84722222222223,0.8555555555555543,0.8499999999999659,0.8916666666666515,0.9595015576324136,0.01959057683806192,0.927887160454464,36.111111111111114,0.9999999999723078,0.9532710280373611,0.0,0.993478013096746,0
476,404.6972222222222,0.8499999999999659,0.8194444444444571,0.8916666666666515,0.9532710280373611,0.02505170360728624,1.1865477120382384,38.888888888888886,1.0769230768932543,0.9190031152648273,0.0,0.9870884833438929,0
477,405.51666666666665,0.8194444444444571,0.8027777777778056,0.8916666666666515,0.9190031152648273,0.018333153373334538,0.8683306145794151,33.333333333333336,0.923076923051361,0.9003115264797973,0.0,0.9873292807389418,0
478,406.31944444444446,0.8027777777778056,0.8305555555555202,0.8916666666666515,0.9003115264797973,0.025029428838997263,1.18549269096008,38.888888888888886,1.0769230768932543,0.9314641744548048,0.0,0.9967331881704447,0
479,407.15,0.8305555555555202,0.7944444444444798,0.8916666666666515,0.9314641744548048,0.018384080895920425,0.8707427433651989,33.333333333333336,0.923076923051361,0.8909657320872822,0.0,0.9916416924376215,0
480,407.94444444444446,0.7944444444444798,0.5694444444444571,0.8916666666666515,0.8909657320872822,0.026146302563745026,1.2383922455576222,38.888888888888886,1.0769230768932543,0.6386292834891216,0.0,0.9989783373233115,0
481,408.5138888888889,0.5694444444444571,0.5888888888888459,0.8916666666666515,0.6386292834891216,0.018828361982857776,0.8917856518823686,33.333333333333336,0.923076923051361,0.6604361370716142,0.0,0.9892749782871859,0
482,409.10277777777776,0.5888888888888459,0.4472222222222513,0.8916666666666515,0.6604361370716142,0.02325389534359146,1.1013964059470214,36.111111111111114,0.9999999999723078,0.501557632398795,0.0,0.9941177132754424,0
483,409.55,0.4472222222222513,0.9027777777777715,0.8916666666666515,0.501557632398795,0.020700748558652,0.980469281642126,36.111111111111114,0.9999999999723078,1.0124610591900414,0.0,0.9849589996021255,0
484,410.4527777777778,0.9027777777777715,0.8111111111111313,0.8916666666666515,1.0124610591900414,0.025519197960455018,1.2086900926059965,36.111111111111114,0.9999999999723078,0.9096573208723123,0.0,0.9924864313553932,0
485,411.2638888888889,0.8111111111111313,0.6111111111110858,0.8916666666666515,0.9096573208723123,0.024734172016006358,1.1715081606752156,36.111111111111114,0.9999999999723078,0.6853582554516967,0.0,0.9964160612006859,0
486,411.875,0.6111111111110858,0.41944444444442297,0.8916666666666515,0.6853582554516967,0.022952538381517444,1.0871229489613767,36.111111111111114,0.9999999999723078,0.4704049844236599,0.0,0.9922783610472391,0
487,412.2944444444444,0.41944444444442297,0.3805555555555884,0.8916666666666515,0.4704049844236599,0.018537950543086223,0.8780306181005365,36.111111111111114,0.9999999999723078,0.42679127725861105,0.0,0.9884661378335857,0
488,412.675,0.3805555555555884,0.6166666666666742,0.8916666666666515,0.42679127725861105,0.028041501880722984,1.3281563769184364,47.22222222222222,1.3076923076560947,0.6915887850467493,1.0,0.9906365083297253,1
489,413.2916666666667,0.6166666666666742,0.9055555555555088,0.8916666666666515,0.6915887850467493,0.024349441738142387,1.1532858138796644,36.111111111111114,0.9999999999723078,1.0155763239875037,0.0,0.9927953803218219,0
490,414.1972222222222,0.9055555555555088,0.8583333333333485,0.8916666666666515,1.0155763239875037,0.02078210755735012,0.9843227654319827,36.111111111111114,0.9999999999723078,0.96261682242994,0.0,0.9925897683173579,0
491,415.05555555555554,0.8583333333333485,0.5416666666666856,0.8916666666666515,0.96261682242994,0.022169647658204866,1.050042149544114,36.111111111111114,0.9999999999723078,0.6074766355140503,0.0,0.9945642582450964,0
492,415.59722222222223,0.5416666666666856,0.3972222222222399,0.8916666666666515,0.6074766355140503,0.02080933337990777,0.9856122880117862,33.333333333333336,0.923076923051361,0.4454828660436411,0.0,0.9917547107060487,0
493,415.99444444444447,0.3972222222222399,0.38333333333332575,0.8916666666666515,0.4454828660436411,0.025515393837684548,1.2085099143139182,38.888888888888886,1.0769230768932543,0.4299065420560736,0.0,0.9948921524560033,0
494,416.3777777777778,0.38333333333332575,0.42222222222221717,0.8916666666666515,0.4299065420560736,0.027259511302776693,1.2911182119439888,47.22222222222222,1.3076923076560947,0.4735202492211862,1.0,0.9924020750003936,1
495,416.8,0.42222222222221717,0.8222222222221944,0.8916666666666515,0.4735202492211862,0.021733497862234167,1.0293843711100572,33.333333333333336,0.923076923051361,0.9221183800622899,0.0,0.9880831863839915,0
496,417.6222222222222,0.8222222222221944,0.9361111111111313,0.8916666666666515,0.9221183800622899,0.01836589721478487,0.8698814923466633,33.333333333333336,0.923076923051361,1.049844236760165,0.0,0.9917809464007509,0
497,418.55833333333334,0.9361111111111313,0.5027777777777942,0.8916666666666515,1.049844236760165,0.024561221393193642,1.1633165355062858,36.111111111111114,0.9999999999723078,0.5638629283489377,0.0,0.9974873055762647,0
498,419.06111111111113,0.5027777777777942,0.4249999999999545,0.8916666666666515,0.5638629283489377,0.020359093769458807,0.9642871602671076,33.333333333333336,0.923076923051361,0.4766355140186487,0.0,0.9918862444959216,0
499,419.4861111111111,0.4249999999999545,0.3805555555555884,0.8916666666666515,0.4766355140186487,0.022684508708729574,1.0744280041388494,38.888888888888886,1.0769230768932543,0.42679127725861105,0.0,0.9863634398818741,0
500,419.8666666666667,0.3805555555555884,1.1222222222222058,0.8916666666666515,0.42679127725861105,0.02635170844058912,1.2481210798528546,50.0,1.3846153845770415,1.2585669781931494,1.0,0.9901511801546043,1
501,420.9888888888889,1.1222222222222058,0.9111111111110972,0.8916666666666515,1.2585669781931494,0.022171429823758193,1.0501265599496066,36.111111111111114,0.9999999999723078,1.0218068535825564,0.0,0.994740351384998,0
502,421.9,0.9111111111110972,0.9055555555555657,0.8916666666666515,1.0218068535825564,0.02111736585941823,1.0002019238914912,36.111111111111114,0.9999999999723078,1.0155763239875675,0.0,0.995399458366477,0
503,422.80555555555554,0.9055555555555657,0.7305555555555543,0.8916666666666515,1.0155763239875675,0.01746223203104573,0.827080337063059,33.333333333333336,0.923076923051361,0.8193146417445608,0.0,0.9926198217861035,0
504,423.5361111111111,0.7305555555555543,1.0444444444444798,0.8916666666666515,0.8193146417445608,0.023291498382063503,1.1031774344935874,36.111111111111114,0.9999999999723078,1.171339563862988,0.0,0.9948666845052425,0
505,424.5805555555556,1.0444444444444798,0.9055555555555088,0.8916666666666515,1.171339563862988,0.01770287016168498,0.8384779101708661,33.333333333333336,0.923076923051361,1.0155763239875037,0.0,0.9922866626203808,0
506,425.4861111111111,0.9055555555555088,0.9500000000000455,0.8916666666666515,1.0155763239875037,0.02159985647028416,1.0230545865038811,36.111111111111114,0.9999999999723078,1.0654205607477327,0.0,0.9956726218298391,0
507,426.43611111111113,0.9500000000000455,0.8944444444444457,0.8916666666666515,1.0654205607477327,0.020296181975356927,0.9613074090085906,33.333333333333336,0.923076923051361,1.0031152647975263,0.0,0.9956391375952478,0
508,427.3305555555556,0.8944444444444457,0.8694444444444116,0.8916666666666515,1.0031152647975263,0.017506765969249924,0.8291896404187346,33.333333333333336,0.923076923051361,0.9750778816199175,0.0,0.9903173795021019,0
509,428.2,0.8694444444444116,0.88611111111112,0.8916666666666515,0.9750778816199175,0.018306269202422915,0.8670572739721139,36.111111111111114,0.9999999999723078,0.9937694704050112,0.0,0.9905309720828445,0
510,429.0861111111111,0.88611111111112,0.8944444444444457,0.8916666666666515,0.9937694704050112,0.02176679486932194,1.0309614489885544,36.111111111111114,0.9999999999723078,1.0031152647975263,0.0,0.9935090144834979,0
511,429.98055555555555,0.8944444444444457,0.8833333333333258,0.8916666666666515,1.0031152647975263,0.023000180019493978,1.0893794452629844,38.888888888888886,1.0769230768932543,0.990654205607485,0.0,0.9975849656596523,0
512,430.8638888888889,0.8833333333333258,0.5472222222222172,0.8916666666666515,0.990654205607485,0.024984470667191883,1.18336329422406,38.888888888888886,1.0769230768932543,0.613707165109039,0.0,0.9988840116042874,0
513,431.4111111111111,0.5472222222222172,0.40277777777777146,0.8916666666666515,0.613707165109039,0.019647082265216803,0.9305634808500505,30.555555555555557,0.8461538461304142,0.4517133956386299,0.0,0.9855240218509068,0
514,431.81388888888887,0.40277777777777146,0.6472222222222399,0.8916666666666515,0.4517133956386299,0.02648154605886307,1.2542707027014437,41.666666666666664,1.153846153814201,0.7258566978193468,1.0,0.993732546640533,1
515,432.4611111111111,0.6472222222222399,1.0777777777777828,0.8916666666666515,0.7258566978193468,0.018216714780202058,0.8628156225277722,33.333333333333336,0.923076923051361,1.208722741433048,0.0,0.9925160205468578,0
516,433.5388888888889,1.0777777777777828,0.9472222222221944,0.8916666666666515,1.208722741433048,0.025274964183016658,1.1971222154522185,36.111111111111114,0.9999999999723078,1.0623052959501427,0.0,0.9947928097476169,0
517,434.4861111111111,0.9472222222221944,0.9250000000000114,0.8916666666666515,1.0623052959501427,0.022800486876998288,1.0799211886488884,38.888888888888886,1.0769230768932543,1.0373831775701239,0.0,0.9971060968666028,0
518,435.4111111111111,0.9250000000000114,0.9305555555555429,0.8916666666666515,1.0373831775701239,0.02028810982573518,0.9609250800933575,36.111111111111114,0.9999999999723078,1.0436137071651126,0.0,0.994553245101366,0
519,436.34166666666664,0.9305555555555429,0.9305555555555998,0.8916666666666515,1.0436137071651126,0.018238298208555583,0.8638378990137261,36.111111111111114,0.9999999999723078,1.0436137071651763,0.0,0.9937864733477209,0
520,437.27222222222224,0.9305555555555998,0.919444444444423,0.8916666666666515,1.0436137071651763,0.02464159532967683,1.1671233628556998,36.111111111111114,0.9999999999723078,1.0311526479750712,0.0,0.9973661561746883,0
521,438.19166666666666,0.919444444444423,0.9305555555555429,0.8916666666666515,1.0311526479750712,0.017561790817115144,0.8317958347264438,33.333333333333336,0.923076923051361,1.0436137071651126,0.0,0.9920593821069759,0
522,439.1222222222222,0.9305555555555429,0.7638888888889142,0.8916666666666515,1.0436137071651126,0.018544422053046284,0.8783371343940756,36.111111111111114,0.9999999999723078,0.8566978193146847,0.0,0.9923926593867416,0
523,439.8861111111111,0.7638888888889142,1.0749999999999886,0.8916666666666515,0.8566978193146847,0.022311689479481856,1.0567698116900504,33.333333333333336,0.923076923051361,1.2056074766355218,0.0,0.989571175737632,0
524,440.9611111111111,1.0749999999999886,0.9222222222222172,0.8916666666666515,1.2056074766355218,0.022672777246291864,1.0738723557034162,36.111111111111114,0.9999999999723078,1.0342679127725976,0.0,0.9950029256037787,0
525,441.8833333333333,0.9222222222222172,0.9138888888888914,0.8916666666666515,1.0342679127725976,0.02085741648194372,0.9878896937963518,33.333333333333336,0.923076923051361,1.0249221183800825,0.0,0.995314907448422,0
526,442.7972222222222,0.9138888888888914,0.9055555555555657,0.8916666666666515,1.0249221183800825,0.018912066147148954,0.8957502119851348,36.111111111111114,0.9999999999723078,1.0155763239875675,0.0,0.9925388540867776,0
527,443.7027777777778,0.9055555555555657,0.8722222222222058,0.8916666666666515,1.0155763239875675,0.024219554233937953,1.147133828236209,36.111111111111114,0.9999999999723078,0.9781931464174437,0.0,0.9967504459407052,0
528,444.575,0.8722222222222058,0.8916666666666515,0.8916666666666515,0.9781931464174437,0.017668941694785528,0.8368709238595319,33.333333333333336,0.923076923051361,1.0,0.0,0.9898654001957233,0
529,445.46666666666664,0.8916666666666515,0.8972222222222399,0.8916666666666515,1.0,0.019109067037820233,0.9050809529103753,36.111111111111114,0.9999999999723078,1.0062305295950524,0.0,0.9923200303035644,0
530,446.3638888888889,0.8972222222222399,0.8694444444444684,0.8916666666666515,1.0062305295950524,0.01881623850422878,0.8912114360104789,36.111111111111114,0.9999999999723078,0.9750778816199812,0.0,0.994243253959272,0
531,447.23333333333335,0.8694444444444684,0.9111111111110972,0.8916666666666515,0.9750778816199812,0.02511200422561713,1.189403787690283,36.111111111111114,0.9999999999723078,1.0218068535825564,0.0,0.9983148915758642,0
532,448.14444444444445,0.9111111111110972,0.88611111111112,0.8916666666666515,1.0218068535825564,0.022459862687352904,1.0637878805424066,38.888888888888886,1.0769230768932543,0.9937694704050112,0.0,0.9970929377339741,0
533,449.03055555555557,0.88611111111112,0.8888888888888573,0.8916666666666515,0.9937694704050112,0.018587223843793528,0.880364396399024,36.111111111111114,0.9999999999723078,0.9968847352024738,0.0,0.9916969176620221,0
534,449.9194444444444,0.8888888888888573,0.8694444444444684,0.8916666666666515,0.9968847352024738,0.025135787378556318,1.190530251828109,36.111111111111114,0.9999999999723078,0.9750778816199812,0.0,0.9947470817722676,0
535,450.7888888888889,0.8694444444444684,0.8500000000000227,0.8916666666666515,0.9750778816199812,0.018920113531703576,0.8961313679288927,38.888888888888886,1.0769230768932543,0.9532710280374249,0.0,0.9926717315931701,0
536,451.6388888888889,0.8500000000000227,0.8694444444444116,0.8916666666666515,0.9532710280374249,0.020555083807438618,0.973570023212987,36.111111111111114,0.9999999999723078,0.9750778816199175,0.0,0.9943345968736215,0
537,452.5083333333333,0.8694444444444116,0.8500000000000227,0.8916666666666515,0.9750778816199175,0.017435730297991003,0.8258251102244344,33.333333333333336,0.923076923051361,0.9532710280374249,0.0,0.9915550620718587,0
538,453.35833333333335,0.8500000000000227,0.8222222222221944,0.8916666666666515,0.9532710280374249,0.018032198925279377,0.8540762222488383,36.111111111111114,0.9999999999723078,0.9221183800622899,0.0,0.9932715510067476,0
539,454.18055555555554,0.8222222222221944,0.8666666666666742,0.8916666666666515,0.9221183800622899,0.024780723313683667,1.1737130141501448,36.111111111111114,0.9999999999723078,0.9719626168224549,0.0,0.99875045994298,0
540,455.0472222222222,0.8666666666666742,0.8722222222222058,0.8916666666666515,0.9719626168224549,0.018510202092854287,0.8767163418081356,36.111111111111114,0.9999999999723078,0.9781931464174437,0.0,0.9926990097169552,0
541,455.9194444444444,0.8722222222222058,0.8805555555555884,0.8916666666666515,0.9781931464174437,0.022758231490494378,1.077919806508836,38.888888888888886,1.0769230768932543,0.9875389408100225,0.0,0.9979996780060789,0
542,456.8,0.8805555555555884,0.8833333333333258,0.8916666666666515,0.9875389408100225,0.018302711371033533,0.8668887610134318,33.333333333333336,0.923076923051361,0.990654205607485,0.0,0.9934978548700506,0
543,457.68333333333334,0.8833333333333258,0.8972222222222399,0.8916666666666515,0.990654205607485,0.025203606502463505,1.1937424336248432,36.111111111111114,0.9999999999723078,1.0062305295950524,0.0,0.9978612232211747,0
544,458.5805555555556,0.8972222222222399,0.8861111111110631,0.8916666666666515,1.0062305295950524,0.025852378801690275,1.224470854308274,38.888888888888886,1.0769230768932543,0.9937694704049475,0.0,0.9991222798544115,0
545,459.46666666666664,0.8861111111110631,0.8972222222222399,0.8916666666666515,0.9937694704049475,0.025216597612294094,1.19435774394018,36.111111111111114,0.9999999999723078,1.0062305295950524,0.0,0.9985799412668299,0
546,460.3638888888889,0.8972222222222399,0.9000000000000341,0.8916666666666515,1.0062305295950524,0.02455554558174004,1.163047706639403,36.111111111111114,0.9999999999723078,1.0093457943925788,0.0,0.9970992082958707,0
547,461.2638888888889,0.9000000000000341,0.8916666666666515,0.8916666666666515,1.0093457943925788,0.018292752805317065,0.8664170839749641,36.111111111111114,0.9999999999723078,1.0,0.0,0.9929565931543093,0
548,462.15555555555557,0.8916666666666515,0.9111111111110972,0.8916666666666515,1.0,0.017925519173031815,0.8490234474781303,36.111111111111114,0.9999999999723078,1.0218068535825564,0.0,0.9911953674068783,0
549,463.06666666666666,0.9111111111110972,0.8944444444444457,0.8916666666666515,1.0218068535825564,0.018019178649102678,0.8534595305000554,36.111111111111114,0.9999999999723078,1.0031152647975263,0.0,0.9905658440414773,0
550,463.9611111111111,0.8944444444444457,0.8972222222222399,0.8916666666666515,1.0031152647975263,0.018929020244541163,0.8965532250570502,36.111111111111114,0.9999999999723078,1.0062305295950524,0.0,0.9943178783180953,0
551,464.85833333333335,0.8972222222222399,0.8972222222221831,0.8916666666666515,1.0062305295950524,0.018942892381797333,0.8972102643139572,36.111111111111114,0.9999999999723078,1.0062305295949887,0.0,0.9938540552229466,0
552,465.75555555555553,0.8972222222221831,0.8611111111111427,0.8916666666666515,1.0062305295949887,0.018016307504122277,0.853323541724169,36.111111111111114,0.9999999999723078,0.9657320872274662,0.0,0.9920793313852181,0
