beat_index,peak_time_s,rr_prev_s,rr_next_s,rr_baseline_s,prematurity_index,aa_ratio,morph_index,qrs_width_ms,width_index,pause_index,pvc_score,morphology_score,is_pvc_candidate
0,0.6138888888888889,,0.6138888888888889,0.7111111111109949,,0.02587049867928666,0.8787082582087897,44.44444444444444,0.8888888888711112,0.8632812500001411,8.84356659981673e-17,0.998206604580791,0
1,1.2277777777777779,0.6138888888888889,0.4472222222222222,0.7111111111109949,0.8632812500001411,0.031598808751001475,1.0732740231751412,50.0,0.9999999999800001,0.6289062500001027,2.0168546832621814e-09,0.998639372172575,0
2,1.675,0.4472222222222222,0.8944444444444446,0.7111111111109949,0.6289062500001027,0.03972219380513259,1.3491900625281052,122.22222222222223,2.4444444443955557,1.2578125000002058,0.9968750476837158,0.9251990723550079,1
3,2.5694444444444446,0.8944444444444446,0.8805555555555555,0.7111111111109949,1.2578125000002058,0.028993149090736543,0.9847711036937514,52.77777777777778,1.0555555555344445,1.2382812500002023,5.586171174069843e-13,0.9981231042533076,0
4,3.45,0.8805555555555555,0.5222222222222221,0.7111111111109949,1.2382812500002023,0.029628592116546375,1.0063543379917181,52.77777777777778,1.0555555555344445,0.7343750000001199,1.635433088053532e-14,0.9982910385713494,0
5,3.9722222222222223,0.5222222222222221,1.041666666666667,0.6138888888888889,0.8506787330316741,0.042734490167441554,1.451504661196915,127.77777777777777,2.5555555555044447,1.6968325791855208,0.9992392063140869,0.9165489038479445,1
6,5.013888888888889,1.041666666666667,0.7222222222222214,0.7472222222222222,1.3940520446096658,0.02872791102345038,0.9757621207976352,50.0,0.9999999999800001,0.9665427509293669,2.35747586101561e-19,0.9993250567033823,0
7,5.736111111111111,0.7222222222222214,0.8083333333333336,0.7222222222222214,1.0,0.02506848992559781,0.8514675109870758,47.22222222222222,0.9444444444255556,1.1192307692307708,2.3893920221844563e-14,0.9972564876031056,0
8,6.544444444444444,0.8083333333333336,0.4527777777777775,0.7652777777777775,1.0562613430127048,0.031019849528970647,1.0536092978881892,52.77777777777778,1.0555555555344445,0.5916515426497276,8.668185526999883e-13,0.9986763015144646,0
9,6.997222222222222,0.4527777777777775,0.8500000000000005,0.7222222222222214,0.6269230769230772,0.04298612341407686,1.4600515475402913,91.66666666666667,1.8333333332966668,1.176923076923079,0.9959049820899963,0.9343386950387289,1
10,7.847222222222222,0.8500000000000005,0.666666666666667,0.7652777777777775,1.1107078039927416,0.031335213358353674,1.0643208347879818,52.77777777777778,1.0555555555344445,0.8711433756805814,4.926620092784995e-13,0.9990342311506023,0
11,8.51388888888889,0.666666666666667,1.2777777777777768,0.7652777777777775,0.8711433756805814,0.02680668687355193,0.9105064971115873,47.22222222222222,0.9444444444255556,1.6696914700544458,3.296008344477741e-06,0.9974141781962076,0
12,9.791666666666666,1.2777777777777768,0.7611111111111111,0.829166666666667,1.5410385259631472,0.03278098592273284,1.1134274371600819,52.77777777777778,1.0555555555344445,0.9179229480737013,1.115922545648867e-20,0.9986380368303958,0
13,10.552777777777777,0.7611111111111111,0.9166666666666679,0.7847222222222223,0.9699115044247786,0.027773220066581162,0.9433354235685673,50.0,0.9999999999800001,1.1681415929203554,4.744524217947799e-12,0.9975931841976147,0
14,11.469444444444445,0.9166666666666679,1.0027777777777764,0.7847222222222223,1.1681415929203554,0.02851544111844911,0.9685454427405195,52.77777777777778,1.0555555555344445,1.2778761061946884,5.999328366989437e-14,0.9991607607265544,0
15,12.472222222222221,1.0027777777777764,0.969444444444445,0.829166666666667,1.2093802345058604,0.025607711706489903,0.8697825283259297,47.22222222222222,0.9444444444255556,1.169179229480737,2.649124267677065e-20,0.9971811274441529,0
16,13.441666666666666,0.969444444444445,0.7055555555555557,0.829166666666667,1.169179229480737,0.02573916348565248,0.874247373218884,44.44444444444444,0.8888888888711112,0.8509212730318256,2.3213924716086515e-22,0.998983559529985,0
17,14.147222222222222,0.7055555555555557,0.7305555555555561,0.829166666666667,0.8509212730318256,0.026298942816663538,0.8932606410739733,47.22222222222222,0.9444444444255556,0.8810720268006702,6.172047871703598e-14,0.9962926799228267,0
18,14.877777777777778,0.7305555555555561,0.5027777777777782,0.8055555555555558,0.9068965517241383,0.027205022985641463,0.9240362413803401,47.22222222222222,0.9444444444255556,0.6241379310344831,1.0144659499380579e-15,0.997956727753699,0
19,15.380555555555556,0.5027777777777782,0.8666666666666671,0.8055555555555558,0.6241379310344831,0.042562704697843796,1.4456698563619899,130.55555555555554,2.611111111058889,1.0758620689655174,0.9941211342811584,0.9211747385143245,1
20,16.247222222222224,0.8666666666666671,0.6944444444444429,0.8138888888888891,1.0648464163822529,0.033577607583706114,1.140485208285525,55.55555555555556,1.111111111088889,0.8532423208191104,4.14832578010671e-11,0.997212312002107,0
21,16.941666666666666,0.6944444444444429,0.7027777777777793,0.8138888888888891,0.8532423208191104,0.029663342861584525,1.007534669574131,47.22222222222222,0.9444444444255556,0.8634812286689436,1.95011593678851e-11,0.9969266344614309,0
22,17.644444444444446,0.7027777777777793,0.44166666666666643,0.7458333333333336,0.9422718808193685,0.0270345346423465,0.9182454942811524,50.0,0.9999999999800001,0.5921787709497202,1.2606230417725774e-14,0.9982586232932904,0
23,18.086111111111112,0.44166666666666643,1.0249999999999986,0.7180555555555559,0.6150870406189549,0.041406478209019645,1.4063978741445389,116.66666666666667,2.333333333286667,1.4274661508704036,0.9969486594200134,0.9281632548738337,1
24,19.11111111111111,1.0249999999999986,0.9333333333333336,0.7180555555555559,1.4274661508704036,0.031371324305268844,1.0655473665088993,50.0,0.9999999999800001,1.2998065764023208,2.60029306165541e-14,0.9975373301229591,0
25,20.044444444444444,0.9333333333333336,0.8249999999999993,0.7180555555555559,1.2998065764023208,0.02539810220717622,0.8626630058022525,47.22222222222222,0.9444444444255556,1.1489361702127645,7.266081679684975e-19,0.9982249859598786,0
26,20.869444444444444,0.8249999999999993,0.4861111111111107,0.7180555555555559,1.1489361702127645,0.02732781017894349,0.9282067879977177,50.0,0.9999999999800001,0.676982591876208,3.038366474107483e-16,0.9981151261568721,0
27,21.355555555555554,0.4861111111111107,1.0694444444444464,0.7166666666666677,0.6782945736434094,0.04341338809556638,1.4745638694216776,91.66666666666667,1.8333333332966668,1.4922480620155045,0.9977816939353943,0.9340781769640327,1
28,22.425,1.0694444444444464,0.6361111111111093,0.7638888888888893,1.400000000000002,0.02687953971886629,0.9129809912295918,47.22222222222222,0.9444444444255556,0.8327272727272699,4.822608374026202e-22,0.9969389160115153,0
29,23.06111111111111,0.6361111111111093,0.6805555555555571,0.7638888888888893,0.8327272727272699,0.025692332782680512,0.8726567380344089,44.44444444444444,0.8888888888711112,0.8909090909090925,5.785056814014769e-14,0.9976598264891732,0
30,23.741666666666667,0.6805555555555571,0.75,0.6986111111111111,0.9741550695825073,0.025812177631264123,0.8767273460060487,47.22222222222222,0.9444444444255556,1.0735586481113322,4.055620043356273e-13,0.9970982850274566,0
31,24.491666666666667,0.75,1.1916666666666664,0.7263888888888896,1.0325047801147216,0.03048201168347878,1.035341286812341,50.0,0.9999999999800001,1.6405353728489465,2.5500366973574273e-06,0.9985091105375369,0
32,25.683333333333334,1.1916666666666664,0.7472222222222236,0.7874999999999996,1.5132275132275137,0.033119218250939136,1.1249157174469253,52.77777777777778,1.0555555555344445,0.9488536155202844,1.6921880911205287e-18,0.9983642405406377,0
33,26.430555555555557,0.7472222222222236,0.7527777777777764,0.7874999999999996,0.9488536155202844,0.030095543762983772,1.0222146533646588,50.0,0.9999999999800001,0.9559082892416213,4.962592836665891e-12,0.9974399688938718,0
34,27.183333333333334,0.7527777777777764,0.8833333333333329,0.7513888888888882,1.001848428835489,0.032199761928897105,1.0936857874306367,52.77777777777778,1.0555555555344445,1.1756007393715346,1.2273748239977067e-08,0.9979220253169045,0
35,28.066666666666666,0.8833333333333329,0.7527777777777764,0.7513888888888882,1.1756007393715346,0.027493778625419255,0.9338440138714155,50.0,0.9999999999800001,1.001848428835489,1.0118142074175599e-16,0.9977312704012724,0
36,28.819444444444443,0.7527777777777764,0.7416666666666671,0.7513888888888882,1.001848428835489,0.03098811172830234,1.0525313029144412,52.77777777777778,1.0555555555344445,0.9870609981515727,6.788344192321105e-11,0.9979317335801223,0
37,29.56111111111111,0.7416666666666671,0.4833333333333343,0.7513888888888882,0.9870609981515727,0.026364633001289814,0.8954918507785077,47.22222222222222,0.9444444444255556,0.6432532347504639,1.2349004511094772e-16,0.9987001041310175,0
38,30.044444444444444,0.4833333333333343,0.8638888888888907,0.7486111111111118,0.6456400742115035,0.04064832131572346,1.3806465837880577,130.55555555555554,2.611111111058889,1.153988868274584,0.9962218999862671,0.9208147197036161,1
39,30.908333333333335,0.8638888888888907,0.7138888888888886,0.7513888888888882,1.14972273567468,0.027234890056069633,0.9250506957887799,50.0,0.9999999999800001,0.950092421441775,1.3248042634332526e-16,0.9971772849253089,0
40,31.622222222222224,0.7138888888888886,0.8222222222222193,0.7513888888888882,0.950092421441775,0.03353583335610797,1.1390663195649853,50.0,0.9999999999800001,1.0942698706099787,2.66705750817664e-08,0.9978528290479379,0
41,32.44444444444444,0.8222222222222193,0.4750000000000014,0.7527777777777764,1.0922509225092232,0.02904050361946025,0.9863795309594547,52.77777777777778,1.0555555555344445,0.6309963099631026,2.2122344036398615e-14,0.9984789269180718,0
42,32.919444444444444,0.4750000000000014,0.8277777777777757,0.75,0.6333333333333352,0.04245868825718936,1.44213687052644,94.44444444444444,1.8888888888511113,1.103703703703701,0.9953084588050842,0.9312200997426896,1
43,33.74722222222222,0.8277777777777757,0.6694444444444443,0.7527777777777764,1.0996309963099624,0.027693136750636293,0.9406153418284405,50.0,0.9999999999800001,0.8892988929889313,1.3838732177407745e-15,0.9966656441801696,0
44,34.416666666666664,0.6694444444444443,0.9777777777777814,0.7472222222222218,0.8959107806691453,0.029710400341970818,1.0091330074004923,47.22222222222222,0.9444444444255556,1.3085501858736115,1.3139464272171608e-07,0.9975418440721977,0
45,35.394444444444446,0.9777777777777814,0.7916666666666643,0.7472222222222218,1.3085501858736115,0.030959470499869076,1.0515584850240114,52.77777777777778,1.0555555555344445,1.0594795539033433,2.56466965110262e-15,0.9983777908192738,0
46,36.18611111111111,0.7916666666666643,0.49444444444444713,0.7666666666666657,1.032608695652172,0.026193983472366598,0.8896956289049677,47.22222222222222,0.9444444444255556,0.6449275362318884,1.6633058599418363e-17,0.9967946776407686,0
47,36.68055555555556,0.49444444444444713,0.81111111111111,0.7527777777777764,0.6568265682656874,0.04173735155202573,1.4176362017285904,94.44444444444444,1.8888888888511113,1.0774907749077496,0.9958782196044922,0.9248210672718216,1
48,37.49166666666667,0.81111111111111,0.6694444444444443,0.8013888888888872,1.0121317157712313,0.025251119196818512,0.8576706325736253,47.22222222222222,0.9444444444255556,0.8353552859618734,1.1593637320499822e-18,0.9979827514019282,0
49,38.16111111111111,0.6694444444444443,0.7250000000000014,0.7527777777777764,0.8892988929889313,0.02458448600909064,0.8350280042070707,47.22222222222222,0.9444444444255556,0.9630996309963136,1.6791155935829728e-14,0.9960443055128521,0
50,38.88611111111111,0.7250000000000014,0.68333333333333,0.7583333333333329,0.9560439560439585,0.02536459510737103,0.861524915436371,47.22222222222222,0.9444444444255556,0.9010989010988973,2.3656142615198993e-16,0.9987381261046739,0
51,39.56944444444444,0.68333333333333,0.8305555555555557,0.7041666666666657,0.9704142011834286,0.026894302460260897,0.9134824173110159,47.22222222222222,0.9444444444255556,1.1794871794871813,3.9849113592227425e-11,0.9966680887041104,0
52,40.4,0.8305555555555557,0.7194444444444485,0.7583333333333329,1.0952380952380962,0.027439761450748584,0.9320092855170592,50.0,0.9999999999800001,0.9487179487179547,1.238949586234708e-15,0.9960421265500906,0
53,41.11944444444445,0.7194444444444485,0.4527777777777757,0.722222222222225,0.996153846153848,0.025432469876727745,0.8638303259774333,47.22222222222222,0.9444444444255556,0.6269230769230717,7.355526249604467e-17,0.9984383241813444,0
54,41.57222222222222,0.4527777777777757,1.0249999999999986,0.722222222222225,0.6269230769230717,0.041193230534755224,1.3991547786502108,91.66666666666667,1.8333333332966668,1.4192307692307617,0.9972178936004639,0.9322724573664394,1
55,42.59722222222222,1.0249999999999986,0.6444444444444457,0.722222222222225,1.4192307692307617,0.02520053836743075,0.855952621914416,44.44444444444444,0.8888888888711112,0.8923076923076907,5.720130135775977e-23,0.9969029185545122,0
56,43.24166666666667,0.6444444444444457,0.7444444444444471,0.7013888888888893,0.9188118811881201,0.022806484054292017,0.7746370152214652,41.666666666666664,0.8333333333166667,1.0613861386138645,9.093475729970231e-16,0.9949820497281157,0
57,43.986111111111114,0.7444444444444471,0.6972222222222157,0.722222222222225,1.0307692307692304,0.025767153247137554,0.8751980636121048,47.22222222222222,0.9444444444255556,0.9653846153846027,6.595516805606584e-16,0.9979048164317856,0
58,44.68333333333333,0.6972222222222157,1.2611111111111128,0.7083333333333321,0.9843137254901886,0.024276200625120564,0.8245568912943356,44.44444444444444,0.8888888888711112,1.7803921568627505,2.375326424441937e-08,0.9954966960322371,0
59,45.94444444444444,1.2611111111111128,1.0750000000000028,0.722222222222225,1.746153846153842,0.028400317520870594,0.9646351951198215,50.0,0.9999999999800001,1.4884615384615367,1.5087067392037433e-19,0.9966858954080713,0
60,47.019444444444446,1.0750000000000028,0.7555555555555529,0.7319444444444478,1.4686907020872837,0.03193123587302522,1.0845651258707656,50.0,0.9999999999800001,1.0322580645161206,4.063424504876507e-17,0.9975286177379022,0
61,47.775,0.7555555555555529,0.6388888888888928,0.75,1.0074074074074038,0.02416422840714366,0.8207536823246903,44.44444444444444,0.8888888888711112,0.8518518518518571,3.6336712548668295e-18,0.9939940313777794,0
62,48.41388888888889,0.6388888888888928,0.7027777777777757,0.7319444444444478,0.8728652751423164,0.024731009426930656,0.8400047670779033,41.666666666666664,0.8333333333166667,0.9601518026565392,6.085658134380185e-15,0.995079123574029,0
63,49.11666666666667,0.7027777777777757,0.6361111111111128,0.7236111111111114,0.9712092130518202,0.028936186523990267,0.982836333188195,47.22222222222222,0.9444444444255556,0.8790786948176603,5.448779990570307e-13,0.9978788126383247,0
64,49.75277777777778,0.6361111111111128,0.8194444444444429,0.7236111111111114,0.8790786948176603,0.024128719146346657,0.8195475872628197,44.44444444444444,0.8888888888711112,1.1324376199616095,3.363753774219408e-13,0.9977339958551186,0
65,50.57222222222222,0.8194444444444429,0.7194444444444414,0.7236111111111114,1.1324376199616095,0.030252333309459253,1.0275401119496193,50.0,0.9999999999800001,0.9942418426103601,1.9026372545614262e-13,0.9983917409240953,0
66,51.291666666666664,0.7194444444444414,0.81388888888889,0.7319444444444443,0.982922201138516,0.02662341505448564,0.9042815509709304,47.22222222222222,0.9444444444255556,1.1119544592030377,1.8027762713635626e-13,0.9990416787008278,0
67,52.105555555555554,0.81388888888889,0.87222222222222,0.7374999999999972,1.1035781544256178,0.031743525256875176,1.078189413109706,50.0,0.9999999999800001,1.1826741996233536,6.01183408610595e-11,0.9977044894204864,0
68,52.977777777777774,0.87222222222222,0.5388888888888914,0.7847222222222214,1.1115044247787593,0.027923823608555644,0.94845077050057,50.0,0.9999999999800001,0.6867256637168181,4.68649201470942e-17,0.998370911368522,0
69,53.516666666666666,0.5388888888888914,1.0361111111111114,0.7374999999999972,0.730696798493415,0.04141036113196052,1.406529760139333,133.33333333333334,2.6666666666133336,1.4048964218455802,0.9987975358963013,0.9154685738788166,1
70,54.55277777777778,1.0361111111111114,0.6388888888888928,0.7374999999999972,1.4048964218455802,0.026060170649504596,0.8851505896322143,47.22222222222222,0.9444444444255556,0.8662900188324004,5.922548562394322e-22,0.9973752941289584,0
71,55.19166666666667,0.6388888888888928,0.7749999999999986,0.7111111111111086,0.8984375000000088,0.027113276386639573,0.9209200086704512,44.44444444444444,0.8888888888711112,1.0898437500000018,4.288874116964436e-11,0.9947910169990468,0
72,55.96666666666667,0.7749999999999986,0.40555555555555145,0.74722222222222,1.0371747211895923,0.024743355944538165,0.84042412455208,44.44444444444444,0.8888888888711112,0.5427509293680258,2.3202537674264895e-19,0.9974401823737953,0
73,56.37222222222222,0.40555555555555145,0.9944444444444471,0.74722222222222,0.5427509293680258,0.043459988434515984,1.4761466801427996,91.66666666666667,1.8333333332966668,1.3308550185873682,0.9948025941848755,0.9300941462754253,1
74,57.36666666666667,0.9944444444444471,0.7222222222222214,0.7944444444444443,1.2517482517482554,0.030547840456992527,1.0375772037782787,50.0,0.9999999999800001,0.9090909090909083,2.4931486705783046e-17,0.9988848999706259,0
75,58.08888888888889,0.7222222222222214,0.9194444444444443,0.74861111111111,0.964749536178108,0.025800866858003462,0.8763431682600346,47.22222222222222,0.9444444444255556,1.2282003710575156,1.3214983577911066e-12,0.9976328793928962,0
76,59.00833333333333,0.9194444444444443,0.68611111111111,0.7944444444444443,1.1573426573426573,0.03109146170421344,1.0560416518429476,52.77777777777778,1.0555555555344445,0.8636363636363624,1.488016829166109e-14,0.9980168139614447,0
77,59.69444444444444,0.68611111111111,0.7416666666666671,0.74861111111111,0.9165120593692021,0.028986229889545884,0.9845360885399342,44.44444444444444,0.8888888888711112,0.9907235621521356,2.0578311190483367e-12,0.9972912981401341,0
78,60.43611111111111,0.7416666666666671,0.6194444444444471,0.7319444444444443,1.0132827324478186,0.025192247656998182,0.8556710225601156,47.22222222222222,0.9444444444255556,0.8462998102466832,6.384670320351389e-17,0.997784507849172,0
79,61.05555555555556,0.6194444444444471,0.7111111111111086,0.7319444444444443,0.8462998102466832,0.027795004579273183,0.9440753486639756,44.44444444444444,0.8888888888711112,0.97153700189753,3.030173334472863e-11,0.9970953119030783,0
80,61.766666666666666,0.7111111111111086,0.4527777777777757,0.716666666666665,0.9922480620155026,0.030176624212900977,1.0249686034065486,50.0,0.9999999999800001,0.6317829457364327,4.547993492226565e-12,0.9984888107327607,0
81,62.21944444444444,0.4527777777777757,0.9222222222222243,0.716666666666665,0.6317829457364327,0.04196990304743982,1.4255349640219812,91.66666666666667,1.8333333332966668,1.2868217054263624,0.9970596432685852,0.9378462939098289,1
82,63.141666666666666,0.9222222222222243,0.7277777777777814,0.716666666666665,1.2868217054263624,0.03129786263455578,1.0630521932415564,50.0,0.9999999999800001,1.0155038759689996,1.5481546437618593e-14,0.9981909764687666,0
83,63.86944444444445,0.7277777777777814,0.93055555555555,0.7250000000000014,1.0038314176245242,0.026537555423817107,0.9013652729567149,47.22222222222222,0.9444444444255556,1.2835249042145493,1.1119777841572809e-11,0.9984088390771322,0
84,64.8,0.93055555555555,1.2166666666666686,0.7250000000000014,1.2835249042145493,0.026632098347212713,0.9045764846373554,47.22222222222222,0.9444444444255556,1.6781609195402292,1.6307124921233207e-12,0.9989463412388836,0
85,66.01666666666667,1.2166666666666686,0.9416666666666629,0.7347222222222243,1.6559546313799602,0.027172265628696596,0.9229236165167307,50.0,0.9999999999800001,1.2816635160680443,6.198354529698762e-22,0.9974479870066568,0
86,66.95833333333333,0.9416666666666629,0.7083333333333428,0.7347222222222243,1.2816635160680443,0.029718298963477552,1.0094012892002546,50.0,0.9999999999800001,0.9640831758034129,2.7920357934583357e-16,0.9981028489415512,0
87,67.66666666666667,0.7083333333333428,0.6722222222222172,0.7347222222222243,0.9640831758034129,0.028421651535588247,0.965359818759495,47.22222222222222,0.9444444444255556,0.9149338374291021,2.7376768929089634e-13,0.9976194647187162,0
88,68.33888888888889,0.6722222222222172,0.7722222222222257,0.719444444444445,0.9343629343629266,0.026789175817490494,0.9099117227409077,47.22222222222222,0.9444444444255556,1.0733590733590774,1.9625028598729832e-12,0.9986028787904349,0
89,69.11111111111111,0.7722222222222257,0.8833333333333258,0.7500000000000036,1.0296296296296295,0.03146066534760968,1.068581892927392,52.77777777777778,1.0555555555344445,1.177777777777762,1.295656026911729e-09,0.9985937275588814,0
90,69.99444444444444,0.8833333333333258,0.50833333333334,0.8277777777777757,1.067114093959725,0.02834139219574549,0.9626337582535688,50.0,0.9999999999800001,0.6140939597315531,3.5040671075669186e-17,0.998530081725983,0
91,70.50277777777778,0.50833333333334,0.8888888888888857,0.8277777777777757,0.6140939597315531,0.04304975825366856,1.4622129461183477,130.55555555555554,2.611111111058889,1.0738255033557036,0.9933330416679382,0.9205045674543173,1
92,71.39166666666667,0.8888888888888857,0.6916666666666629,0.8277777777777757,1.0738255033557036,0.0336223347004264,1.1420043937993107,52.77777777777778,1.0555555555344445,0.8355704697986552,1.5703631971175636e-12,0.9979560525361142,0
93,72.08333333333333,0.6916666666666629,0.6416666666666657,0.8277777777777757,0.8355704697986552,0.025941466008517867,0.8811187095507429,44.44444444444444,0.8888888888711112,0.7751677852349002,2.9995810472109455e-15,0.9958796970002599,0
94,72.725,0.6416666666666657,0.44722222222222285,0.7402777777777843,0.8667917448405165,0.02890973402998518,0.9819378570814665,47.22222222222222,0.9444444444255556,0.6041275797373314,1.8065807096817599e-12,0.9980499235040174,0
95,73.17222222222222,0.44722222222222285,0.7722222222222257,0.7000000000000028,0.6388888888888872,0.041066638694619385,1.394855004736758,94.44444444444444,1.8888888888511113,1.1031746031746037,0.9960474371910095,0.9315973939063065,1
96,73.94444444444444,0.7722222222222257,0.6916666666666629,0.7000000000000028,1.1031746031746037,0.028326640009647276,0.9621326906896293,47.22222222222222,0.9444444444255556,0.9880952380952287,6.31642565400263e-14,0.9962499031344695,0
97,74.6361111111111,0.6916666666666629,0.7722222222222257,0.6916666666666629,1.0,0.025367524108233574,0.861624400849394,44.44444444444444,0.8888888888711112,1.1164658634538265,7.096738154814888e-14,0.996412844579432,0
98,75.40833333333333,0.7722222222222257,0.45277777777778283,0.7319444444444443,1.0550284629981075,0.027141250840137948,0.9218701791179803,50.0,0.9999999999800001,0.618595825426952,2.1458474340691532e-15,0.9966605014127395,0
99,75.86111111111111,0.45277777777778283,1.061111111111103,0.6916666666666629,0.6546184738955932,0.041669256948035145,1.415323324361681,94.44444444444444,1.8888888888511113,1.5341365461847354,0.9975912570953369,0.9278759023299417,1
100,76.92222222222222,1.061111111111103,0.7361111111111143,0.6916666666666629,1.5341365461847354,0.02779742175528855,0.9441574496142734,50.0,0.9999999999800001,1.0642570281124601,2.88722791619477e-19,0.997863459741305,0
101,77.65833333333333,0.7361111111111143,0.63333333333334,0.7138888888888886,1.0311284046692655,0.029021052222602206,0.9857188516557912,50.0,0.9999999999800001,0.8871595330739397,1.6746075012785688e-12,0.9966843839713558,0
102,78.29166666666667,0.63333333333334,0.6361111111111057,0.6916666666666629,0.9156626506024242,0.028764069437732367,0.9769902647784374,47.22222222222222,0.9444444444255556,0.919678714859435,3.603220499748261e-11,0.9964680504901422,0
103,78.92777777777778,0.6361111111111057,0.42499999999999716,0.6666666666666643,0.9541666666666621,0.024688450076879132,0.8385592111642782,47.22222222222222,0.9444444444255556,0.637499999999998,2.8076522752090672e-15,0.9961512717881682,0
104,79.35277777777777,0.42499999999999716,1.3666666666666742,0.6638888888888843,0.6401673640167366,0.04054645186882833,1.3771865219873325,91.66666666666667,1.8333333332966668,2.058577405857766,0.9960269927978516,0.9332521128806003,1
105,80.71944444444445,1.3666666666666742,0.7361111111111001,0.7138888888888886,1.9143968871595445,0.033003211484072315,1.1209754724088352,52.77777777777778,1.0555555555344445,1.0311284046692457,6.577435288950154e-21,0.9978013126779623,0
106,81.45555555555555,0.7361111111111001,0.8527777777777885,0.7138888888888815,1.031128404669256,0.026853275714734195,0.9120889173035882,47.22222222222222,0.9444444444255556,1.1945525291829069,1.1600552332971525e-12,0.9981237231474893,0
107,82.30833333333334,0.8527777777777885,0.8833333333333258,0.7361111111111072,1.1584905660377567,0.027647712894726496,0.9390724911164214,50.0,0.9999999999800001,1.1999999999999962,2.4390572908269438e-14,0.9989952115251759,0
108,83.19166666666666,0.8833333333333258,0.4777777777777885,0.7361111111111072,1.1999999999999962,0.027281569624596363,0.9266361975938495,50.0,0.9999999999800001,0.649056603773603,1.3881121345683045e-17,0.9982707653348086,0
109,83.66944444444445,0.4777777777777885,0.8527777777777743,0.7361111111111072,0.649056603773603,0.043453993269945354,1.4759430504917892,100.0,1.9999999999600002,1.1584905660377374,0.996117115020752,0.9283066209444677,1
110,84.52222222222223,0.8527777777777743,0.6499999999999915,0.7361111111111072,1.1584905660377374,0.025433625168941508,0.8638695662263925,47.22222222222222,0.9444444444255556,0.8830188679245214,9.375464619998794e-19,0.9972864744395168,0
111,85.17222222222222,0.6499999999999915,0.6027777777777885,0.6930555555555458,0.937875751503007,0.023126555386198105,0.7855084454960949,41.666666666666664,0.8333333333166667,0.8697394789579436,1.1202197339384314e-16,0.9911169128680339,0
112,85.775,0.6027777777777885,0.6805555555555429,0.6930555555555458,0.8697394789579436,0.027391384594657803,0.9303661342396088,44.44444444444444,0.8888888888711112,0.9819639278557071,4.2074684014625774e-11,0.9955528663884874,0
113,86.45555555555555,0.6805555555555429,1.1777777777777914,0.7083333333333215,0.9607843137254884,0.03027066032886246,1.028162601044151,52.77777777777778,1.0555555555344445,1.6627450980392626,3.2210329663939774e-05,0.997536281263028,0
114,87.63333333333334,1.1777777777777914,0.6833333333333229,0.7944444444444372,1.4825174825175131,0.02724579302516012,0.9254210222017948,50.0,0.9999999999800001,0.8601398601398549,1.7406988957388742e-23,0.9985565272996777,0
115,88.31666666666666,0.6833333333333229,1.0194444444444457,0.7097222222222115,0.9628180039138942,0.024835605104140814,0.843557427058559,44.44444444444444,0.8888888888711112,1.4363992172211586,6.097350402356483e-10,0.9935617297103448,0
116,89.33611111111111,1.0194444444444457,0.7666666666666657,0.7680555555555486,1.3273056057866321,0.03127464941475658,1.0622637411830924,52.77777777777778,1.0555555555344445,0.9981916817359934,3.4647385075580643e-16,0.9979785898679991,0
117,90.10277777777777,0.7666666666666657,0.48611111111111427,0.7249999999999943,1.057471264367823,0.027018539359246942,0.9177022041217238,50.0,0.9999999999800001,0.6704980842911974,5.648101242619347e-15,0.9949207829853544,0
118,90.58888888888889,0.48611111111111427,1.0555555555555571,0.6819444444444329,0.7128309572301592,0.04043441919240818,1.37338125950747,127.77777777777777,2.5555555555044447,1.5478615071283381,0.998555600643158,0.9171631925748874,1
119,91.64444444444445,1.0555555555555571,0.74722222222222,0.7249999999999943,1.4559386973180213,0.028520014686541608,0.9687007869455995,50.0,0.9999999999800001,1.0306513409961735,2.150112021206223e-19,0.9991628893566227,0
120,92.39166666666667,0.74722222222222,0.47222222222222854,0.7152777777777715,1.0446601941747635,0.030057337613379757,1.0209169567261982,52.77777777777778,1.0555555555344445,0.6601941747572962,6.648641706630265e-12,0.9980232174361454,0
121,92.8638888888889,0.47222222222222854,0.8861111111111057,0.7152777777777715,0.6601941747572962,0.04121550343608912,1.3999112921824386,91.66666666666667,1.8333333332966668,1.2388349514563142,0.9973354935646057,0.9287208274115366,1
122,93.75,0.8861111111111057,0.7277777777777743,0.7569444444444429,1.1706422018348577,0.027953032830829477,0.9494428806699973,50.0,0.9999999999800001,0.9614678899082543,2.265151654113007e-16,0.9964736084447068,0
123,94.47777777777777,0.7277777777777743,0.7388888888888943,0.7569444444444429,0.9614678899082543,0.026697257254241213,0.9067896491538803,47.22222222222222,0.9444444444255556,0.9761467889908348,9.942227095316274e-15,0.998456607629733,0
124,95.21666666666667,0.7388888888888943,0.6694444444444372,0.7430555555555571,0.9943925233644911,0.026936721402258494,0.9149232041740697,47.22222222222222,0.9444444444255556,0.9009345794392406,2.2024152589021108e-15,0.998786846031492,0
125,95.8861111111111,0.6694444444444372,0.4388888888888971,0.7430555555555571,0.9009345794392406,0.030414796404491583,1.0330582762891944,50.0,0.9999999999800001,0.5906542056074864,2.7737676738803785e-11,0.998486976151854,0
126,96.325,0.4388888888888971,0.8111111111111029,0.7333333333333343,0.598484848484859,0.04124348260816048,1.400861622899358,91.66666666666667,1.8333333332966668,1.1060606060605935,0.9946087598800659,0.9313473215210999,1
127,97.1361111111111,0.8111111111111029,0.7194444444444485,0.7333333333333343,1.1060606060605935,0.02748129667332972,0.9334200562772612,47.22222222222222,0.9444444444255556,0.9810606060606104,5.180041106241106e-16,0.9985607881188484,0
128,97.85555555555555,0.7194444444444485,1.2305555555555543,0.7333333333333343,0.9810606060606104,0.026766972279091847,0.9091575651657401,47.22222222222222,0.9444444444255556,1.6780303030302992,6.827308851597991e-08,0.9987064735838045,0
129,99.08611111111111,1.2305555555555543,0.7194444444444485,0.7333333333333343,1.6780303030302992,0.03437945658417523,1.1677205293855708,55.55555555555556,1.111111111088889,0.9810606060606104,8.463801363148735e-17,0.9965086972479525,0
130,99.80555555555556,0.7194444444444485,0.75277777777778,0.7236111111111114,0.99424184261037,0.026551634496774515,0.901843477796481,47.22222222222222,0.9444444444255556,1.04030710172745,3.0891084910325203e-14,0.9989280076076992,0
131,100.55833333333334,0.75277777777778,0.5277777777777715,0.7333333333333343,1.0265151515151532,0.03158524271025881,1.0728132438071223,52.77777777777778,1.0555555555344445,0.7196969696969602,1.094555002190134e-10,0.9978916643395183,0
132,101.08611111111111,0.5277777777777715,1.0499999999999972,0.7236111111111114,0.729366602687131,0.04116391603107449,1.3981590925295495,127.77777777777777,2.5555555555044447,1.4510556621880952,0.9987393021583557,0.9124939731316093,1
133,102.1361111111111,1.0499999999999972,0.6444444444444457,0.7291666666666714,1.4399999999999868,0.028357442427275486,0.9631789147720577,50.0,0.9999999999800001,0.8838095238095198,1.055882093251103e-19,0.9994570737813413,0
134,102.78055555555555,0.6444444444444457,0.6722222222222314,0.7194444444444485,0.8957528957528924,0.028728298699009915,0.9757752884493258,44.44444444444444,0.8888888888711112,0.9343629343629417,6.533851584777928e-12,0.9964248694644429,0
135,103.45277777777778,0.6722222222222314,0.44444444444444287,0.7194444444444485,0.9343629343629417,0.025619227478146354,0.8701736689753472,47.22222222222222,0.9444444444255556,0.6177606177606121,1.0837189401890959e-15,0.9974616004316669,0
136,103.89722222222223,0.44444444444444287,1.24166666666666,0.7194444444444485,0.6177606177606121,0.042310583783429244,1.4371064060663605,97.22222222222223,1.9444444444055557,1.7258687258687069,0.9962911605834961,0.9284778348572466,1
137,105.13888888888889,1.24166666666666,0.6944444444444429,0.7194444444444485,1.7258687258687069,0.03244379509350032,1.1019745320610352,50.0,0.9999999999800001,0.9652509652509575,3.841755698236721e-20,0.9977352178705605,0
138,105.83333333333333,0.6944444444444429,0.8972222222222257,0.7069444444444457,0.9823182711198388,0.02765901196357043,0.9394562713143341,47.22222222222222,0.9444444444255556,1.2691552062868396,2.8707072829980973e-10,0.9990494297545394,0
139,106.73055555555555,0.8972222222222257,0.74444444444444,0.7069444444444457,1.2691552062868396,0.029632387326454197,1.0064832447564844,52.77777777777778,1.0555555555344445,1.0530451866404633,2.197268009088236e-14,0.99893685777354,0
140,107.475,0.74444444444444,0.6972222222222229,0.7194444444444414,1.034749034749033,0.031376078413035136,1.0657088428610346,52.77777777777778,1.0555555555344445,0.9691119691119741,1.7417499387217816e-10,0.9985749019084463,0
141,108.17222222222222,0.6972222222222229,0.8416666666666686,0.6958333333333329,1.0019960079840335,0.027132244273213837,0.9215642652338903,47.22222222222222,0.9444444444255556,1.2095808383233568,2.603646812038285e-11,0.9985425137038725,0
142,109.01388888888889,0.8416666666666686,0.875,0.7208333333333314,1.167630057803474,0.02695868755255601,0.9156692987084954,47.22222222222222,0.9444444444255556,1.2138728323699455,4.7203536787882375e-15,0.9991679307741749,0
143,109.88888888888889,0.875,0.4388888888888971,0.7208333333333314,1.2138728323699455,0.027668656530150663,0.9397838552703279,47.22222222222222,0.9444444444255556,0.6088631984585872,7.42776178182913e-18,0.9985309533895854,0
144,110.32777777777778,0.4388888888888971,0.8333333333333286,0.7208333333333314,0.6088631984585872,0.04179949099163722,1.4197468080769249,94.44444444444444,1.8888888888511113,1.1560693641618462,0.9952410459518433,0.9262022257359237,1
145,111.16111111111111,0.8333333333333286,0.6833333333333371,0.7888888888888843,1.0563380281690142,0.0295847805882617,1.0048662510326787,50.0,0.9999999999800001,0.8661971830986014,1.3086397301898239e-14,0.9973886726805431,0
146,111.84444444444445,0.6833333333333371,0.6749999999999972,0.7888888888888843,0.8661971830986014,0.02760103129580369,0.9374869203476328,50.0,0.9999999999800001,0.8556338028169028,1.193177718086802e-12,0.9993749775513145,0
147,112.51944444444445,0.6749999999999972,0.48611111111111427,0.7208333333333314,0.9364161849710968,0.027412462996694278,0.9310820758288648,50.0,0.9999999999800001,0.6743737957610851,3.674697536277388e-13,0.9963015169174744,0
148,113.00555555555556,0.48611111111111427,0.9361111111111029,0.7208333333333314,0.6743737957610851,0.04170652779363374,1.4165892527932862,130.55555555555554,2.611111111058889,1.29865125240847,0.9977635145187378,0.918721616981967,1
149,113.94166666666666,0.9361111111111029,0.9000000000000057,0.7208333333333314,1.29865125240847,0.02981262761468231,1.012605222987031,55.55555555555556,1.111111111088889,1.2485549132948088,1.2138436956965482e-12,0.9978840020369976,0
150,114.84166666666667,0.9000000000000057,0.62222222222222,0.7652777777777757,1.1760435571687946,0.02839675338032096,0.9645141367755969,50.0,0.9999999999800001,0.813067150635208,4.8899771219084844e-17,0.9994403796328928,0
151,115.46388888888889,0.62222222222222,0.5944444444444485,0.7583333333333329,0.8205128205128182,0.027125994787468174,0.9213519973993058,50.0,0.9999999999800001,0.7838827838827898,7.592132651723649e-12,0.9992461622839068,0
152,116.05833333333334,0.5944444444444485,0.4722222222222143,0.6791666666666671,0.8752556237218868,0.027692301254433126,0.940586963658289,50.0,0.9999999999800001,0.6952965235173703,5.699763577782235e-12,0.9993920000238944,0
153,116.53055555555555,0.4722222222222143,1.063888888888897,0.6486111111111086,0.7280513918629457,0.0407439949266465,1.3838962000035362,130.55555555555554,2.611111111058889,1.6402569593147942,0.998684823513031,0.9141490584206591,1
154,117.59444444444445,1.063888888888897,0.8888888888888857,0.6791666666666671,1.5664621676891726,0.03208204056855514,1.0896873051136768,58.333333333333336,1.1666666666433334,1.3087934560327144,6.321638525152995e-12,0.9956373552550883,0
155,118.48333333333333,0.8888888888888857,0.4805555555555543,0.6791666666666671,1.3087934560327144,0.03303973499947757,1.1222160172859663,55.55555555555556,1.111111111088889,0.7075664621676868,6.369109406545448e-11,0.9976126382682564,0
156,118.96388888888889,0.4805555555555543,0.8361111111111086,0.6486111111111086,0.740899357601714,0.04156576287400354,1.4118080810470999,127.77777777777777,2.5555555555044447,1.2890792291220567,0.9986600875854492,0.9228494632516939,1
157,119.8,0.8361111111111086,0.6555555555555515,0.7291666666666643,1.146666666666667,0.03418011117657232,1.1609496333905536,55.55555555555556,1.111111111088889,0.8990476190476163,2.0661130584187504e-09,0.9973907280748621,0
158,120.45555555555555,0.6555555555555515,0.62777777777778,0.74583333333333,0.8789571694599612,0.029092139241183885,0.9881333683241219,47.22222222222222,0.9444444444255556,0.8417132216014964,1.1334468953683174e-11,0.9975665725549632,0
159,121.08333333333333,0.62777777777778,0.6000000000000085,0.6416666666666657,0.9783549783549832,0.028450487629464432,0.9663392553810153,52.77777777777778,1.0555555555344445,0.9350649350649497,2.3222346268170213e-10,0.9986564684279347,0
160,121.68333333333334,0.6000000000000085,0.6583333333333314,0.625,0.9600000000000136,0.03395267511861007,1.1532246202463001,55.55555555555556,1.111111111088889,1.0533333333333303,1.3202990885474719e-05,0.9970432642139373,0
161,122.34166666666667,0.6583333333333314,0.8166666666666629,0.6416666666666657,1.0259740259740244,0.029512537719849834,1.0024124751755854,52.77777777777778,1.0555555555344445,1.2727272727272687,5.928297852619835e-08,0.9985299902235085,0
162,123.15833333333333,0.8166666666666629,0.4750000000000085,0.6569444444444414,1.2431289640591965,0.03236601193431357,1.099332576636276,61.111111111111114,1.2222222221977779,0.7230443974630184,4.2484487039473606e-08,0.9940911646504927,0
163,123.63333333333334,0.4750000000000085,0.9249999999999972,0.6569444444444414,0.7230443974630184,0.04194552961795697,1.4247071046895055,127.77777777777777,2.5555555555044447,1.40803382663848,0.9985271692276001,0.9060905021587587,1
164,124.55833333333334,0.9249999999999972,0.7583333333333258,0.6569444444444414,1.40803382663848,0.030417266475545036,1.03314217385375,52.77777777777778,1.0555555555344445,1.154334038054962,1.4539311594952142e-12,0.9965853546667607,0
165,125.31666666666666,0.7583333333333258,0.50277777777778,0.6569444444444414,1.154334038054962,0.030574828799761082,1.0384938803356225,52.77777777777778,1.0555555555344445,0.7653276955602606,7.190215783881015e-11,0.9969788494440048,0
166,125.81944444444444,0.50277777777778,0.8972222222222257,0.6569444444444414,0.7653276955602606,0.04005696667831317,1.3605608401824065,138.88888888888889,2.7777777777222226,1.3657505285412377,0.9989438652992249,0.8883810764428495,1
167,126.71666666666667,0.8972222222222257,0.6833333333333371,0.6569444444444414,1.3657505285412377,0.03034306379899784,1.0306218318428935,55.55555555555556,1.111111111088889,1.0401691331923995,5.6123816531694626e-12,0.9968829612362304,0
168,127.4,0.6833333333333371,0.8027777777777771,0.6708333333333343,1.018633540372675,0.02933155147538084,0.9962651600577508,52.77777777777778,1.0555555555344445,1.1966873706004115,4.711040446636616e-09,0.9990154748278759,0
169,128.20277777777778,0.8027777777777771,0.44999999999998863,0.7208333333333314,1.113680154142584,0.029876770521230007,1.0147838783886025,52.77777777777778,1.0555555555344445,0.6242774566473848,5.520037009952572e-13,0.9970616239021001,0
170,128.65277777777777,0.44999999999998863,0.8888888888888857,0.7208333333333314,0.6242774566473848,0.04213049718004481,1.4309896478411557,130.55555555555554,2.611111111058889,1.2331406551059718,0.9960959553718567,0.9161991536829939,1
171,129.54166666666666,0.8888888888888857,0.7527777777777942,0.7805555555555515,1.1387900355871905,0.03359700040690658,1.1411438980969386,61.111111111111114,1.2222222221977779,0.9644128113879264,2.0857044980004957e-09,0.9941810874391921,0
172,130.29444444444445,0.7527777777777942,0.6694444444444514,0.75555555555556,0.9963235294117806,0.027685010673460606,0.9403393343494337,47.22222222222222,0.9444444444255556,0.8860294117647098,3.809295628633353e-15,0.9986698474098847,0
173,130.9638888888889,0.6694444444444514,0.6972222222221944,0.75555555555556,0.8860294117647098,0.030589057807679947,1.03897717781355,52.77777777777778,1.0555555555344445,0.9227941176470167,1.3973009416190507e-09,0.9981587855130343,0
174,131.6611111111111,0.6972222222221944,0.45000000000001705,0.7249999999999943,0.9616858237547585,0.03086826559850327,1.0484606514254877,52.77777777777778,1.0555555555344445,0.6206896551724422,4.078323789791227e-10,0.9961517976543293,0
175,132.11111111111111,0.45000000000001705,0.8527777777777885,0.6902777777777658,0.6519114688129133,0.04285005734706306,1.4554299753692554,94.44444444444444,1.8888888888511113,1.2354124748491315,0.9970690608024597,0.9290821589296252,1
176,132.9638888888889,0.8527777777777885,0.73888888888888,0.7249999999999943,1.1762452107279935,0.02769805521097806,0.9407824005223436,50.0,0.9999999999800001,1.019157088122601,9.467954289907278e-16,0.9981988767191481,0
177,133.70277777777778,0.73888888888888,0.4749999999999943,0.7180555555555372,1.0290135396518514,0.02739593400256419,0.9305206578283056,50.0,0.9999999999800001,0.6615087040619045,7.465525627434275e-15,0.999449213143479,0
178,134.17777777777778,0.4749999999999943,0.7333333333333201,0.7180555555555372,0.6615087040619045,0.04141445824152649,1.406668921121695,130.55555555555554,2.611111111058889,1.0212765957446883,0.995643138885498,0.9123214735177315,1
179,134.9111111111111,0.7333333333333201,0.7777777777777999,0.7152777777777573,1.0252427184466129,0.03422141039741743,1.1623523881988034,55.55555555555556,1.111111111088889,1.0873786407767612,1.2585300623868534e-07,0.9976548741489802,0
180,135.6888888888889,0.7777777777777999,0.8555555555555543,0.7361111111111001,1.0566037735849516,0.032018744171061715,1.0875374019408839,55.55555555555556,1.111111111088889,1.162264150943412,1.0600023969686845e-08,0.9968994411182871,0
181,136.54444444444445,0.8555555555555543,0.49444444444444,0.7361111111111001,1.162264150943412,0.02941647950422509,0.9991497956120932,52.77777777777778,1.0555555555344445,0.6716981132075512,1.6976839110395027e-14,0.998285268716842,0
182,137.0388888888889,0.49444444444444,0.8111111111111029,0.7152777777777573,0.6912621359223438,0.043720922112958326,1.4850094616815128,94.44444444444444,1.8888888888511113,1.133980582524293,0.997092604637146,0.9295500861889641,1
183,137.85,0.8111111111111029,0.6166666666666742,0.7361111111111001,1.1018867924528355,0.03127840499542782,1.0623913019151485,50.0,0.9999999999800001,0.8377358490566267,9.369611206691553e-13,0.9984206459093529,0
184,138.46666666666667,0.6166666666666742,0.6111111111111143,0.7361111111111001,0.8377358490566267,0.02629922368077488,0.8932701808055854,47.22222222222222,0.9444444444255556,0.8301886792452998,7.413188986282737e-13,0.9974685227047452,0
185,139.07777777777778,0.6111111111111143,0.44444444444442865,0.7361111111111001,0.8301886792452998,0.028460846252819007,0.9666910927382374,50.0,0.9999999999800001,0.603773584905648,3.3252151032669985e-11,0.9977727495814868,0
186,139.5222222222222,0.44444444444442865,0.9444444444444571,0.6749999999999972,0.6584362139917489,0.03982364223709126,1.3526358242835907,119.44444444444444,2.388888888841111,1.3991769547325348,0.9978669285774231,0.9270684154329716,1
187,140.46666666666667,0.9444444444444571,1.35833333333332,0.6749999999999972,1.3991769547325348,0.030207996148021672,1.0260341715197994,55.55555555555556,1.111111111088889,2.0123456790123346,3.7837335753465595e-07,0.9969361059639981,0
188,141.825,1.35833333333332,0.8916666666666799,0.75555555555556,1.7977941176470307,0.03482042328277136,1.182698249160324,52.77777777777778,1.0555555555344445,1.18014705882354,1.4008616451254645e-19,0.9978184947713398,0
189,142.71666666666667,0.8916666666666799,0.46388888888887436,0.7944444444444514,1.1223776223776292,0.02651486832491915,0.9005946909357199,50.0,0.9999999999800001,0.5839160839160605,6.714773556236625e-19,0.9989214194864422,0
190,143.18055555555554,0.46388888888887436,0.825000000000017,0.7138888888888886,0.649805447470797,0.04157891293136696,1.4122547312699811,119.44444444444444,2.388888888841111,1.1556420233463278,0.9964399933815002,0.9277963553644162,1
191,144.00555555555556,0.825000000000017,0.8111111111111029,0.7138888888888886,1.1556420233463278,0.03270433478332848,1.1108239315210642,52.77777777777778,1.0555555555344445,1.1361867704280046,2.035271395861571e-10,0.9987635928870591,0
192,144.81666666666666,0.8111111111111029,0.46666666666666856,0.8111111111111029,1.0,0.02651571340268903,0.900623394549996,47.22222222222222,0.9444444444255556,0.5753424657534328,2.8694856158385434e-18,0.9990797396573219,0
193,145.28333333333333,0.46666666666666856,0.8249999999999886,0.7138888888888886,0.6536964980544776,0.04057004084224537,1.3779877367610087,125.0,2.49999999995,1.155642023346288,0.9966777563095093,0.9300410971379174,1
194,146.10833333333332,0.8249999999999886,0.75555555555556,0.8180555555555458,1.008488964346348,0.03205485477082861,1.088763921870685,52.77777777777778,1.0555555555344445,0.9235993208828688,4.326683976374479e-12,0.9983967453499858,0
195,146.86388888888888,0.75555555555556,0.6722222222222172,0.8180555555555458,0.9235993208828688,0.025734346176902678,0.8740837502043737,47.22222222222222,0.9444444444255556,0.821731748726659,1.5595427688036329e-16,0.9964257129876721,0
196,147.5361111111111,0.6722222222222172,0.9583333333333428,0.8180555555555458,0.821731748726659,0.026347943856853896,0.8949249931689934,47.22222222222222,0.9444444444255556,1.1714770797962906,1.9570400855428716e-10,0.997972815884613,0
197,148.49444444444444,0.9583333333333428,0.75555555555556,0.8180555555555458,1.1714770797962906,0.033402313144652286,1.134531219028333,58.333333333333336,1.1666666666433334,0.9235993208828688,1.5725002680197497e-12,0.9977281063167039,0
198,149.25,0.75555555555556,0.6972222222222229,0.7833333333333314,0.9645390070922065,0.025297144761465964,0.8592339207129769,47.22222222222222,0.9444444444255556,0.8900709219858186,5.1262751605185477e-17,0.997822022669901,0
199,149.94722222222222,0.6972222222222229,0.7583333333333258,0.75555555555556,0.9227941176470542,0.029726205356470893,1.0096698349635977,47.22222222222222,0.9444444444255556,1.0036764705882193,1.9301775455726755e-11,0.9976038850856139,0
200,150.70555555555555,0.7583333333333258,1.0138888888888857,0.7569444444444429,1.0018348623853133,0.030867912435488008,1.0484486560147364,50.0,0.9999999999800001,1.3394495412844023,1.7404234498030746e-08,0.997693815804761,0
201,151.71944444444443,1.0138888888888857,0.6888888888888971,0.7569444444444429,1.3394495412844023,0.03159120238927249,1.0730156681681875,52.77777777777778,1.0555555555344445,0.9100917431192788,6.086839639462486e-16,0.9990578209450629,0
202,152.40833333333333,0.6888888888888971,0.6583333333333314,0.75555555555556,0.9117647058823585,0.02842389988981955,0.9654361855684581,44.44444444444444,0.8888888888711112,0.8713235294117571,1.7390617754447363e-13,0.9965900253373855,0
203,153.06666666666666,0.6583333333333314,0.4777777777777885,0.75555555555556,0.8713235294117571,0.026679441040764695,0.9061845099137789,47.22222222222222,0.9444444444255556,0.6323529411764811,1.3181641074619301e-14,0.9981362178356181,0
204,153.54444444444445,0.4777777777777885,0.9611111111111086,0.7263888888888914,0.6577437858508729,0.04239629944827377,1.4400177941880377,97.22222222222223,1.9444444444055557,1.3231357552581182,0.9975560903549194,0.9214050523457471,1
205,154.50555555555556,0.9611111111111086,0.6861111111111029,0.7263888888888914,1.3231357552581182,0.028677163312996662,0.9740384419148399,52.77777777777778,1.0555555555344445,0.9445506692160466,1.119715616985917e-16,0.9986621688487769,0
206,155.19166666666666,0.6861111111111029,0.7638888888888857,0.7263888888888914,0.9445506692160466,0.025985808262015377,0.8826248229356791,47.22222222222222,0.9444444444255556,1.0516252390057281,1.3815565445135514e-13,0.9984318306135604,0
207,155.95555555555555,0.7638888888888857,0.5916666666666686,0.7263888888888914,1.0516252390057281,0.025018146021422008,0.8497575476462776,47.22222222222222,0.9444444444255556,0.8145315487571699,1.2781841324991924e-17,0.9977246230395469,0
208,156.54722222222222,0.5916666666666686,0.8083333333333371,0.69305555555556,0.8537074148296566,0.029612356610021092,1.0058028884879098,47.22222222222222,0.9444444444255556,1.1663326653306594,1.1437298041983013e-07,0.9978662413702336,0
209,157.35555555555555,0.8083333333333371,0.6833333333333371,0.7236111111111114,1.1170825335892562,0.03026956957544097,1.0281255528971083,50.0,0.9999999999800001,0.9443378119001967,2.7932918564982367e-13,0.9984762362677682,0
210,158.0388888888889,0.6833333333333371,1.2722222222222115,0.6875,0.9939393939393995,0.030132210697626904,1.0234600695691758,50.0,0.9999999999800001,1.8505050505050349,3.12505399051588e-05,0.9982922845609097,0
211,159.3111111111111,1.2722222222222115,0.7194444444444628,0.6875,1.8505050505050349,0.032418062525787855,1.1011005087175283,58.333333333333336,1.1666666666433334,1.0464646464646732,8.095524672572366e-17,0.9942360727152757,0
212,160.03055555555557,0.7194444444444628,0.6416666666666515,0.7027777777777828,1.0237154150197816,0.03010259799793319,1.0224542550276279,52.77777777777778,1.0555555555344445,0.9130434782608414,1.0531091970689133e-10,0.9975830064868147,0
213,160.67222222222222,0.6416666666666515,0.48888888888888005,0.7027777777777828,0.9130434782608414,0.029022337619543388,0.9857625109961579,52.77777777777778,1.0555555555344445,0.6956521739130259,4.369946071669517e-11,0.9986481840722083,0
214,161.1611111111111,0.48888888888888005,0.9027777777777999,0.7027777777777828,0.6956521739130259,0.04146408161368514,1.4083544111254451,133.33333333333334,2.6666666666133336,1.2845849802371763,0.9980060458183289,0.907310599796483,1
215,162.0638888888889,0.9027777777777999,0.6361111111110915,0.7027777777777828,1.2845849802371763,0.03284551883281481,1.1156193392845148,50.0,0.9999999999800001,0.9051383399209143,5.994812935991578e-13,0.9979096230676434,0
216,162.7,0.6361111111110915,0.6611111111111256,0.7013888888888999,0.9069306930692648,0.032247766144248964,1.095316281723825,50.0,0.9999999999800001,0.9425742574257484,4.553201549128971e-08,0.996768821727316,0
217,163.36111111111111,0.6611111111111256,0.4416666666666629,0.6722222222222314,0.9834710743801734,0.0346531468622309,1.177016597099624,55.55555555555556,1.111111111088889,0.6570247933884151,3.825396561296657e-06,0.9966087483202527,0
218,163.80277777777778,0.4416666666666629,0.8166666666666629,0.6722222222222314,0.6570247933884151,0.04065938435621581,1.381022347130003,116.66666666666667,2.333333333286667,1.214876033057829,0.9971681237220764,0.9226586150740397,1
219,164.61944444444444,0.8166666666666629,0.6472222222222399,0.6722222222222314,1.214876033057829,0.027286045961652575,0.926788239283752,50.0,0.9999999999800001,0.9628099173553851,1.0339503335270433e-14,0.9963321364907589,0
220,165.26666666666668,0.6472222222222399,0.7777777777777715,0.6541666666666828,0.9893842887473487,0.0268944481117486,0.9134873644582144,47.22222222222222,0.9444444444255556,1.188959660297201,1.5142199993878336e-10,0.9985624955307164,0
221,166.04444444444445,0.7777777777777715,0.7277777777777601,0.6541666666666828,1.188959660297201,0.028976530838423786,0.9842066539811563,52.77777777777778,1.0555555555344445,1.1125265392780772,2.6662855950876363e-11,0.9992502811463506,0
222,166.7722222222222,0.7277777777777601,1.1666666666666856,0.6541666666666828,1.1125265392780772,0.0304540519387384,1.034391615957312,52.77777777777778,1.0555555555344445,1.7834394904458448,1.2388708455546293e-05,0.9979013153034474,0
223,167.9388888888889,1.1666666666666856,0.6500000000000057,0.6944444444444429,1.680000000000031,0.029842771175007634,1.0136290685540623,55.55555555555556,1.111111111088889,0.9360000000000103,1.1463508368460276e-18,0.9978264795959924,0
224,168.5888888888889,0.6500000000000057,0.6861111111111029,0.6944444444444429,0.9360000000000103,0.02697656185989268,0.9162764111442162,47.22222222222222,0.9444444444255556,0.9879999999999904,1.3546494655181096e-12,0.998914289284086,0
225,169.275,0.6861111111111029,0.4361111111111029,0.6736111111111143,1.018556701030911,0.026389577369802377,0.8963391024252392,47.22222222222222,0.9444444444255556,0.647422680412356,4.116348883661299e-15,0.9986492039569421,0
226,169.7111111111111,0.4361111111111029,0.88611111111112,0.6736111111111143,0.647422680412356,0.04151404091270961,1.410051311102958,91.66666666666667,1.8333333332966668,1.31546391752578,0.9975027441978455,0.9307701453885613,1
227,170.59722222222223,0.88611111111112,0.8583333333333201,0.7069444444444315,1.253438113948955,0.04163240668016664,1.4140716811253182,122.22222222222223,2.4444444443955557,1.2141453831041291,0.9952215552330017,0.9231202121065258,1
228,171.45555555555555,0.8583333333333201,0.4749999999999943,0.7527777777777658,1.1402214022140227,0.02871925934196871,0.9754682608276525,52.77777777777778,1.0555555555344445,0.6309963099631022,2.508730536474762e-15,0.9987692021945161,0
229,171.93055555555554,0.4749999999999943,1.2694444444444457,0.7069444444444315,0.6719056974459767,0.041247425533566036,1.4009955469167616,97.22222222222223,1.9444444444055557,1.7956777996071074,0.9974387884140015,0.9233233485072259,1
230,173.2,1.2694444444444457,0.7916666666666856,0.7527777777777658,1.6863468634686631,0.024697684728203505,0.838872872082879,47.22222222222222,0.9444444444255556,1.051660516605208,1.7997778737629776e-27,0.9977550292280941,0
231,173.99166666666667,0.7916666666666856,0.4555555555555486,0.7597222222222229,1.0420475319927114,0.030392970935292477,1.0323169600794728,50.0,0.9999999999800001,0.5996343692870104,1.6469691008127313e-13,0.9976733770150605,0
232,174.44722222222222,0.4555555555555486,0.9027777777777715,0.7388888888888943,0.6165413533834447,0.040314858980658966,1.3693203194104264,88.88888888888889,1.7777777777422223,1.2218045112781781,0.9964070916175842,0.9307805064251178,1
233,175.35,0.9027777777777715,0.6611111111111256,0.7388888888888943,1.2218045112781781,0.024165207848900923,0.8207869496988994,44.44444444444444,0.8888888888711112,0.8947368421052763,1.3765611184074131e-21,0.9978750152770552,0
234,176.01111111111112,0.6611111111111256,0.6361111111110915,0.7388888888888943,0.8947368421052763,0.02683407707798756,0.9114368231609605,47.22222222222222,0.9444444444255556,0.860902255639065,9.910387804455342e-14,0.9982876982973239,0
235,176.6472222222222,0.6361111111110915,0.6944444444444571,0.7263888888889056,0.8757170172083659,0.029708544016371654,1.0090699560981524,50.0,0.9999999999800001,0.9560229445506646,1.034838770230806e-09,0.9974677953224733,0
236,177.34166666666667,0.6944444444444571,0.46944444444443434,0.7430555555555713,0.9345794392523336,0.030107487321276497,1.0226203240644902,52.77777777777778,1.0555555555344445,0.6317757009345524,1.5060484803708363e-10,0.9956029471370813,0
237,177.8111111111111,0.46944444444443434,0.8027777777777771,0.6777777777777914,0.6926229508196433,0.04269898860342708,1.4502988275612525,100.0,1.9999999999600002,1.184426229508172,0.9974853992462158,0.9208026660144434,1
238,178.61388888888888,0.8027777777777771,0.6611111111111256,0.6777777777777914,1.184426229508172,0.02932283985468294,0.995969264213433,52.77777777777778,1.0555555555344445,0.9754098360655756,1.4245481964186846e-12,0.9988032409422347,0
239,179.275,0.6611111111111256,0.6388888888888857,0.6777777777777914,0.9754098360655756,0.02632797766747985,0.8942468286038094,44.44444444444444,0.8888888888711112,0.9426229508196486,3.429285054166141e-14,0.9983961969450915,0
240,179.9138888888889,0.6388888888888857,0.4333333333333371,0.6611111111111256,0.9663865546218228,0.030533966545533413,1.0371059673817982,50.0,0.9999999999800001,0.6554621848739409,2.7296931381926015e-10,0.9977618243305798,0
241,180.34722222222223,0.4333333333333371,0.8833333333333258,0.6500000000000057,0.6666666666666666,0.04050729042357613,1.37585637811291,119.44444444444444,2.388888888841111,1.3589743589743355,0.9979318380355835,0.9271611925398282,1
242,181.23055555555555,0.8833333333333258,0.6277777777777658,0.6611111111111256,1.3361344537814719,0.030477038604760896,1.0351723729698867,50.0,0.9999999999800001,0.9495798319327341,8.640103335479793e-14,0.9982434436823799,0
243,181.85833333333332,0.6277777777777658,0.700000000000017,0.6500000000000057,0.965811965811939,0.026304137093336514,0.893437068048364,44.44444444444444,0.8888888888711112,1.0769230769230937,3.5043365778641977e-12,0.9987710823675668,0
244,182.55833333333334,0.700000000000017,0.46666666666666856,0.6500000000000057,1.0769230769230937,0.0287640774461465,0.9769905367894149,50.0,0.9999999999800001,0.7179487179487146,3.908490284892929e-12,0.9973252589942478,0
245,183.025,0.46666666666666856,1.10833333333332,0.6500000000000057,0.7179487179487146,0.0432802449451967,1.4700415760092418,102.77777777777777,2.0555555555144442,1.7051282051281698,0.9983965754508972,0.9223299744136567,1
246,184.13333333333333,1.10833333333332,1.26666666666668,0.6500000000000057,1.7051282051281698,0.028490980376498252,0.9677146177834673,52.77777777777778,1.0555555555344445,1.948717948717952,2.0267246214622503e-11,0.9993413172574694,0
247,185.4,1.26666666666668,0.8361111111111086,0.6805555555555713,1.8612244897958947,0.028481092141825162,0.9673787574827416,50.0,0.9999999999800001,1.2285714285713965,6.748145394685156e-22,0.9978377700163571,0
248,186.23611111111111,0.8361111111111086,0.44999999999998863,0.6805555555555713,1.2285714285713965,0.025247240231342786,0.8575388809967005,47.22222222222222,0.9444444444255556,0.6612244897958863,1.5278665944853384e-18,0.9962760246814797,0
249,186.6861111111111,0.44999999999998863,0.8472222222222285,0.6694444444444514,0.6721991701244574,0.04185491994299337,1.4216294883415888,94.44444444444444,1.8888888888511113,1.2655601659751001,0.997797966003418,0.9362913158459927,1
250,187.53333333333333,0.8472222222222285,0.6916666666666629,0.7680555555555628,1.1030741410488223,0.030177364426730097,1.0249937452490987,50.0,0.9999999999800001,0.9005424954791909,1.8080716164179354e-14,0.9983748939125012,0
251,188.225,0.6916666666666629,0.7666666666666799,0.7680555555555628,0.9005424954791909,0.025423979238042665,0.8635419359304326,44.44444444444444,0.8888888888711112,0.9981916817359934,4.728246755307227e-15,0.9980418975958641,0
252,188.99166666666667,0.7666666666666799,0.48611111111111427,0.7333333333333485,1.0454545454545419,0.03389841590666557,1.1513816709390374,55.55555555555556,1.111111111088889,0.6628787878787785,2.1169146435795483e-08,0.9971624703455928,0
253,189.4777777777778,0.48611111111111427,0.8138888888888687,0.7333333333333485,0.6628787878787785,0.041831643848062074,1.4208389006885043,130.55555555555554,2.611111111058889,1.1098484848484345,0.9962760210037231,0.9176349425326775,1
254,190.29166666666666,0.8138888888888687,1.330555555555577,0.7902777777777743,1.0298769771528788,0.02900324004653516,0.9851138495489199,55.55555555555556,1.111111111088889,1.683655536028154,3.3267625099142606e-07,0.9981414921990117,0
255,191.62222222222223,1.330555555555577,0.919444444444423,0.8249999999999886,1.612794612794661,0.02850818595787341,0.9682990165084034,50.0,0.9999999999800001,1.1144781144781037,3.6281455920676806e-25,0.9993726933399798,0
256,192.54166666666666,0.919444444444423,0.6750000000000114,0.8249999999999886,1.1144781144781037,0.0320314112050846,1.0879676459628838,50.0,0.9999999999800001,0.8181818181818432,5.895542859918378e-15,0.9985468439513214,0
257,193.21666666666667,0.6750000000000114,1.2361111111111143,0.7902777777777743,0.8541300527240955,0.023456465829958466,0.7967140675830654,44.44444444444444,0.8888888888711112,1.5641476274165311,3.403333836971001e-09,0.9969637499671649,0
258,194.45277777777778,1.2361111111111143,0.8916666666666515,0.7902777777777743,1.5641476274165311,0.02858127215723304,0.9707814366478273,50.0,0.9999999999800001,1.1282952548330263,5.890977844096398e-23,0.9989432589386644,0
259,195.34444444444443,0.8916666666666515,0.6555555555555657,0.8305555555555486,1.0735785953177164,0.03280349706984693,1.114192042864677,52.77777777777778,1.0555555555344445,0.789297658862895,3.8331981360752165e-13,0.9983776559177744,0
260,196.0,0.6555555555555657,0.9277777777777771,0.7902777777777743,0.8295254833040586,0.02928495648918446,0.9946825311463621,52.77777777777778,1.0555555555344445,1.1739894551845387,9.978243298292e-08,0.9985507628480099,0
261,196.92777777777778,0.9277777777777771,0.8305555555555486,0.8527777777777601,1.0879478827361782,0.028979854334136593,0.9843195386675,52.77777777777778,1.0555555555344445,0.973941368078188,1.382775065994439e-16,0.999243499954604,0
262,197.75833333333333,0.8305555555555486,0.4583333333333428,0.8611111111111001,0.9645161290322624,0.02690718809448944,0.9139200862307086,50.0,0.9999999999800001,0.5322580645161469,3.7176160249705484e-17,0.9965021288995642,0
263,198.21666666666667,0.4583333333333428,0.9416666666666629,0.8611111111111001,0.5322580645161469,0.04167072989228423,1.415373353867938,119.44444444444444,2.388888888841111,1.093548387096784,0.9875548481941223,0.9249348414663637,1
264,199.15833333333333,0.9416666666666629,0.8777777777777658,0.9055555555555372,1.0398773006135138,0.02788418845040686,0.9471045366605306,50.0,0.9999999999800001,0.9693251533742395,3.71752917100623e-18,0.9984445490627796,0
265,200.0361111111111,0.8777777777777658,0.7777777777777999,0.8847222222222086,0.9921507064364223,0.027594291243234852,0.9372579900928891,52.77777777777778,1.0555555555344445,0.8791208791209176,1.7983741638449255e-16,0.9987393198535877,0
266,200.8138888888889,0.7777777777777999,0.7916666666666572,0.8541666666666572,0.9105691056910928,0.025639089489082428,0.8708482950523518,47.22222222222222,0.9444444444255556,0.9268292682926821,2.4392455121357356e-16,0.9976667021926883,0
267,201.60555555555555,0.7916666666666572,0.4972222222222342,0.8541666666666572,0.9268292682926821,0.029191533239989315,0.9915093499257697,50.0,0.9999999999800001,0.5821138211382318,2.0675742205562148e-14,0.9976966931016109,0
268,202.1027777777778,0.4972222222222342,0.9749999999999943,0.8111111111111029,0.613013698630158,0.04212000977523964,1.4306334363384816,125.0,2.49999999995,1.202054794520553,0.9950180053710938,0.9173010290872652,1
269,203.07777777777778,0.9749999999999943,0.6527777777777715,0.8111111111111029,1.202054794520553,0.03198751458762116,1.0864766688947285,58.333333333333336,1.1666666666433334,0.8047945205479455,4.080877346115952e-13,0.9950570658004653,0
270,203.73055555555555,0.6527777777777715,0.6999999999999886,0.8111111111111029,0.8047945205479455,0.035728400439207615,1.2135382818754366,63.888888888888886,1.2777777777522223,0.8630136986301317,0.019554993137717247,0.9867179586245423,0
271,204.43055555555554,0.6999999999999886,0.46666666666666856,0.7847222222222285,0.8920353982300668,0.029635349609561438,1.0065838606225237,52.77777777777778,1.0555555555344445,0.5946902654867233,2.1774377439998105e-11,0.9983530802203269,0
272,204.8972222222222,0.46666666666666856,0.9111111111111256,0.7388888888888943,0.631578947368419,0.04079588546283889,1.385658695703383,130.55555555555554,2.611111111058889,1.233082706766928,0.9964172840118408,0.9140317765187993,1
273,205.80833333333334,0.9111111111111256,1.4416666666666629,0.7847222222222285,1.161061946902664,0.029570208063517123,1.0043712857830809,52.77777777777778,1.0555555555344445,1.8371681415929006,2.8209260705125416e-08,0.9989804542167426,0
274,207.25,1.4416666666666629,0.7888888888888914,0.7847222222222285,1.8371681415929006,0.03565172071711017,1.2109338054067194,66.66666666666667,1.3333333333066668,1.0053097345132695,4.6578557762915525e-15,0.9851906799375397,0
275,208.0388888888889,0.7888888888888914,0.46944444444443434,0.7833333333333456,1.0070921985815477,0.02943730874094763,0.9998572741399397,50.0,0.9999999999800001,0.5992907801418217,2.0963877403229643e-14,0.9982393992221011,0
276,208.50833333333333,0.46944444444443434,0.8222222222222229,0.74444444444444,0.6305970149253634,0.0424293281140325,1.441139634231386,97.22222222222223,1.9444444444055557,1.104477611940306,0.9950919151306152,0.9183519797414018,1
277,209.33055555555555,0.8222222222222229,0.6694444444444514,0.74444444444444,1.104477611940306,0.0331777283617375,1.1269030512894074,58.333333333333336,1.1666666666433334,0.8992537313432982,7.797830825495566e-09,0.99546558051136,0
278,210.0,0.6694444444444514,0.625,0.74444444444444,0.8992537313432982,0.0300502059066855,1.0206747236851945,52.77777777777778,1.0555555555344445,0.8395522388059752,3.052601227349072e-10,0.9985482632062226,0
279,210.625,0.625,0.6222222222222342,0.68472222222222,0.9127789046653173,0.02779139840459452,0.9439528626033098,50.0,0.9999999999800001,0.908722109533489,1.728178190829599e-11,0.9976346743645889,0
280,211.24722222222223,0.6222222222222342,0.7083333333333144,0.68472222222222,0.908722109533489,0.025652908174790972,0.8713176556704142,44.44444444444444,0.8888888888711112,1.0344827586206653,8.29351452964755e-13,0.9970047049356551,0
281,211.95555555555555,0.7083333333333144,0.7138888888889028,0.6888888888888829,1.0282258064515943,0.027962056427356448,0.9497493729755878,47.22222222222222,0.9444444444255556,1.0362903225806743,8.196703949261974e-13,0.9991333943980856,0
282,212.66944444444445,0.7138888888889028,0.549999999999983,0.7111111111111086,1.003906250000023,0.034815862204941636,1.182543329195116,55.55555555555556,1.111111111088889,0.7734374999999788,8.737989674045821e-07,0.9971291026231053,0
283,213.21944444444443,0.549999999999983,0.9972222222222342,0.6888888888888829,0.7983870967741757,0.04114415569206958,1.3974879198055954,136.11111111111111,2.722222222167778,1.4475806451613205,0.9991623163223267,0.9022082101365096,1
284,214.21666666666667,0.9972222222222342,0.7750000000000057,0.6888888888888829,1.4475806451613205,0.030565299032236024,1.0381701956039562,55.55555555555556,1.111111111088889,1.125000000000018,4.1399094439023565e-14,0.9977394341566121,0
285,214.99166666666667,0.7750000000000057,0.7777777777777715,0.6888888888888829,1.125000000000018,0.032856063944101926,1.115977510825257,52.77777777777778,1.0555555555344445,1.129032258064517,7.027494586253624e-09,0.9978618961095433,0
286,215.76944444444445,0.7777777777777715,0.4777777777777885,0.7111111111111086,1.093749999999995,0.025488099700172857,0.865719828992814,47.22222222222222,0.9444444444255556,0.6718750000000175,1.7325096097853702e-17,0.9969089933146187,0
287,216.24722222222223,0.4777777777777885,0.7222222222222001,0.6888888888888829,0.6935483870967958,0.03901771599905502,1.325262017166506,127.77777777777777,2.5555555555044447,1.0483870967741706,0.9970433115959167,0.9087791983076488,1
288,216.96944444444443,0.7222222222222001,0.5916666666666686,0.7111111111111086,1.0156249999999725,0.026544427734576038,0.9015986954466216,47.22222222222222,0.9444444444255556,0.8320312500000057,2.486920285115911e-15,0.9977943101438265,0
289,217.5611111111111,0.5916666666666686,0.6638888888888914,0.7111111111111086,0.8320312500000057,0.026782500904110138,0.9096850049809272,44.44444444444444,0.8888888888711112,0.9335937500000069,1.2336864169126827e-11,0.9965635404193287,0
290,218.225,0.6638888888888914,0.4805555555555543,0.7111111111111086,0.9335937500000069,0.031783849827950184,1.079559063306697,50.0,0.9999999999800001,0.6757812500000007,9.321924343552723e-10,0.9975415310632413,0
291,218.70555555555555,0.4805555555555543,0.8972222222222399,0.6888888888888971,0.6975806451612802,0.041969096122129304,1.4255075562807198,105.55555555555556,2.111111111068889,1.3024193548387197,0.9981635212898254,0.9183544711151159,1
292,219.6027777777778,0.8972222222222399,0.6888888888888687,0.6930555555555458,1.2945891783567571,0.029440445400880554,0.9999638128279034,55.55555555555556,1.111111111088889,0.9939879759518887,1.353610420366108e-13,0.9980619965623303,0
293,220.29166666666666,0.6888888888888687,1.0277777777777999,0.7055555555555344,0.9763779527559061,0.030556113172401568,1.0378581919199397,50.0,0.9999999999800001,1.4566929133859017,1.6698128320058458e-06,0.9984328479973096,0
294,221.31944444444446,1.0277777777777999,0.73888888888888,0.7055555555555344,1.4566929133859017,0.02833189207766083,0.9623110805843659,50.0,0.9999999999800001,1.0472440944882078,1.2872013937927555e-18,0.9989047288837225,0
295,222.05833333333334,0.73888888888888,0.48611111111111427,0.7055555555555344,1.0472440944882078,0.03100342646532542,1.053051477885218,52.77777777777778,1.0555555555344445,0.688976377952781,6.140904451612528e-11,0.9983318129622816,0
296,222.54444444444445,0.48611111111111427,0.8833333333333258,0.67638888888888,0.7186858316221907,0.04045127084493319,1.3739536368095762,122.22222222222223,2.4444444443955557,1.3059548254620181,0.9985252022743225,0.9177257498367977,1
297,223.42777777777778,0.8833333333333258,0.6111111111111143,0.7055555555555344,1.2519685039370347,0.026965433377928026,0.9158984250402414,50.0,0.9999999999800001,0.866141732283495,2.0469863078851677e-17,0.9991818916731152,0
298,224.0388888888889,0.6111111111111143,0.63611111111112,0.67638888888888,0.9034907597536099,0.02925929620122377,0.9938109628314796,50.0,0.9999999999800001,0.9404517453799022,4.5097747758404694e-10,0.9977362543202547,0
299,224.675,0.63611111111112,0.8722222222222058,0.67638888888888,0.9404517453799022,0.02784885849407802,0.9459045317911555,50.0,0.9999999999800001,1.2895277207392124,2.3117454617249678e-08,0.9974710537759162,0
300,225.54722222222222,0.8722222222222058,0.4777777777777885,0.7138888888888744,1.2217898832684844,0.029096846453040334,0.9882932518262791,55.55555555555556,1.111111111088889,0.6692607003891338,3.7916250813976177e-14,0.9984529505056705,0
301,226.025,0.4777777777777885,0.9666666666666686,0.7138888888888744,0.6692607003891338,0.041715557565325356,1.4168959548423468,94.44444444444444,1.8888888888511113,1.3540856031128707,0.9978631138801575,0.9272821541943748,1
302,226.99166666666667,0.9666666666666686,0.9138888888888914,0.7138888888888744,1.3540856031128707,0.028218646304834675,0.958464614498683,52.77777777777778,1.0555555555344445,1.280155642023376,8.846713644853135e-15,0.9989235242897325,0
303,227.90555555555557,0.9138888888888914,0.44999999999998863,0.8055555555555429,1.1344827586207107,0.033006767205011035,1.121096244775517,52.77777777777778,1.0555555555344445,0.5586206896551671,2.0767168909009703e-13,0.9985644084772063,0
304,228.35555555555555,0.44999999999998863,0.8972222222222115,0.6875,0.654545454545438,0.04099088595883177,1.3922820139589738,94.44444444444444,1.8888888888511113,1.3050505050504895,0.9976402521133423,0.9320319137921984,1
305,229.25277777777777,0.8972222222222115,0.6527777777777999,0.7541666666666629,1.189686924493546,0.03054797167859957,1.0375816608052264,52.77777777777778,1.0555555555344445,0.8655616942910097,5.528896093666587e-14,0.9966817537238231,0
306,229.90555555555557,0.6527777777777999,0.61388888888888,0.7625000000000028,0.856102003643013,0.029914215405697483,1.01605571816321,50.0,0.9999999999800001,0.8051001821493479,5.370762168332988e-10,0.9970838390877279,0
307,230.51944444444445,0.61388888888888,0.7083333333333428,0.6444444444444599,0.9525862068965151,0.02729558002205949,0.9271120698259334,47.22222222222222,0.9444444444255556,1.099137931034471,1.5719320289875327e-10,0.9988766695548517,0
308,231.2277777777778,0.7083333333333428,0.4722222222222001,0.6805555555555713,1.040816326530602,0.03376998153609412,1.1470193142849177,55.55555555555556,1.111111111088889,0.6938775510203595,1.7381415773343178e-07,0.9976944874229967,0
309,231.7,0.4722222222222001,0.9194444444444514,0.6805555555555713,0.6938775510203595,0.0419822126504102,1.425953067666578,97.22222222222223,1.9444444444055557,1.3510204081632442,0.9981581568717957,0.9251825761753679,1
310,232.61944444444444,0.9194444444444514,0.61944444444444,0.6805555555555713,1.3510204081632442,0.03367086811840568,1.1436528628027953,55.55555555555556,1.111111111088889,0.9102040816326255,8.523948213934318e-11,0.998133852479254,0
311,233.23888888888888,0.61944444444444,0.830555555555577,0.6805555555555713,0.9102040816326255,0.03282251026519835,1.1148378383701036,50.0,0.9999999999800001,1.2204081632653094,3.7325437460822286e-06,0.9972448747909987,0
312,234.06944444444446,0.830555555555577,0.8277777777777544,0.6805555555555713,1.2204081632653094,0.028108408839570206,0.9547203275294701,50.0,0.9999999999800001,1.2163265306121824,5.421598500005009e-13,0.9992346591707083,0
313,234.8972222222222,0.8277777777777544,0.42777777777777715,0.6805555555555713,1.2163265306121824,0.028607378780114417,0.9716681650176278,50.0,0.9999999999800001,0.628571428571413,5.056054011608798e-15,0.9977131740597996,0
314,235.325,0.42777777777777715,0.9333333333333371,0.6805555555555713,0.628571428571413,0.04028898996444849,1.368441661505232,94.44444444444444,1.8888888888511113,1.3714285714285452,0.9970422387123108,0.9312486642875102,1
315,236.25833333333333,0.9333333333333371,0.6833333333333371,0.6805555555555713,1.3714285714285452,0.029602964329821867,1.0054838736023914,52.77777777777778,1.0555555555344445,1.0040816326530435,6.524377578861129e-15,0.9990776785006741,0
316,236.94166666666666,0.6833333333333371,0.7027777777777828,0.69583333333334,0.9820359281437087,0.028958589813366954,0.9835972754348203,50.0,0.9999999999800001,1.0099800399201573,4.566946126827176e-11,0.9980934115674309,0
317,237.64444444444445,0.7027777777777828,0.49166666666667425,0.7055555555555628,0.9960629921259812,0.03166869119140096,1.0756476255646452,52.77777777777778,1.0555555555344445,0.6968503937007909,1.20315490903522e-09,0.9974684524614095,0
318,238.13611111111112,0.49166666666667425,0.8499999999999943,0.69305555555556,0.7094188376753571,0.04306673184206754,1.4627894650514581,136.11111111111111,2.722222222167778,1.2264529058116072,0.9977841973304749,0.9024658032813537,1
319,238.98611111111111,0.8499999999999943,0.6833333333333371,0.7652777777777686,1.1107078039927463,0.03235246209922215,1.098872347703707,52.77777777777778,1.0555555555344445,0.8929219600726109,3.1842660019182345e-12,0.9983834478912628,0
320,239.66944444444445,0.6833333333333371,0.6333333333333258,0.69305555555556,0.9859719438877748,0.02686684981705653,0.9125499704883865,47.22222222222222,0.9444444444255556,0.9138276553106045,5.688397479832255e-14,0.9984800181095733,0
321,240.30277777777778,0.6333333333333258,0.44999999999998863,0.69305555555556,0.9138276553106045,0.03222417276444229,1.094514917284268,52.77777777777778,1.0555555555344445,0.6492985971943682,1.0475770473306056e-08,0.9989457307299157,0
322,240.75277777777777,0.44999999999998863,0.8166666666666913,0.6833333333333371,0.6585365853658334,0.04006891618219116,1.3609667128278957,119.44444444444444,2.388888888841111,1.1951219512195417,0.9971254467964172,0.9249001304959812,1
323,241.56944444444446,0.8166666666666913,0.7083333333333144,0.6833333333333371,1.1951219512195417,0.02755970128328474,0.9360831196802205,47.22222222222222,0.9444444444255556,1.036585365853625,2.7057533646214276e-15,0.9989115111331,0
324,242.27777777777777,0.7083333333333144,0.9722222222222285,0.69305555555556,1.0220440881763189,0.03193989733288637,1.0848593179697466,52.77777777777778,1.0555555555344445,1.402805611222445,2.5487433958915062e-06,0.9978669717532815,0
325,243.25,0.9722222222222285,0.49444444444444,0.69305555555556,1.402805611222445,0.03074889332074703,1.044406094628344,52.77777777777778,1.0555555555344445,0.7134268537074039,2.979304984277809e-15,0.997868189846729,0
326,243.74444444444444,0.49444444444444,1.0,0.69305555555556,0.7134268537074039,0.04311649104550057,1.4644795686524956,105.55555555555556,2.111111111068889,1.442885771543077,0.998375415802002,0.9169059347605366,1
327,244.74444444444444,1.0,0.6388888888888857,0.6958333333333258,1.4371257485030096,0.03151234579607373,1.0703372528613562,50.0,0.9999999999800001,0.9181636726546961,1.3238905795809612e-15,0.9971542068425521,0
328,245.38333333333333,0.6388888888888857,0.7194444444444628,0.6958333333333258,0.9181636726546961,0.02816790040117789,0.9567409969849168,47.22222222222222,0.9444444444255556,1.0339321357285804,6.055819734562817e-11,0.9983301563480352,0
329,246.1027777777778,0.7194444444444628,0.44722222222222285,0.6958333333333258,1.0339321357285804,0.02846873582376096,0.9669590671297001,50.0,0.9999999999800001,0.6427145708582913,2.1149237688835448e-13,0.9986077336528961,0
330,246.55,0.44722222222222285,1.1416666666666515,0.6736111111111001,0.6639175257732077,0.04152924314853507,1.4105676648976284,122.22222222222223,2.4444444443955557,1.6948453608247476,0.9979432225227356,0.923646483433848,1
331,247.69166666666666,1.1416666666666515,0.4777777777777885,0.7138888888888886,1.599221789883248,0.03330330488658785,1.1311683393610097,52.77777777777778,1.0555555555344445,0.6692607003891204,6.846250998790269e-17,0.9981444426126422,0
332,248.16944444444445,0.4777777777777885,0.9111111111110972,0.7138888888888886,0.6692607003891204,0.04984616781203855,1.693057402545097,113.88888888888889,2.277777777732222,1.2762645914396697,0.9965636134147644,0.5223771616625471,1
333,249.08055555555555,0.9111111111110972,0.7083333333333428,0.7138888888888886,1.2762645914396697,0.02819506167328566,0.9576635471993687,52.77777777777778,1.0555555555344445,0.9922178988326985,6.987945581882725e-16,0.9987074811606481,0
334,249.7888888888889,0.7083333333333428,1.1583333333333314,0.7138888888889028,0.9922178988326787,0.033241042806149895,1.1290535674375024,52.77777777777778,1.0555555555344445,1.6225680933851798,0.00013768351345788687,0.9977403782251886,0
335,250.94722222222222,1.1583333333333314,0.6888888888888971,0.7138888888889028,1.6225680933851798,0.03093422656111008,1.050701058279663,58.333333333333336,1.1666666666433334,0.9649805447470744,4.438283567895328e-17,0.9975927983263404,0
336,251.63611111111112,0.6888888888888971,0.6388888888888857,0.7138888888889028,0.9649805447470744,0.02933956848106983,0.9965374628530063,52.77777777777778,1.0555555555344445,0.8949416342412233,1.1628587676115743e-10,0.996043251110403,0
337,252.275,0.6388888888888857,0.6944444444444287,0.69861111111112,0.9145129224651927,0.027584013588475006,0.9369089028864748,47.22222222222222,0.9444444444255556,0.9940357852882352,1.0015634155369213e-11,0.998596249052854,0
338,252.96944444444443,0.6944444444444287,0.6166666666666742,0.7013888888888857,0.990099009900972,0.03386514991012826,1.1502517698019448,52.77777777777778,1.0555555555344445,0.879207920792094,7.678697500068665e-08,0.9983167046283403,0
339,253.5861111111111,0.6166666666666742,0.5861111111111086,0.6916666666666629,0.8915662650602568,0.02719277109480784,0.9236200979658803,47.22222222222222,0.9444444444255556,0.8473895582329327,1.153537551937256e-12,0.9986077437133908,0
340,254.17222222222222,0.5861111111111086,0.6222222222222342,0.6916666666666629,0.8473895582329327,0.02905754247854923,0.986958266853863,52.77777777777778,1.0555555555344445,0.8995983935743195,1.0751020074195594e-09,0.99906588990631,0
341,254.79444444444445,0.6222222222222342,0.6694444444444514,0.6638888888888914,0.9372384937238639,0.030007343157430828,1.0192188626209557,52.77777777777778,1.0555555555344445,1.0083682008368267,7.952084324358566e-09,0.9978638514173765,0
342,255.4638888888889,0.6694444444444514,0.7861111111110972,0.6791666666666742,0.9856850715746414,0.03071119091562378,1.0431255079977253,52.77777777777778,1.0555555555344445,1.1574642126789032,9.068915574061975e-08,0.9951733401709719,0
343,256.25,0.7861111111110972,0.7277777777777601,0.6791666666666742,1.1574642126789032,0.030081555626329186,1.0217395372353675,52.77777777777778,1.0555555555344445,1.0715746421267514,2.505899827920377e-11,0.998623512344671,0
344,256.97777777777776,0.7277777777777601,0.45833333333337123,0.6791666666666742,1.0715746421267514,0.028111120383823508,0.9548124268877938,50.0,0.9999999999800001,0.6748466257669195,8.631357212079624e-14,0.999394259807187,0
345,257.43611111111113,0.45833333333337123,0.8305555555555202,0.6541666666666686,0.7006369426752151,0.042547748018519474,1.4451618430530626,127.77777777777777,2.5555555555044447,1.269639065817352,0.9979557991027832,0.9043631422293403,1
346,258.26666666666665,0.8305555555555202,0.6055555555555543,0.6541666666666686,1.269639065817352,0.029463202514298993,1.0007367729374734,52.77777777777778,1.0555555555344445,0.9256900212314179,8.50738858700073e-13,0.9987123241362283,0
347,258.8722222222222,0.6055555555555543,0.6166666666666742,0.6458333333333428,0.9376344086021349,0.028198214613650394,0.9577706388627525,47.22222222222222,0.9444444444255556,0.9548387096774171,7.069256985348105e-11,0.9975858349865947,0
348,259.4888888888889,0.6166666666666742,0.4861111111111427,0.6194444444444542,0.9955156950672611,0.029892646964239097,1.0153231320673202,55.55555555555556,1.111111111088889,0.7847533632287381,8.342269097738608e-09,0.9971558897808785,0
349,259.975,0.4861111111111427,1.0944444444444343,0.6194444444444542,0.7847533632287381,0.04185452963517952,1.421616231283674,141.66666666666666,2.833333333276667,1.7668161434977137,0.9990184307098389,0.9021094211498843,1
350,261.06944444444446,1.0944444444444343,0.6999999999999886,0.6458333333333428,1.694623655913938,0.030569965846067415,1.0383287069610043,55.55555555555556,1.111111111088889,1.083870967741902,2.8688991100426576e-15,0.9959290125526903,0
351,261.76944444444445,0.6999999999999886,0.6750000000000114,0.68472222222222,1.022312373225139,0.02857667562749786,0.9706253125356686,50.0,0.9999999999800001,0.9858012170385594,1.8713489091659596e-11,0.996502215184033,0
352,262.44444444444446,0.6750000000000114,0.4583333333333144,0.6875,0.9818181818181984,0.02814379191187354,0.9559221365173515,50.0,0.9999999999800001,0.6666666666666391,1.1107012662034399e-12,0.9982256968749694,0
353,262.90277777777777,0.4583333333333144,0.919444444444423,0.6458333333333428,0.709677419354799,0.04303580093372918,1.4617388766987656,97.22222222222223,1.9444444444055557,1.4236559139784404,0.9982957243919373,0.9266342567877255,1
354,263.8222222222222,0.919444444444423,0.6333333333333826,0.6458333333333428,1.4236559139784404,0.031237557602314128,1.061003893728694,55.55555555555556,1.111111111088889,0.9806451612903845,1.0910486056281421e-11,0.9964771790779796,0
355,264.4555555555556,0.6333333333333826,0.7027777777777828,0.654166666666697,0.9681528662420686,0.02716023092748944,0.9225148500887271,47.22222222222222,0.9444444444255556,1.0743099787685355,7.620732517255036e-11,0.9966688489240472,0
356,265.15833333333336,0.7027777777777828,0.73888888888888,0.654166666666697,1.0743099787685355,0.02728950680481317,0.9269057890651953,50.0,0.9999999999800001,1.1295116772823122,8.108731741618413e-11,0.996265774084688,0
357,265.89722222222224,0.73888888888888,0.6555555555555657,0.6875,1.074747474747462,0.029014228123537846,0.9854870667073439,52.77777777777778,1.0555555555344445,0.9535353535353682,7.383277149386469e-12,0.9990606985932645,0
358,266.5527777777778,0.6555555555555657,0.6416666666666515,0.6875,0.9535353535353682,0.025380326436919152,0.8620592402423172,44.44444444444444,0.8888888888711112,0.9333333333333113,4.879119416839215e-15,0.9985254588377162,0
359,267.19444444444446,0.6416666666666515,0.4833333333333485,0.6875,0.9333333333333113,0.028352540025731773,0.9630124015256406,50.0,0.9999999999800001,0.7030303030303251,1.427295955036545e-11,0.996076019207364,0
360,267.6777777777778,0.4833333333333485,0.9749999999999659,0.6652777777777885,0.7265135699373806,0.04344123948709502,1.4755098599896297,141.66666666666666,2.833333333276667,1.465553235908067,0.9986026883125305,0.9099893920156312,1
361,268.65277777777777,0.9749999999999659,0.6444444444444457,0.6652777777777885,1.465553235908067,0.029763764129083117,1.0109455430228695,52.77777777777778,1.0555555555344445,0.968684759916479,1.998418384984227e-15,0.9986829624990237,0
362,269.2972222222222,0.6444444444444457,0.7555555555555884,0.6500000000000057,0.9914529914529847,0.03268809802760965,1.1102724395875871,50.0,0.9999999999800001,1.1623931623932027,7.94656727975962e-07,0.9972865201022393,0
363,270.0527777777778,0.7555555555555884,0.7972222222222172,0.6791666666666742,1.1124744376278477,0.030191037613244247,1.0254581638927036,55.55555555555556,1.111111111088889,1.1738241308793251,4.761048444379412e-09,0.9971161116901421,0
364,270.85,0.7972222222222172,0.44722222222219443,0.6791666666666742,1.1738241308793251,0.028242548104354614,0.9592764546137342,50.0,0.9999999999800001,0.6584867075664139,8.132986742837717e-15,0.9985528699091705,0
365,271.2972222222222,0.44722222222219443,0.919444444444423,0.6791666666666742,0.6584867075664139,0.04241515044347999,1.4406580804603861,122.22222222222223,2.4444444443955557,1.3537832310837978,0.9976502060890198,0.9128413706782686,1
366,272.21666666666664,0.919444444444423,0.6472222222222399,0.6972222222222229,1.3187250996015616,0.027898092400751532,0.947576793347232,50.0,0.9999999999800001,0.9282868525896659,4.483223297958599e-17,0.9994236924433972,0
367,272.8638888888889,0.6472222222222399,0.5972222222222285,0.6513888888889028,0.9936034115138652,0.03233233308667546,1.0981886527439138,50.0,0.9999999999800001,0.9168443496801607,3.7645630612814784e-08,0.9975866055579197,0
368,273.4611111111111,0.5972222222222285,0.6638888888888914,0.6458333333333428,0.9247311827956951,0.03408422111794697,1.1576926653885535,55.55555555555556,1.111111111088889,1.0279569892473006,5.890320153412176e-06,0.9979285232124874,0
369,274.125,0.6638888888888914,0.5194444444444457,0.6555555555555657,1.0127118644067679,0.02728678404042009,0.9268133086075506,50.0,0.9999999999800001,0.7923728813559219,2.3652173969379575e-12,0.9965199609629734,0
370,274.64444444444445,0.5194444444444457,0.8222222222221944,0.6555555555555657,0.7923728813559219,0.04253535194249445,1.4447408022951087,141.66666666666666,2.833333333276667,1.2542372881355315,0.9988106489181519,0.8951160440038,1
371,275.46666666666664,0.8222222222221944,0.5666666666667197,0.6555555555555657,1.2542372881355315,0.028042329110305846,0.9524758866887807,50.0,0.9999999999800001,0.8644067796610846,7.740888415290123e-15,0.9996357148653763,0
372,276.03333333333336,0.5666666666667197,0.8027777777777487,0.6555555555555657,0.8644067796610846,0.03109164705195797,1.0560479472992423,47.22222222222222,0.9444444444255556,1.2245762711863775,4.8615052037348505e-06,0.9971036954200233,0
373,276.8361111111111,0.8027777777777487,0.6888888888888687,0.6555555555555657,1.2245762711863775,0.027350672482032552,0.9289833209426399,47.22222222222222,0.9444444444255556,1.0508474576270717,1.0645762496910328e-14,0.9988098805453792,0
374,277.525,0.6888888888888687,0.6111111111111427,0.6555555555555657,1.0508474576270717,0.02491833129318553,0.8463672756967661,44.44444444444444,0.8888888888711112,0.9322033898305423,1.4418138712229945e-15,0.99727519816261,0
375,278.1361111111111,0.6111111111111427,0.4777777777777601,0.6555555555555657,0.9322033898305423,0.02611685291550096,0.8870758395410949,47.22222222222222,0.9444444444255556,0.7288135593219957,1.212762393764874e-13,0.9986078739898434,0
376,278.6138888888889,0.4777777777777601,0.8388888888889028,0.6291666666666913,0.7593818984546883,0.04147116056545821,1.4085948523113523,127.77777777777777,2.5555555555044447,1.3333333333333033,0.9988864064216614,0.9171872704579269,1
377,279.4527777777778,0.8388888888889028,0.794444444444423,0.637500000000017,1.3159041394335378,0.03004328634671762,1.0204396963452764,52.77777777777778,1.0555555555344445,1.2461873638343557,5.900147592718952e-10,0.996169494636075,0
378,280.2472222222222,0.794444444444423,0.47777777777781694,0.67638888888888,1.1745379876796551,0.030748672916708516,1.0443986084622987,50.0,0.9999999999800001,0.7063655030801492,1.420790026428198e-12,0.9976135883603717,0
379,280.725,0.47777777777781694,1.0055555555555316,0.6500000000000057,0.7350427350427888,0.04181328624883359,1.4202153729303837,130.55555555555554,2.611111111058889,1.5470085470084967,0.9987120628356934,0.9193923028065433,1
380,281.73055555555555,1.0055555555555316,0.6777777777778056,0.7416666666666458,1.3558052434456986,0.027957571274779144,0.9495970318607968,50.0,0.9999999999800001,0.9138576779026849,7.7692132532945885e-19,0.9971252509275438,0
381,282.40833333333336,0.6777777777778056,0.6416666666666515,0.6833333333333371,0.9918699186992221,0.024714965995630556,0.8394598415336311,44.44444444444444,0.8888888888711112,0.9390243902438751,9.403918599094853e-16,0.9973610221312859,0
382,283.05,0.6416666666666515,0.5999999999999659,0.6833333333333371,0.9390243902438751,0.02996648294947661,1.0178310191701356,47.22222222222222,0.9444444444255556,0.8780487804877501,7.127216178348661e-11,0.9974248686072623,0
383,283.65,0.5999999999999659,0.4888888888889369,0.6597222222222285,0.9094736842104659,0.024499066779562293,0.8321266847030718,44.44444444444444,0.8888888888711112,0.741052631579013,5.208278961241078e-15,0.995371823946792,0
384,284.1388888888889,0.4888888888889369,0.8388888888888459,0.6263888888888971,0.7804878048781152,0.044145818022687335,1.4994413266944957,141.66666666666666,2.833333333276667,1.3392461197338386,0.9988640546798706,0.891914157527594,1
385,284.97777777777776,0.8388888888888459,0.7666666666667084,0.6597222222222285,1.2715789473683439,0.03250785644593867,1.1041504174244152,52.77777777777778,1.0555555555344445,1.1621052631579467,1.109026315226913e-09,0.9981835052437895,0
386,285.74444444444447,0.7666666666667084,0.5083333333333258,0.722222222222257,1.0615384615384682,0.03145715738359685,1.068462742655656,50.0,0.9999999999800001,0.7038461538461095,6.628193653657188e-12,0.9981073415494025,0
387,286.2527777777778,0.5083333333333258,0.8416666666666401,0.6597222222222285,0.7705263157894549,0.042498747411188365,1.4434975056603874,141.66666666666666,2.833333333276667,1.2757894736841582,0.9987807869911194,0.9078056766908201,1
388,287.09444444444443,0.8416666666666401,0.7194444444444343,0.6597222222222285,1.2757894736841582,0.03237951586091011,1.0997912462570563,52.77777777777778,1.0555555555344445,1.090526315789448,3.6626116028948275e-10,0.9976809657281552,0
389,287.81388888888887,0.7194444444444343,0.7722222222222399,0.69861111111112,1.0298210735586206,0.026456341166774762,0.8986067780690791,44.44444444444444,0.8888888888711112,1.1053677932405679,2.7839557238283283e-14,0.9990965510064815,0
390,288.5861111111111,0.7722222222222399,0.45277777777778283,0.69861111111112,1.1053677932405679,0.027273895268438115,0.9263755331120285,50.0,0.9999999999800001,0.6481113320079513,1.9429351858402284e-15,0.9992782624551615,0
391,289.0388888888889,0.45277777777778283,0.875,0.6805555555555429,0.6653061224489993,0.04126067364710052,1.401445527681058,91.66666666666667,1.8333333332966668,1.2857142857143096,0.9978019595146179,0.932901355560665,1
392,289.9138888888889,0.875,0.783333333333303,0.7430555555555713,1.177570093457919,0.03098652981509611,1.0524775722069155,52.77777777777778,1.0555555555344445,1.0542056074765722,2.1046219508911307e-13,0.9988071852253589,0
393,290.6972222222222,0.783333333333303,0.46111111111116543,0.7694444444444741,1.018050541516167,0.025715814922668966,0.8734543241414285,47.22222222222222,0.9444444444255556,0.5992779783393977,6.153275394822234e-18,0.9973138684293998,0
394,291.15833333333336,0.46111111111116543,1.011111111111063,0.7694444444444741,0.5992779783393977,0.0417897440520156,1.419415746954217,97.22222222222223,1.9444444444055557,1.3140794223825585,0.9960240125656128,0.92347474254979,1
395,292.1694444444444,1.011111111111063,0.9083333333333599,0.7694444444444741,1.3140794223825585,0.031978403672494105,1.0861672107562816,52.77777777777778,1.0555555555344445,1.180505415162444,2.003487877173544e-14,0.9972425709652672,0
396,293.0777777777778,0.9083333333333599,0.46944444444443434,0.7777777777777715,1.1678571428571864,0.030541471701871267,1.0373608848820355,50.0,0.9999999999800001,0.6035714285714204,9.956113141695324e-16,0.9980766509641472,0
397,293.5472222222222,0.46944444444443434,1.1777777777778056,0.7777777777777715,0.6035714285714204,0.043500151637802194,1.4775108493782372,94.44444444444444,1.8888888888511113,1.5142857142857624,0.9958165287971497,0.9329590348414328,1
398,294.725,1.1777777777778056,0.658333333333303,0.7777777777777715,1.5142857142857624,0.03072456448211778,1.0435797498531167,52.77777777777778,1.0555555555344445,0.8464285714285393,9.24815195945105e-20,0.9981912773319477,0
399,295.3833333333333,0.658333333333303,0.5833333333333144,0.7777777777777715,0.8464285714285393,0.03118762805915898,1.059308004428572,52.77777777777778,1.0555555555344445,0.7499999999999817,7.406165458689884e-09,0.9973992257125641,0
400,295.96666666666664,0.5833333333333144,0.6166666666666742,0.720833333333303,0.8092485549133025,0.02712237728801006,0.9212291266851648,47.22222222222222,0.9444444444255556,0.8554913294798153,1.9930057604256035e-11,0.9989627404814673,0
401,296.5833333333333,0.6166666666666742,0.4833333333333485,0.720833333333303,0.8554913294798153,0.030499136683767913,1.0359229485484533,52.77777777777778,1.0555555555344445,0.670520231213922,2.9754696484474152e-09,0.9980616612227025,0
402,297.06666666666666,0.4833333333333485,0.841666666666697,0.6374999999999886,0.7581699346405602,0.04388783990255833,1.4906789326098375,102.77777777777777,2.0555555555144442,1.3202614379085678,0.9987459182739258,0.9213302228708007,1
403,297.90833333333336,0.841666666666697,0.6777777777777487,0.6374999999999886,1.3202614379085678,0.030716165652842426,1.043294478172233,52.77777777777778,1.0555555555344445,1.0631808278866837,4.2865763022481573e-11,0.9974511922620488,0
404,298.5861111111111,0.6777777777777487,0.6583333333333599,0.6680555555555259,1.0145530145530162,0.031095216973907044,1.056169202012447,50.0,0.9999999999800001,0.985446985447069,1.6121164403415378e-09,0.9978451023063033,0
405,299.24444444444447,0.6583333333333599,0.452777777777726,0.6583333333333314,1.000000000000043,0.03045235608592177,1.0343340152170575,50.0,0.9999999999800001,0.6877637130800921,1.348309519588753e-10,0.9981254213766744,0
406,299.6972222222222,0.452777777777726,0.8000000000000114,0.6374999999999886,0.7102396514160534,0.04142519933543922,1.4070337493393617,122.22222222222223,2.4444444443955557,1.254901960784354,0.9981921315193176,0.9177201662679944,1
407,300.4972222222222,0.8000000000000114,0.8527777777778169,0.6583333333333314,1.2151898734177422,0.032161026939433464,1.092370128403523,50.0,0.9999999999800001,1.2953586497890928,1.1901685859072586e-08,0.9982462160276965,0
408,301.35,0.8527777777778169,0.44999999999998863,0.6583333333333314,1.2953586497890928,0.031506768615665974,1.070147820313396,50.0,0.9999999999800001,0.683544303797453,4.450032464915765e-13,0.998440861290941,0
409,301.8,0.44999999999998863,0.8166666666666629,0.637500000000017,0.7058823529411398,0.04501946562354871,1.5291153338003514,100.0,1.9999999999600002,1.2810457516339466,0.998090922832489,0.9241330759851085,1
410,302.6166666666667,0.8166666666666629,1.7555555555555316,0.6680555555555543,1.2224532224532192,0.032518927749018746,1.104526461410509,52.77777777777778,1.0555555555344445,2.627858627858597,2.8589502107934095e-05,0.9984970010807408,0
411,304.3722222222222,1.7555555555555316,0.6472222222222399,0.73888888888888,2.3759398496240562,0.02985308477161052,1.0139793765484748,50.0,0.9999999999800001,0.8759398496240945,6.033757254536313e-32,0.9979827900374337,0
412,305.01944444444445,0.6472222222222399,0.6916666666666629,0.73888888888888,0.8759398496240945,0.030740064743290125,1.0441062262718894,50.0,0.9999999999800001,0.9360902255639159,2.016435463048083e-09,0.9981678714807096,0
413,305.7111111111111,0.6916666666666629,0.4444444444444571,0.6847222222222058,1.0101419878296334,0.026795647229119243,0.9101315284319748,47.22222222222222,0.9444444444255556,0.6490872210953686,1.1717354042877111e-14,0.9970357110065877,0
414,306.15555555555557,0.4444444444444571,0.8361111111111086,0.6750000000000114,0.6584362139917772,0.04259815188083191,1.4468738429108394,88.88888888888889,1.7777777777422223,1.2386831275719918,0.9973878264427185,0.9306583398560269,1
415,306.9916666666667,0.8361111111111086,0.5861111111111086,0.7458333333333371,1.1210428305400282,0.027816725312529295,0.9448131074494982,50.0,0.9999999999800001,0.7858472998137729,5.635293257423915e-16,0.9977491099301091,0
416,307.5777777777778,0.5861111111111086,0.9916666666666742,0.7458333333333371,0.7858472998137729,0.025776725396032207,0.8755231878544633,44.44444444444444,0.8888888888711112,1.3296089385474894,1.6922810175401537e-07,0.9978420070452858,0
417,308.56944444444446,0.9916666666666742,0.7222222222222285,0.7541666666666629,1.3149171270718398,0.027821887696247435,0.9449884511590033,50.0,0.9999999999800001,0.9576427255985399,7.50984043247093e-19,0.9976698227655758,0
418,309.2916666666667,0.7222222222222285,0.8138888888888687,0.7069444444444457,1.0216110019646436,0.03246017302728298,1.1025308191989691,52.77777777777778,1.0555555555344445,1.151277013752425,7.402638146913887e-08,0.9963225463757661,0
419,310.10555555555555,0.8138888888888687,0.47500000000002274,0.7680555555555486,1.0596745027124608,0.02718744836542723,0.9234393080120052,50.0,0.9999999999800001,0.6184448462929828,1.673949523755801e-16,0.9975906595396133,0
420,310.5805555555556,0.47500000000002274,1.044444444444423,0.7069444444444457,0.6719056974460035,0.04220200785613799,1.4334185543115006,100.0,1.9999999999600002,1.4774066797642107,0.9978825449943542,0.9270629317447122,1
421,311.625,1.044444444444423,0.7666666666666515,0.7069444444444457,1.4774066797642107,0.032345467192565536,1.0986347611646625,50.0,0.9999999999800001,1.084479371316283,9.88813451251343e-16,0.9977657830572464,0
422,312.39166666666665,0.7666666666666515,0.4333333333333371,0.74444444444444,1.0298507462686424,0.024069724808397835,0.8175438063312719,44.44444444444444,0.8888888888711112,0.5820895522388145,1.2119978289627966e-19,0.9970113186639946,0
423,312.825,0.4333333333333371,0.716666666666697,0.74444444444444,0.5820895522388145,0.04167931769327947,1.4156650440957887,91.66666666666667,1.8333333332966668,0.9626865671642255,0.9918598532676697,0.9275843527227001,1
424,313.5416666666667,0.716666666666697,0.6527777777777715,0.74444444444444,0.9626865671642255,0.029909684417009585,1.0159018201952092,47.22222222222222,0.9444444444255556,0.8768656716417877,1.832571421001017e-12,0.9970342652940237,0
425,314.19444444444446,0.6527777777777715,0.73888888888888,0.7194444444444628,0.9073359073358754,0.02697465051577214,0.9162114911021321,47.22222222222222,0.9444444444255556,1.0270270270269886,4.793516278356336e-12,0.9979807657834511,0
426,314.93333333333334,0.73888888888888,0.5083333333333258,0.7305555555555543,1.0114068441064534,0.032055256860403405,1.0887775791037477,52.77777777777778,1.0555555555344445,0.6958174904942874,3.440770723894815e-10,0.99842791349252,0
427,315.44166666666666,0.5083333333333258,0.8194444444444571,0.7194444444444628,0.7065637065636781,0.04416424139862249,1.500067088601098,97.22222222222223,1.9444444444055557,1.1389961389961276,0.9973344802856445,0.9260839732965483,1
428,316.2611111111111,0.8194444444444571,0.6638888888888914,0.7277777777777885,1.1259541984732833,0.0289513133960167,0.983350127202577,50.0,0.9999999999800001,0.9122137404580053,4.173692167157468e-14,0.9961683983233645,0
429,316.925,0.6638888888888914,0.6916666666666629,0.6902777777777942,0.9617706237424355,0.029999136973651263,1.018940134269219,50.0,0.9999999999800001,1.0020120724345782,5.152309134892619e-10,0.9972724582446472,0
430,317.6166666666667,0.6916666666666629,0.7777777777777715,0.7041666666666799,0.9822485207100353,0.027750239306383942,0.9425548671511766,47.22222222222222,0.9444444444255556,1.104536489151844,6.049202371655182e-12,0.9989473586177361,0
431,318.39444444444445,0.7777777777777715,1.01111111111112,0.7041666666666799,1.104536489151844,0.025819595140290766,0.8769792865085435,47.22222222222222,0.9444444444255556,1.4358974358974215,7.926419937076545e-12,0.9982650425478048,0
432,319.40555555555557,1.01111111111112,0.6222222222222058,0.7041666666666799,1.4358974358974215,0.03163349304456981,1.0744520976903045,50.0,0.9999999999800001,0.883629191321459,6.176398550558051e-16,0.9974985175520383,0
433,320.02777777777777,0.6222222222222058,0.6583333333333599,0.7041666666666799,0.883629191321459,0.026404717847570997,0.8968533585674745,44.44444444444444,0.8888888888711112,0.9349112426035704,8.00145431682775e-13,0.995034433961524,0
434,320.68611111111113,0.6583333333333599,0.7194444444444343,0.6777777777777771,0.9713114754098761,0.027647772913313072,0.9390745296866216,50.0,0.9999999999800001,1.0614754098360517,4.267397546442453e-11,0.999250092553245,0
435,321.40555555555557,0.7194444444444343,0.6222222222222058,0.7055555555555486,1.0196850393700745,0.03186683052786069,1.0823775565714475,50.0,0.9999999999800001,0.881889763779513,3.9289063669123436e-10,0.9977137824686814,0
436,322.02777777777777,0.6222222222222058,0.6333333333333258,0.6777777777777771,0.9180327868852225,0.02830690093074562,0.9614622400788643,50.0,0.9999999999800001,0.9344262295081864,4.1774896042401366e-11,0.9986627934697948,0
437,322.6611111111111,0.6333333333333258,0.49722222222226264,0.6777777777777771,0.9344262295081864,0.026237227487814617,0.8911644399226194,47.22222222222222,0.9444444444255556,0.7336065573771096,4.8601090328875135e-14,0.9981572868246857,0
438,323.15833333333336,0.49722222222226264,0.7611111111110631,0.6611111111111256,0.7521008403361791,0.04170887946411593,1.4166691288056854,130.55555555555554,2.611111111058889,1.1512605042015829,0.9982675313949585,0.9115649670662163,1
439,323.9194444444444,0.7611111111110631,0.6166666666666742,0.6750000000000114,1.1275720164608152,0.029618105408809745,1.0059981501654287,50.0,0.9999999999800001,0.9135802469135761,2.735423432903561e-12,0.9975603264028441,0
440,324.5361111111111,0.6166666666666742,0.8611111111111427,0.6458333333333428,0.9548387096774171,0.02928565105357273,0.9947061224760614,44.44444444444444,0.8888888888711112,1.3333333333333626,2.6802817387761024e-07,0.9967137037183639,0
441,325.39722222222224,0.8611111111111427,1.38611111111112,0.6458333333333428,1.3333333333333626,0.0342516293349561,1.1633787940017495,55.55555555555556,1.111111111088889,2.146236559139767,7.735945109743625e-05,0.9978278710013551,0
442,326.78333333333336,1.38611111111112,0.8416666666666401,0.6458333333333428,2.146236559139767,0.03217511637839214,1.092848685331242,55.55555555555556,1.111111111088889,1.3032258064515527,1.2254294068036736e-18,0.9958720324053706,0
443,327.625,0.8416666666666401,0.4805555555555543,0.6888888888888971,1.221774193548334,0.032109756377703115,1.0906286905381783,52.77777777777778,1.0555555555344445,0.6975806451612802,1.0008873937983331e-11,0.9978775737111731,0
444,328.10555555555555,0.4805555555555543,0.9777777777777601,0.67638888888888,0.7104722792607877,0.04408588005480898,1.4974054947606823,88.88888888888889,1.7777777777422223,1.4455852156057423,0.998295247554779,0.9344894474681636,1
445,329.0833333333333,0.9777777777777601,0.6583333333333599,0.6972222222221944,1.4023904382470425,0.026776543978676452,0.9094826741469915,50.0,0.9999999999800001,0.9442231075697968,8.38492979513938e-19,0.9971106619376964,0
446,329.7416666666667,0.6583333333333599,0.63611111111112,0.7097222222222115,0.9275929549902667,0.02640147075370703,0.8967430689194543,41.666666666666664,0.8333333333166667,0.8962818003914155,5.2510507369456314e-15,0.9966208686720612,0
447,330.3777777777778,0.63611111111112,0.8416666666666401,0.7097222222222115,0.8962818003914155,0.024278193495290177,0.8246245804215259,47.22222222222222,0.9444444444255556,1.1859099804305089,1.1834888104245156e-11,0.9966792746827613,0
448,331.21944444444443,0.8416666666666401,0.6416666666666515,0.8013888888888516,1.0502599653379707,0.025906041894064785,0.8799155065396398,47.22222222222222,0.9444444444255556,0.8006932409012315,1.1995793922759321e-18,0.9965790749063108,0
449,331.8611111111111,0.6416666666666515,0.6416666666667084,0.75,0.8555555555555353,0.030945033384245615,1.0510681190329914,47.22222222222222,0.9444444444255556,0.8555555555556111,8.82272421787178e-10,0.9980909047295183,0
450,332.5027777777778,0.6416666666667084,0.4583333333333144,0.75,0.8555555555556111,0.027528264968570477,0.93501536487234,50.0,0.9999999999800001,0.6111111111110858,1.4456740925899991e-12,0.9976671454324522,0
451,332.9611111111111,0.4583333333333144,0.9916666666666742,0.6500000000000341,0.705128205128139,0.04181449523903872,1.4202564370664297,97.22222222222223,1.9444444444055557,1.5256410256409572,0.9983093738555908,0.9275756371846506,1
452,333.9527777777778,0.9916666666666742,0.6944444444444571,0.6500000000000341,1.5256410256409572,0.03166944006948336,1.0756730616941743,50.0,0.9999999999800001,1.0683760683760317,1.2131434569471848e-14,0.9987067350506544,0
453,334.64722222222224,0.6944444444444571,0.8249999999999886,0.6500000000000341,1.0683760683760317,0.031077837970265944,1.055578912887827,50.0,0.9999999999800001,1.2692307692306852,7.893425646443575e-08,0.998496399002523,0
454,335.47222222222223,0.8249999999999886,0.88611111111112,0.6763888888889085,1.219712525667299,0.027363212722539474,0.9294092583406761,50.0,0.9999999999800001,1.3100616016426856,2.7474604622629295e-12,0.9986010700228074,0
455,336.35833333333335,0.88611111111112,0.42500000000001137,0.6763888888889085,1.3100616016426856,0.02477738026583599,0.8415797826812481,44.44444444444444,0.8888888888711112,0.6283367556468159,5.564252937465634e-21,0.9979457547694324,0
456,336.78333333333336,0.42500000000001137,0.8444444444444343,0.6680555555555827,0.6361746361746273,0.0421233774287131,1.4307478208717912,91.66666666666667,1.8333333332966668,1.2640332640331975,0.9970806241035461,0.9278004450452346,1
457,337.6277777777778,0.8444444444444343,0.7111111111111086,0.7597222222222229,1.1115173674588523,0.031184335353905746,1.0591961655601478,50.0,0.9999999999800001,0.9360146252285151,1.5928057484071445e-13,0.9978300438304752,0
458,338.3388888888889,0.7111111111111086,0.6777777777777487,0.7027777777777828,1.0118577075098705,0.02616768599124325,0.8888024179112547,47.22222222222222,0.9444444444255556,0.9644268774703074,7.314206579539084e-15,0.9986743590538405,0
459,339.01666666666665,0.6777777777777487,0.6861111111111313,0.7027777777777828,0.9644268774703074,0.03219203715705659,1.0934234105474854,52.77777777777778,1.0555555555344445,0.9762845849802589,1.2515013914082829e-08,0.9981425660819707,0
460,339.7027777777778,0.6861111111111313,0.7694444444444457,0.7027777777777828,0.9762845849802589,0.02757860338949409,0.9367251419709232,47.22222222222222,0.9444444444255556,1.0948616600790453,4.514649938613946e-12,0.999373315019269,0
461,340.47222222222223,0.7694444444444457,1.10277777777776,0.7402777777777771,1.039399624765481,0.027541895192028105,0.9354783242478792,52.77777777777778,1.0555555555344445,1.4896810506566378,4.376907281056219e-09,0.9990595879103621,0
462,341.575,1.10277777777776,1.2138888888889028,0.7402777777777771,1.4896810506566378,0.02739207830386212,0.9303896965224309,47.22222222222222,0.9444444444255556,1.6397748592870747,4.546154471042694e-16,0.9980795101234506,0
463,342.7888888888889,1.2138888888889028,0.6388888888889142,0.7972222222222172,1.5226480836237204,0.02903247395016756,0.9861067980366904,50.0,0.9999999999800001,0.8013937282230332,8.317726034367554e-23,0.9992244693568026,0
464,343.4277777777778,0.6388888888889142,0.6861111111110745,0.7402777777777771,0.8630393996248004,0.029143154668449668,0.9898661403819866,50.0,0.9999999999800001,0.9268292682926342,3.9258427064758905e-10,0.9972873331761798,0
465,344.1138888888889,0.6861111111110745,1.2916666666666856,0.69861111111112,0.9821073558647463,0.03030520001653324,1.029335763926263,47.22222222222222,0.9444444444255556,1.8489065606361865,3.290309905423783e-05,0.9980856059823098,0
466,345.40555555555557,1.2916666666666856,0.669444444444423,0.7402777777777771,1.7448405253283572,0.029102576487542834,0.988487876162655,52.77777777777778,1.0555555555344445,0.9043151969980956,3.3363060761684307e-23,0.9994113712150496,0
467,346.075,0.669444444444423,0.8777777777777942,0.69861111111112,0.9582504970178498,0.032886303936920665,1.1170046317844395,52.77777777777778,1.0555555555344445,1.2564612326043814,1.2583659554366022e-06,0.9978067606134824,0
468,346.9527777777778,0.8777777777777942,1.1638888888888914,0.7277777777777885,1.2061068702290123,0.02886403484445393,0.9803856546203723,50.0,0.9999999999800001,1.599236641221354,6.957100451288056e-10,0.9979308449084611,0
469,348.1166666666667,1.1638888888888914,0.8499999999999659,0.82361111111112,1.4131534569983015,0.030367179123583107,1.0314409244752063,52.77777777777778,1.0555555555344445,1.032040472175327,4.386920713167158e-20,0.9985479949444225,0
470,348.96666666666664,0.8499999999999659,0.7888888888888914,0.86388888888888,0.9839228295819642,0.031384439381938474,1.06599282858984,50.0,0.9999999999800001,0.9131832797427776,8.031326526134613e-14,0.9987415656329658,0
471,349.75555555555553,0.7888888888888914,0.47500000000002274,0.86388888888888,0.9131832797427776,0.030513430689725084,1.036408453726887,55.55555555555556,1.111111111088889,0.5498392282958519,2.5631833461270404e-11,0.9966725946947177,0
472,350.23055555555555,0.47500000000002274,0.9750000000000227,0.8194444444444287,0.5796610169491915,0.04171317929245913,1.4168151752627287,94.44444444444444,1.8888888888511113,1.189830508474627,0.9933637380599976,0.9256615173681481,1
473,351.2055555555556,0.9750000000000227,0.6277777777777374,0.8194444444444287,1.189830508474627,0.0282724871227803,0.9602933527825498,50.0,0.9999999999800001,0.7661016949152196,5.988006466192941e-19,0.9996785541215585,0
474,351.8333333333333,0.6277777777777374,0.6111111111111427,0.8194444444444287,0.7661016949152196,0.03330927715882628,1.1313711914591171,50.0,0.9999999999800001,0.7457627118644596,8.083038665063214e-07,0.9977822505827176,0
475,352.44444444444446,0.6111111111111427,0.6638888888888914,0.8194444444444287,0.7457627118644596,0.02748551361332837,0.9335632873779494,50.0,0.9999999999800001,0.8101694915254424,3.0665253669681647e-10,0.9995679592697932,0
476,353.10833333333335,0.6638888888888914,0.4777777777777601,0.7291666666666572,0.9104761904762058,0.029392258412748253,0.9983271105387448,52.77777777777778,1.0555555555344445,0.6552380952380795,2.9527616463020934e-11,0.999097355057696,0
477,353.5861111111111,0.4777777777777601,0.9138888888888914,0.7263888888888914,0.6577437858508338,0.04192450394601478,1.4239929541120842,127.77777777777777,2.5555555555044447,1.2581261950286797,0.9971988201141357,0.9216162097009106,1
478,354.5,0.9138888888888914,1.1750000000000114,0.7263888888888914,1.2581261950286797,0.02670295287929686,0.9069831047510878,47.22222222222222,0.9444444444255556,1.6175908221797424,1.5245904582197878e-12,0.9981576545658424,0
479,355.675,1.1750000000000114,0.7749999999999773,0.7263888888888914,1.6175908221797424,0.027038669475611104,0.918385936573393,47.22222222222222,0.9444444444255556,1.0669216061185118,1.9997144319922275e-23,0.9985854734193633,0
480,356.45,0.7749999999999773,0.47500000000002274,0.7194444444444343,1.0772200772200609,0.026523093125150315,0.9008740516073032,47.22222222222222,0.9444444444255556,0.6602316602317011,9.155112597006252e-17,0.9978843428998758,0
481,356.925,0.47500000000002274,1.0361111111110972,0.6458333333333144,0.7354838709677988,0.044705967136769074,1.5184671544712927,102.77777777777777,2.0555555555144442,1.6043010752688427,0.9985415935516357,0.9241084590825424,1
482,357.9611111111111,1.0361111111110972,0.61388888888888,0.7194444444444343,1.440154440154441,0.031100213161695513,1.0563389007694641,55.55555555555556,1.111111111088889,0.853281853281853,2.1846841064589997e-15,0.997767366783789,0
483,358.575,0.61388888888888,0.625,0.6458333333333144,0.9505376344086164,0.03340681273643561,1.1346840505801166,52.77777777777778,1.0555555555344445,0.9677419354838993,2.354277512495173e-06,0.9969459600971098,0
484,359.2,0.625,0.7305555555555543,0.6444444444444457,0.9698275862068947,0.031908414390719675,1.083789979430218,50.0,0.9999999999800001,1.1336206896551682,2.6936885433315183e-07,0.9984730213371351,0
485,359.93055555555554,0.7305555555555543,0.6555555555555657,0.6972222222222229,1.0478087649402363,0.0319444478787978,1.0850138802115223,52.77777777777778,1.0555555555344445,0.9402390438247148,1.3936490850241512e-09,0.9981802577794037,0
486,360.5861111111111,0.6555555555555657,0.7361111111110858,0.69305555555556,0.9458917835671428,0.02642852375082583,0.8976619415037165,47.22222222222222,0.9444444444255556,1.0621242484969509,3.016689112053661e-12,0.997902491231405,0
487,361.3222222222222,0.7361111111110858,0.6416666666667084,0.7333333333333201,1.0037878787878625,0.027824387857517265,0.9450733707572642,50.0,0.9999999999800001,0.8750000000000727,4.7916738529470496e-14,0.9993984880869511,0
488,361.9638888888889,0.6416666666667084,0.6666666666666288,0.69305555555556,0.9258517034068678,0.03308029572892075,1.123593688755022,58.333333333333336,1.1666666666433334,0.96192384769533,1.68185999882553e-06,0.994240824355991,0
489,362.63055555555553,0.6666666666666288,0.5166666666667084,0.6611111111110972,1.0084033613445016,0.031093187358571965,1.0561002648118916,55.55555555555556,1.111111111088889,0.7815126050420963,2.150144595702841e-08,0.9958343526351965,0
490,363.14722222222224,0.5166666666667084,1.022222222222183,0.648611111111137,0.7965738758030303,0.04390824462502488,1.491371992235788,138.88888888888889,2.7777777777222226,1.5760171306208617,0.9990136623382568,0.9046175496072575,1
491,364.1694444444444,1.022222222222183,0.7416666666666742,0.6611111111110972,1.5462184873949312,0.030145165518470914,1.0239000884571132,52.77777777777778,1.0555555555344445,1.1218487394958334,3.704864089533423e-15,0.9970679650046405,0
492,364.9111111111111,0.7416666666666742,0.49444444444446844,0.6611111111110972,1.1218487394958334,0.028148719000391703,0.956089488272859,50.0,0.9999999999800001,0.7478991596639176,9.740062353663301e-14,0.99962071853987,0
493,365.40555555555557,0.49444444444446844,0.9138888888888914,0.6611111111110972,0.7478991596639176,0.04251892433210966,1.4441828278591806,130.55555555555554,2.611111111058889,1.3823529411765034,0.99882572889328,0.9195379518246133,1
494,366.31944444444446,0.9138888888888914,0.9027777777777715,0.6986111111110915,1.308151093439404,0.029215493435004545,0.9923231734816733,52.77777777777778,1.0555555555344445,1.2922465208747786,9.748840189977015e-13,0.9989459246809962,0
495,367.22222222222223,0.9027777777777715,0.5999999999999659,0.7013888888888573,1.287128712871336,0.027787288331203603,0.9438132612962297,47.22222222222222,0.9444444444255556,0.8554455445544453,1.216919165866575e-17,0.99830523891987,0
496,367.8222222222222,0.5999999999999659,0.6222222222222626,0.7013888888888573,0.8554455445544453,0.02978617102865157,1.0117066078919985,52.77777777777778,1.0555555555344445,0.8871287128713847,2.23285057110445e-09,0.9985103863061506,0
497,368.44444444444446,0.6222222222222626,0.6888888888888687,0.6541666666666686,0.951167728237851,0.02834176953739511,0.9626465749073102,50.0,0.9999999999800001,1.0530785562632357,3.9496064752064797e-10,0.9992726887545694,0
498,369.1333333333333,0.6888888888888687,0.466666666666697,0.6777777777777487,1.0163934426229646,0.030815826410887752,1.0466795204243908,52.77777777777778,1.0555555555344445,0.6885245901640087,3.2428584817445483e-10,0.9982219309076907,0
499,369.6,0.466666666666697,0.8527777777777601,0.6555555555555657,0.7118644067796963,0.04148923420045882,1.4092087350403935,133.33333333333334,2.6666666666133336,1.3008474576270717,0.9983850717544556,0.9211920038055442,1
500,370.4527777777778,0.8527777777777601,1.2138888888889028,0.7152777777777715,1.1922330097087237,0.033397338798117314,1.1343622621236493,52.77777777777778,1.0555555555344445,1.6970873786408112,4.39376572103356e-06,0.9985059364417217,0
501,371.6666666666667,1.2138888888889028,0.6333333333333258,0.7152777777777715,1.6970873786408112,0.029511809885972008,1.0023877538261063,50.0,0.9999999999800001,0.8854368932038807,8.53924537096507e-22,0.9980404566045824,0
502,372.3,0.6333333333333258,0.5916666666666401,0.6611111111110972,0.9579831932773196,0.02662773347607998,0.9044282289598017,47.22222222222222,0.9444444444255556,0.894957983193256,5.505841550908219e-13,0.9985507812783128,0
503,372.89166666666665,0.5916666666666401,0.4472222222222513,0.6611111111110972,0.894957983193256,0.031073959580057126,1.0554471808502157,50.0,0.9999999999800001,0.6764705882353523,1.8056913742015013e-09,0.9984647967781373,0
504,373.3388888888889,0.4472222222222513,0.7583333333333258,0.6277777777777942,0.7123893805310011,0.04126306266121126,1.4015266720940094,97.22222222222223,1.9444444444055557,1.2079646017698678,0.998076319694519,0.9241537987876323,1
505,374.09722222222223,0.7583333333333258,1.2583333333333258,0.6277777777777942,1.2079646017698678,0.03293675479044584,1.1187182277292191,52.77777777777778,1.0555555555344445,2.0044247787609972,9.659560600994155e-05,0.9978295267532648,0
506,375.35555555555555,1.2583333333333258,0.7777777777777715,0.6611111111110972,1.9033613445378437,0.03161917844518013,1.073965893042586,58.333333333333336,1.1666666666433334,1.1764705882353093,8.156716185566589e-17,0.9971195523704193,0
507,376.1333333333333,0.7777777777777715,0.7638888888889142,0.7236111111110972,1.074856046065271,0.030213288014328838,1.026213913189378,52.77777777777778,1.0555555555344445,1.0556621880998633,1.1066416880090024e-11,0.9985192246107273,0
508,376.89722222222224,0.7638888888889142,0.4777777777777601,0.76111111111112,1.0036496350365178,0.028347616597018885,0.9628451740777917,50.0,0.9999999999800001,0.6277372262773417,1.0682659252092726e-14,0.9987975228981267,0
509,377.375,0.4777777777777601,0.9222222222222172,0.76111111111112,0.6277372262773417,0.04188093497661366,1.4225131058227636,127.77777777777777,2.5555555555044447,1.2116788321167675,0.9959425330162048,0.9205709524190184,1
510,378.2972222222222,0.9222222222222172,0.5861111111111086,0.76111111111112,1.2116788321167675,0.028918469343650572,0.9822345576727841,52.77777777777778,1.0555555555344445,0.7700729927007176,4.2549109271565716e-16,0.9983454569041269,0
511,378.8833333333333,0.5861111111111086,0.6305555555555884,0.6958333333333258,0.8423153692614825,0.0283713217430382,0.9636503347292132,47.22222222222222,0.9444444444255556,0.906187624750556,1.2620834932697278e-10,0.9980946219260298,0
512,379.5138888888889,0.6305555555555884,0.4249999999999545,0.6944444444444571,0.9080000000000308,0.026291793805456386,0.8930178202739714,44.44444444444444,0.8888888888711112,0.6119999999999234,3.30006789107354e-15,0.9991213967452308,0
513,379.93888888888887,0.4249999999999545,0.830555555555577,0.6944444444444571,0.6119999999999234,0.04039941069088858,1.3721921730590738,125.0,2.49999999995,1.1960000000000093,0.995818555355072,0.9218206870856331,1
514,380.76944444444445,0.830555555555577,0.6833333333333371,0.76111111111112,1.0912408759124244,0.02960668542096344,1.0056102628752146,52.77777777777778,1.0555555555344445,0.8978102189780968,8.150243175665539e-14,0.9987117065258335,0
515,381.4527777777778,0.6833333333333371,0.6916666666666629,0.7236111111111256,0.9443378119001782,0.030730616164401283,1.0437852991648828,52.77777777777778,1.0555555555344445,0.9558541266794381,1.4199388331803675e-09,0.9969033810951533,0
516,382.14444444444445,0.6916666666666629,0.4638888888889028,0.6875,1.0060606060606005,0.029846071488455427,1.0137411658397468,52.77777777777778,1.0555555555344445,0.674747474747495,4.446431417504115e-11,0.9985582500812441,0
517,382.60833333333335,0.4638888888889028,0.9222222222222172,0.6569444444444628,0.7061310782241029,0.042127255544969315,1.4308795436044246,133.33333333333334,2.6666666666133336,1.4038054968287057,0.9983807802200317,0.9111888442628913,1
518,383.53055555555557,0.9222222222222172,0.7777777777777715,0.6569444444444628,1.4038054968287057,0.029206541140480168,0.9920191029948223,52.77777777777778,1.0555555555344445,1.1839323467230018,1.6464446180117914e-13,0.9986727612402442,0
519,384.30833333333334,0.7777777777777715,0.45277777777778283,0.6875,1.1313131313131222,0.028074707354151036,0.9535756347301992,50.0,0.9999999999800001,0.6585858585858659,8.589097044275212e-15,0.9994559680535032,0
520,384.7611111111111,0.45277777777778283,0.8305555555555202,0.6569444444444628,0.6892177589851893,0.042102330315314324,1.4300329420213973,125.0,2.49999999995,1.2642706131077333,0.9978470802307129,0.9140067888802125,1
