beat_index,peak_time_s,rr_prev_s,rr_next_s,rr_baseline_s,prematurity_index,aa_ratio,morph_index,qrs_width_ms,width_index,pause_index,pvc_score,morphology_score,is_pvc_candidate
0,0.225,,0.7777777777777778,0.76111111111112,,0.01773558088490306,0.8078138219122021,33.333333333333336,0.923076923051361,1.0218978102189662,0.0,0.9768363075442372,0
1,1.0027777777777778,0.7777777777777778,0.7916666666666667,0.76111111111112,1.0218978102189662,0.01808077067980991,0.8235364018106791,33.333333333333336,0.923076923051361,1.0401459854014479,0.0,0.9580874256926185,0
2,1.7944444444444445,0.7916666666666667,0.6833333333333333,0.76111111111112,1.0401459854014479,0.016775427043975166,0.7640810821222201,27.77777777777778,0.7692307692094675,0.8978102189780918,0.0,0.9533266751664045,0
3,2.477777777777778,0.6833333333333333,0.838888888888889,0.76111111111112,0.8978102189780918,0.024619093278809262,1.1213415541690401,36.111111111111114,0.9999999999723078,1.1021897810218853,0.0,0.930876705315295,0
4,3.316666666666667,0.838888888888889,0.7999999999999994,0.76111111111112,1.1021897810218853,0.018868141682712964,0.8593992914022673,33.333333333333336,0.923076923051361,1.0510948905109359,0.0,0.982628445581613,0
5,4.116666666666666,0.7999999999999994,0.8222222222222229,0.76111111111112,1.0510948905109359,0.019211489749168885,0.875037984919547,33.333333333333336,0.923076923051361,1.080291970802908,0.0,0.9901287682162174,0
6,4.938888888888889,0.8222222222222229,0.8166666666666664,0.76111111111112,1.080291970802908,0.023333486787805686,1.0627852148130084,41.666666666666664,1.153846153814201,1.0729927007299143,0.0,0.9780051633498407,0
7,5.7555555555555555,0.8166666666666664,0.7333333333333334,0.76111111111112,1.0729927007299143,0.024221053448742928,1.1032117799887722,30.555555555555557,0.8461538461304142,0.9635036496350253,0.0,0.9654774359934382,0
8,6.488888888888889,0.7333333333333334,0.8583333333333334,0.76111111111112,0.9635036496350253,0.01876592942970336,0.8547437646796986,33.333333333333336,0.923076923051361,1.1277372262773593,0.0,0.9773911520118721,0
9,7.347222222222222,0.8583333333333334,0.8194444444444438,0.76111111111112,1.1277372262773593,0.01733315810556975,0.7894844147443494,30.555555555555557,0.8461538461304142,1.0766423357664099,0.0,0.9830157133789854,0
10,8.166666666666666,0.8194444444444438,0.6972222222222229,0.76111111111112,1.0766423357664099,0.01869714853217234,0.8516109572419461,33.333333333333336,0.923076923051361,0.9160583941605741,0.0,0.9947565200322186,0
11,8.863888888888889,0.6972222222222229,0.9166666666666661,0.76111111111112,0.9160583941605741,0.024682975487999012,1.1242512379224316,36.111111111111114,0.9999999999723078,1.204379562043781,0.0,0.9803189306069924,0
12,9.780555555555555,0.9166666666666661,0.8638888888888889,0.76111111111112,1.204379562043781,0.018786954613036987,0.8557014121238599,33.333333333333336,0.923076923051361,1.1350364963503519,0.0,0.9955134380311701,0
13,10.644444444444444,0.8638888888888889,0.7694444444444457,0.76111111111112,1.1350364963503519,0.01548427381636435,0.7052721020138548,22.22222222222222,0.6153846153675739,1.0109489051094789,0.0,0.9099726642698365,0
14,11.41388888888889,0.7694444444444457,0.8222222222222211,0.76111111111112,1.0109489051094789,0.01858275001598928,0.8464003750129995,33.333333333333336,0.923076923051361,1.0802919708029057,0.0,0.9729584315375168,0
15,12.23611111111111,0.8222222222222211,0.7944444444444443,0.76111111111112,1.0802919708029057,0.018942725758913124,0.8627964199226152,33.333333333333336,0.923076923051361,1.043795620437944,0.0,0.9764953574916686,0
16,13.030555555555555,0.7944444444444443,0.7888888888888896,0.76111111111112,1.043795620437944,0.017316772987933035,0.7887381113339061,36.111111111111114,0.9999999999723078,1.0364963503649525,0.0,0.8883738582592788,0
17,13.819444444444445,0.7888888888888896,0.7222222222222214,0.76111111111112,1.0364963503649525,0.02634147655620064,1.1997920445779309,38.888888888888886,1.0769230768932543,0.9489051094890391,0.0,0.9698015971762586,0
18,14.541666666666666,0.7222222222222214,0.9361111111111118,0.76111111111112,0.9489051094890391,0.024705725201794593,1.1252874336561876,41.666666666666664,1.153846153814201,1.2299270072992567,0.0,0.9442798847661961,0
19,15.477777777777778,0.9361111111111118,0.8888888888888893,0.76111111111112,1.2299270072992567,0.018677621965211163,0.8507215682341601,38.888888888888886,1.0769230768932543,1.1678832116788191,0.0,0.9632475336653006,0
20,16.366666666666667,0.8888888888888893,0.8388888888888886,0.76111111111112,1.1678832116788191,0.019548888777201196,0.8904057137869025,33.333333333333336,0.923076923051361,1.1021897810218846,0.0,0.9853746994779735,0
21,17.205555555555556,0.8388888888888886,0.8055555555555571,0.76111111111112,1.1021897810218846,0.02300369562463851,1.0477640062222187,38.888888888888886,1.0769230768932543,1.0583941605839313,0.0,0.9914116426012785,0
22,18.011111111111113,0.8055555555555571,0.81111111111111,0.76111111111112,1.0583941605839313,0.018631513121584405,0.8486214193055287,30.555555555555557,0.8461538461304142,1.0656934306569206,0.0,0.969093549961954,0
23,18.822222222222223,0.81111111111111,0.7111111111111121,0.76111111111112,1.0656934306569206,0.020788346392145544,0.9468600808315514,36.111111111111114,0.9999999999723078,0.9343065693430562,0.0,0.9922381102579785,0
24,19.533333333333335,0.7111111111111121,0.8305555555555522,0.76111111111112,0.9343065693430562,0.021518594487003172,0.9801211568729448,38.888888888888886,1.0769230768932543,1.0912408759123917,0.0,0.9894884167787878,0
25,20.363888888888887,0.8305555555555522,0.7750000000000021,0.76111111111112,1.0912408759123917,0.020129130672439977,0.9168343617160724,33.333333333333336,0.923076923051361,1.0182481751824728,0.0,0.9815269609673796,0
26,21.13888888888889,0.7750000000000021,0.7888888888888879,0.76111111111112,1.0182481751824728,0.021639275162527033,0.9856178766228381,38.888888888888886,1.0769230768932543,1.03649635036495,0.0,0.9775199568351365,0
27,21.927777777777777,0.7888888888888879,0.8500000000000014,0.76111111111112,1.03649635036495,0.0210593407351401,0.9592032331281509,36.111111111111114,0.9999999999723078,1.1167883211678722,0.0,0.9749957788590572,0
28,22.77777777777778,0.8500000000000014,0.7777777777777786,0.76111111111112,1.1167883211678722,0.022205771127072067,1.0114204298736595,36.111111111111114,0.9999999999723078,1.0218978102189673,0.0,0.9730852104739612,0
29,23.555555555555557,0.7777777777777786,0.7861111111111079,0.76111111111112,1.0218978102189673,0.020331110856433653,0.9260340820658777,33.333333333333336,0.923076923051361,1.0328467153284508,0.0,0.9542581437913894,0
30,24.341666666666665,0.7861111111111079,0.7805555555555586,0.76111111111112,1.0328467153284508,0.020860044428628707,0.9501257570589573,33.333333333333336,0.923076923051361,1.0255474452554665,0.0,0.9158541538996179,0
31,25.122222222222224,0.7805555555555586,0.6944444444444429,0.76111111111112,1.0255474452554665,0.0186207276069879,0.8481301645885824,33.333333333333336,0.923076923051361,0.9124087591240749,0.0,0.9305569310836569,0
32,25.816666666666666,0.6944444444444429,0.8638888888888907,0.76111111111112,0.9124087591240749,0.020456631894658343,0.9317512689049615,36.111111111111114,0.9999999999723078,1.135036496350354,0.0,0.9574290272150475,0
33,26.680555555555557,0.8638888888888907,0.8666666666666636,0.76111111111112,1.135036496350354,0.021162892358124966,0.9639197649898066,33.333333333333336,0.923076923051361,1.138686131386844,0.0,0.9875674502934861,0
34,27.54722222222222,0.8666666666666636,0.7750000000000021,0.76111111111112,1.138686131386844,0.017992670727078046,0.8195236570357284,27.77777777777778,0.7692307692094675,1.0182481751824728,0.0,0.979131616648417,0
35,28.322222222222223,0.7750000000000021,0.8861111111111093,0.76111111111112,1.0182481751824728,0.021278843039203334,0.9692010446638752,36.111111111111114,0.9999999999723078,1.1642335766423197,0.0,0.991600260797069,0
36,29.208333333333332,0.8861111111111093,0.7416666666666671,0.76111111111112,1.1642335766423197,0.020381099782570588,0.9283109595889781,36.111111111111114,0.9999999999723078,0.9744525547445149,0.0,0.9949074315715118,0
37,29.95,0.7416666666666671,0.8083333333333336,0.76111111111112,0.9744525547445149,0.017036069230278356,0.7759527181309599,27.77777777777778,0.7692307692094675,1.0620437956204258,0.0,0.9097457173635168,0
38,30.758333333333333,0.8083333333333336,0.7888888888888879,0.76111111111112,1.0620437956204258,0.021175573553553144,0.9644973634914701,36.111111111111114,0.9999999999723078,1.03649635036495,0.0,0.9830152277684558,0
39,31.54722222222222,0.7888888888888879,0.7916666666666679,0.76111111111112,1.03649635036495,0.01784748279116978,0.8129106894558824,30.555555555555557,0.8461538461304142,1.0401459854014494,0.0,0.9164998159865548,0
40,32.33888888888889,0.7916666666666679,0.7416666666666671,0.76111111111112,1.0401459854014494,0.02127074871431887,0.9688323672823363,36.111111111111114,0.9999999999723078,0.9744525547445149,0.0,0.9595853384857908,0
41,33.080555555555556,0.7416666666666671,0.9222222222222243,0.76111111111112,0.9744525547445149,0.019082165772894417,0.8691475832339677,30.555555555555557,0.8461538461304142,1.2116788321167768,0.0,0.9728717961020672,0
42,34.00277777777778,0.9222222222222243,0.8499999999999943,0.76111111111112,1.2116788321167768,0.016182178280884155,0.737060002081635,36.111111111111114,0.9999999999723078,1.1167883211678629,0.0,0.9415713557455413,0
43,34.852777777777774,0.8499999999999943,0.7611111111111128,0.76111111111112,1.1167883211678629,0.02106522013481842,0.9594710258976978,36.111111111111114,0.9999999999723078,0.9999999999999907,0.0,0.9764172027905398,0
44,35.61388888888889,0.7611111111111128,0.8444444444444485,0.76111111111112,0.9999999999999907,0.020543707537565327,0.9357173587865751,30.555555555555557,0.8461538461304142,1.109489051094883,0.0,0.9644824422977398,0
45,36.458333333333336,0.8444444444444485,0.7805555555555515,0.76111111111112,1.109489051094883,0.017634130657544766,0.8031930036583198,30.555555555555557,0.8461538461304142,1.0255474452554572,0.0,0.8950587130676491,0
46,37.23888888888889,0.7805555555555515,0.7444444444444471,0.76111111111112,1.0255474452554572,0.02021138826115998,0.9205810006086136,36.111111111111114,0.9999999999723078,0.978102189781014,0.0,0.9707775239446343,0
47,37.983333333333334,0.7444444444444471,0.7999999999999972,0.76111111111112,0.978102189781014,0.01978729828797471,0.901264703933772,33.333333333333336,0.923076923051361,1.051094890510933,0.0,0.9594990898138527,0
48,38.78333333333333,0.7999999999999972,0.8055555555555571,0.76111111111112,1.051094890510933,0.01736375819515083,0.7908781765543383,30.555555555555557,0.8461538461304142,1.0583941605839313,0.0,0.9010698270917885,0
49,39.58888888888889,0.8055555555555571,0.8305555555555557,0.76111111111112,1.0583941605839313,0.019481641074729418,0.8873427397630416,36.111111111111114,0.9999999999723078,1.0912408759123964,0.0,0.9741353848803185,0
50,40.419444444444444,0.8305555555555557,0.87777777777778,0.76111111111112,1.0912408759123964,0.01969676127829486,0.8971409569706129,33.333333333333336,0.923076923051361,1.1532846715328362,0.0,0.9756123249463973,0
51,41.297222222222224,0.87777777777778,0.7527777777777729,0.76111111111112,1.1532846715328362,0.015392965832697562,0.7011132390064553,27.77777777777778,0.7692307692094675,0.989051094890493,0.0,0.9152635085115741,0
52,42.05,0.7527777777777729,0.7944444444444443,0.76111111111112,0.989051094890493,0.018231282252115465,0.8303918484552073,33.333333333333336,0.923076923051361,1.043795620437944,0.0,0.9576321147882659,0
53,42.84444444444444,0.7944444444444443,0.7888888888888914,0.76111111111112,1.043795620437944,0.01865020039971444,0.849472580689265,36.111111111111114,0.9999999999723078,1.0364963503649547,0.0,0.9590803291924108,0
54,43.63333333333333,0.7888888888888914,0.7055555555555557,0.76111111111112,1.0364963503649547,0.02390822716392571,1.0889632815396517,41.666666666666664,1.153846153814201,0.9270072992700624,0.0,0.9261071119465392,0
55,44.33888888888889,0.7055555555555557,0.8694444444444471,0.76111111111112,0.9270072992700624,0.01819170373974902,0.8285891406923308,33.333333333333336,0.923076923051361,1.142335766423348,0.0,0.9534353967861922,0
56,45.208333333333336,0.8694444444444471,0.8249999999999957,0.76111111111112,1.142335766423348,0.016380645146639568,0.7460996990833435,30.555555555555557,0.8461538461304142,1.0839416058393978,0.0,0.9412892191761284,0
57,46.03333333333333,0.8249999999999957,0.8000000000000043,0.76111111111112,1.0839416058393978,0.017960560470775884,0.8180611106982634,33.333333333333336,0.923076923051361,1.0510948905109423,0.0,0.9766536263003905,0
58,46.833333333333336,0.8000000000000043,0.7999999999999972,0.76111111111112,1.0510948905109423,0.016468986818875327,0.7501234536108103,30.555555555555557,0.8461538461304142,1.051094890510933,0.0,0.9649566853392524,0
59,47.63333333333333,0.7999999999999972,0.7388888888888872,0.76111111111112,1.051094890510933,0.01826572875524415,0.8319608053179385,27.77777777777778,0.7692307692094675,0.9708029197080157,0.0,0.9358737274107409,0
60,48.37222222222222,0.7388888888888872,0.8527777777777814,0.76111111111112,0.9708029197080157,0.022848320085141424,1.0406870173596972,38.888888888888886,1.0769230768932543,1.1204379562043714,0.0,0.9633629289896204,0
61,49.225,0.8527777777777814,0.7666666666666657,0.76111111111112,1.1204379562043714,0.016850987224863237,0.7675226699057659,30.555555555555557,0.8461538461304142,1.0072992700729797,0.0,0.9475142367133049,0
62,49.99166666666667,0.7666666666666657,0.7194444444444414,0.76111111111112,1.0072992700729797,0.017115849992186,0.7795865434118978,27.77777777777778,0.7692307692094675,0.9452554744525398,0.0,0.9422089710996915,0
63,50.71111111111111,0.7194444444444414,0.8833333333333329,0.76111111111112,0.9452554744525398,0.016580955265329933,0.7552233519028962,25.0,0.6923076922885207,1.1605839416058252,0.0,0.9417572912452655,0
64,51.59444444444444,0.8833333333333329,0.8000000000000043,0.76111111111112,1.1605839416058252,0.029046166047647867,1.3229842630539312,33.333333333333336,0.923076923051361,1.0510948905109423,0.0,0.8535659039545809,0
65,52.394444444444446,0.8000000000000043,0.81111111111111,0.76111111111112,1.0510948905109423,0.019528345052529417,0.8894699956476929,30.555555555555557,0.8461538461304142,1.0656934306569206,0.0,0.9897492731046296,0
66,53.205555555555556,0.81111111111111,0.7861111111111114,0.76111111111112,1.0656934306569206,0.022988616504289888,1.0470771879037806,36.111111111111114,0.9999999999723078,1.0328467153284555,0.0,0.9675077607574265,0
67,53.99166666666667,0.7861111111111114,0.7666666666666657,0.76111111111112,1.0328467153284555,0.02440716225813113,1.1116885967098633,38.888888888888886,1.0769230768932543,1.0072992700729797,0.0,0.9556488385963909,0
68,54.75833333333333,0.7666666666666657,0.7999999999999972,0.76111111111112,1.0072992700729797,0.016785583207000233,0.7645436713614723,33.333333333333336,0.923076923051361,1.051094890510933,0.0,0.9736538885179062,0
69,55.55833333333333,0.7999999999999972,0.7805555555555586,0.76111111111112,1.051094890510933,0.017871599010932947,0.8140091263090865,33.333333333333336,0.923076923051361,1.0255474452554665,0.0,0.9731798086984133,0
70,56.33888888888889,0.7805555555555586,0.7277777777777814,0.76111111111112,1.0255474452554665,0.02130009515847113,0.970169028503867,36.111111111111114,0.9999999999723078,0.9562043795620374,0.0,0.9063560640408123,0
71,57.06666666666667,0.7277777777777814,0.93055555555555,0.76111111111112,0.9562043795620374,0.01810782959937209,0.8247688716897428,33.333333333333336,0.923076923051361,1.222627737226256,0.0,0.9877077621300705,0
72,57.99722222222222,0.93055555555555,0.81388888888889,0.76111111111112,1.222627737226256,0.018377908653277215,0.8370703347300228,33.333333333333336,0.923076923051361,1.0693430656934197,0.0,0.9896484923501061,0
73,58.81111111111111,0.81388888888889,0.7944444444444443,0.76111111111112,1.0693430656934197,0.014116548031376023,0.642975422763852,25.0,0.6923076922885207,1.043795620437944,0.0,0.9060042696460158,0
74,59.605555555555554,0.7944444444444443,0.7722222222222257,0.76111111111112,1.043795620437944,0.02469415551824127,1.1247604618952862,36.111111111111114,0.9999999999723078,1.0145985401459783,0.0,0.9709784765397242,0
75,60.37777777777778,0.7722222222222257,0.8527777777777743,0.76111111111112,1.0145985401459783,0.02428481779042999,1.1061160951557925,38.888888888888886,1.0769230768932543,1.120437956204362,0.0,0.9626914593560753,0
76,61.230555555555554,0.8527777777777743,0.7277777777777814,0.76111111111112,1.120437956204362,0.02007182522651609,0.9142242339966266,30.555555555555557,0.8461538461304142,0.9562043795620374,0.0,0.9052619643934479,0
77,61.958333333333336,0.7277777777777814,0.7777777777777786,0.76111111111112,0.9562043795620374,0.022509068489735693,1.0252349084238237,38.888888888888886,1.0769230768932543,1.0218978102189673,0.0,0.9627151229163957,0
78,62.736111111111114,0.7777777777777786,0.9055555555555515,0.76111111111112,1.0218978102189673,0.022846952133383593,1.0406247103879178,38.888888888888886,1.0769230768932543,1.1897810218977911,0.0,0.9710984667771274,0
79,63.641666666666666,0.9055555555555515,0.8111111111111171,0.76111111111112,1.1897810218977911,0.020255936275281872,0.9226100574396214,36.111111111111114,0.9999999999723078,1.06569343065693,0.0,0.9474514659294027,0
80,64.45277777777778,0.8111111111111171,0.7583333333333258,0.76111111111112,1.06569343065693,0.024170871215371207,1.100926097777675,36.111111111111114,0.9999999999723078,0.9963503649634822,0.0,0.9783371228373557,0
81,65.21111111111111,0.7583333333333258,0.8638888888888943,0.76111111111112,0.9963503649634822,0.017645218669090374,0.803698036396869,30.555555555555557,0.8461538461304142,1.1350364963503587,0.0,0.965140500867605,0
82,66.075,0.8638888888888943,0.8250000000000028,0.76111111111112,1.1350364963503587,0.02271816447625324,1.0347587367726896,38.888888888888886,1.0769230768932543,1.0839416058394071,0.0,0.9824781401866044,0
83,66.9,0.8250000000000028,0.7333333333333343,0.76111111111112,1.0839416058394071,0.017697415181935558,0.8060754642807141,27.77777777777778,0.7692307692094675,0.9635036496350265,0.0,0.9664661369357056,0
84,67.63333333333334,0.7333333333333343,0.7916666666666572,0.76111111111112,0.9635036496350265,0.023780506133289223,1.0831458902420905,36.111111111111114,0.9999999999723078,1.0401459854014352,0.0,0.9642517173245779,0
85,68.425,0.7916666666666572,0.7999999999999972,0.76111111111112,1.0401459854014352,0.02439019498320856,1.110915777409972,36.111111111111114,0.9999999999723078,1.051094890510933,0.0,0.9406809801435374,0
86,69.225,0.7999999999999972,0.8250000000000028,0.76111111111112,1.051094890510933,0.0245898407625552,1.1200091711414362,36.111111111111114,0.9999999999723078,1.0839416058394071,0.0,0.9834681118128776,0
87,70.05,0.8250000000000028,0.88333333333334,0.76111111111112,1.0839416058394071,0.021606381851392496,0.9841196639871552,36.111111111111114,0.9999999999723078,1.1605839416058346,0.0,0.9572657842938869,0
88,70.93333333333334,0.88333333333334,0.75,0.76111111111112,1.1605839416058346,0.023839844662781415,1.0858486201163933,36.111111111111114,0.9999999999723078,0.9854014598540032,0.0,0.9914196862640243,0
89,71.68333333333334,0.75,0.8916666666666657,0.76111111111112,0.9854014598540032,0.016767158589218453,0.7637044735362553,30.555555555555557,0.8461538461304142,1.1715328467153137,0.0,0.9782003091965755,0
90,72.575,0.8916666666666657,0.7611111111111057,0.76111111111112,1.1715328467153137,0.016133551382884578,0.7348451617233916,30.555555555555557,0.8461538461304142,0.9999999999999813,0.0,0.9808807474712882,0
91,73.33611111111111,0.7611111111111057,0.7777777777777857,0.76111111111112,0.9999999999999813,0.017753428238624306,0.8086267267228278,33.333333333333336,0.923076923051361,1.0218978102189766,0.0,0.9700912075595137,0
92,74.1138888888889,0.7777777777777857,0.8499999999999943,0.76111111111112,1.0218978102189766,0.024213374269115875,1.10286201149323,36.111111111111114,0.9999999999723078,1.1167883211678629,0.0,0.97237541254959,0
93,74.96388888888889,0.8499999999999943,0.8166666666666629,0.76111111111112,1.1167883211678629,0.014913727309330596,0.6792850561191291,27.77777777777778,0.7692307692094675,1.0729927007299096,0.0,0.9585913183933614,0
94,75.78055555555555,0.8166666666666629,0.8972222222222257,0.76111111111112,1.0729927007299096,0.018132457493481486,0.8258906141009594,33.333333333333336,0.923076923051361,1.178832116788312,0.0,0.9866874369937317,0
95,76.67777777777778,0.8972222222222257,0.8083333333333371,0.76111111111112,1.178832116788312,0.019465653228823973,0.8866145311416924,33.333333333333336,0.923076923051361,1.0620437956204305,0.0,0.9909368680738534,0
96,77.48611111111111,0.8083333333333371,0.8194444444444429,0.76111111111112,1.0620437956204305,0.01966362591235762,0.8956317193103451,30.555555555555557,0.8461538461304142,1.0766423357664088,0.0,0.8294781936511915,0
97,78.30555555555556,0.8194444444444429,0.74444444444444,0.76111111111112,1.0766423357664088,0.024680001760328925,1.1241157916503255,36.111111111111114,0.9999999999723078,0.9781021897810047,0.0,0.9660957542971996,0
98,79.05,0.74444444444444,0.8611111111111143,0.76111111111112,0.9781021897810047,0.015878106256356335,0.7232102395131315,27.77777777777778,0.7692307692094675,1.1313868613138596,0.0,0.9633518212702674,0
99,79.91111111111111,0.8611111111111143,0.7777777777777715,0.76111111111112,1.1313868613138596,0.015541379620689823,0.7078731365300007,33.333333333333336,0.923076923051361,1.021897810218958,0.0,0.944304826319833,0
100,80.68888888888888,0.7777777777777715,0.8222222222222229,0.76111111111112,1.021897810218958,0.01888097414988812,0.8599837799747364,33.333333333333336,0.923076923051361,1.080291970802908,0.0,0.9874699916990745,0
101,81.5111111111111,0.8222222222222229,0.8916666666666657,0.76111111111112,1.080291970802908,0.018915625738458865,0.8615620779949884,33.333333333333336,0.923076923051361,1.1715328467153137,0.0,0.9878691789108166,0
102,82.40277777777777,0.8916666666666657,0.8027777777777771,0.76111111111112,1.1715328467153137,0.01656469605243618,0.7544827831561366,30.555555555555557,0.8461538461304142,1.0547445255474321,0.0,0.9896424748075834,0
103,83.20555555555555,0.8027777777777771,0.7666666666666799,0.76111111111112,1.0547445255474321,0.023919972864362603,1.0894982704538878,38.888888888888886,1.0769230768932543,1.0072992700729984,0.0,0.9631553871389198,0
104,83.97222222222223,0.7666666666666799,0.875,0.76111111111112,1.0072992700729984,0.02362843881471953,1.0762195830295487,41.666666666666664,1.153846153814201,1.149635036496337,0.0,0.9693588271243087,0
105,84.84722222222223,0.875,0.7777777777777715,0.76111111111112,1.149635036496337,0.01706292795355179,0.7771760695418892,33.333333333333336,0.923076923051361,1.021897810218958,0.0,0.9849574293011533,0
106,85.625,0.7777777777777715,0.7361111111111143,0.76111111111112,1.021897810218958,0.024841845125564647,1.1314873746997134,41.666666666666664,1.153846153814201,0.9671532846715257,0.0,0.9650426976224639,0
107,86.36111111111111,0.7361111111111143,0.8555555555555543,0.76111111111112,0.9671532846715257,0.016727872409838793,0.7619150808505031,30.555555555555557,0.8461538461304142,1.1240875912408612,0.0,0.9522549784708746,0
108,87.21666666666667,0.8555555555555543,0.8222222222222229,0.76111111111112,1.1240875912408612,0.02091023980547034,0.9524120379240673,36.111111111111114,0.9999999999723078,1.080291970802908,0.0,0.9512751747252233,0
109,88.03888888888889,0.8222222222222229,0.7999999999999972,0.76111111111112,1.080291970802908,0.020629389778552578,0.9396199825016422,36.111111111111114,0.9999999999723078,1.051094890510933,0.0,0.9920572684887703,0
110,88.83888888888889,0.7999999999999972,0.8166666666666629,0.76111111111112,1.051094890510933,0.01782094707122796,0.8117020500838481,30.555555555555557,0.8461538461304142,1.0729927007299096,0.0,0.9773186642036534,0
111,89.65555555555555,0.8166666666666629,0.8111111111111171,0.76111111111112,1.0729927007299096,0.016602660971758366,0.7562119955667856,27.77777777777778,0.7692307692094675,1.06569343065693,0.0,0.958549699930566,0
112,90.46666666666667,0.8111111111111171,0.7166666666666686,0.76111111111112,1.06569343065693,0.025208501279589252,1.1481876965573623,36.111111111111114,0.9999999999723078,0.9416058394160499,0.0,0.9577377085953083,0
113,91.18333333333334,0.7166666666666686,0.8388888888888886,0.76111111111112,0.9416058394160499,0.02306978506299172,1.0507742240510345,36.111111111111114,0.9999999999723078,1.1021897810218846,0.0,0.9228412335038554,0
114,92.02222222222223,0.8388888888888886,0.7305555555555543,0.76111111111112,1.1021897810218846,0.017430734567508974,0.793928792132343,30.555555555555557,0.8461538461304142,0.9598540145985274,0.0,0.9862747227457873,0
115,92.75277777777778,0.7305555555555543,0.8555555555555543,0.76111111111112,0.9598540145985274,0.016938514059003856,0.7715093104824607,27.77777777777778,0.7692307692094675,1.1240875912408612,0.0,0.9628113910264123,0
116,93.60833333333333,0.8555555555555543,0.8194444444444429,0.76111111111112,1.1240875912408612,0.0196750551502803,0.8961522941044712,33.333333333333336,0.923076923051361,1.0766423357664088,0.0,0.9952728424041213,0
117,94.42777777777778,0.8194444444444429,0.8277777777777828,0.76111111111112,1.0766423357664088,0.016618566275153998,0.7569364445717593,27.77777777777778,0.7692307692094675,1.0875912408759063,0.0,0.9438727268332638,0
118,95.25555555555556,0.8277777777777828,0.8333333333333286,0.76111111111112,1.0875912408759063,0.016956778084347042,0.7723411937013825,30.555555555555557,0.8461538461304142,1.0948905109488862,0.0,0.9649533585679586,0
119,96.08888888888889,0.8333333333333286,0.8527777777777743,0.76111111111112,1.0948905109488862,0.01685218080816604,0.7675770348062371,33.333333333333336,0.923076923051361,1.120437956204362,0.0,0.9736281507751949,0
120,96.94166666666666,0.8527777777777743,0.8138888888888971,0.76111111111112,1.120437956204362,0.018776550146696835,0.8552275132550412,25.0,0.6923076922885207,1.069343065693429,0.0,0.9466399565430369,0
121,97.75555555555556,0.8138888888888971,0.8111111111111029,0.76111111111112,1.069343065693429,0.019811613906757668,0.9023722229413925,36.111111111111114,0.9999999999723078,1.0656934306569112,0.0,0.9936716201353781,0
122,98.56666666666666,0.8111111111111029,0.88333333333334,0.76111111111112,1.0656934306569112,0.02401755031292085,1.0939426927800477,36.111111111111114,0.9999999999723078,1.1605839416058346,0.0,0.9920442649114642,0
123,99.45,0.88333333333334,0.8916666666666657,0.76111111111112,1.1605839416058346,0.017572158787497755,0.8003703313410947,27.77777777777778,0.7692307692094675,1.1715328467153137,0.0,0.9804058817834724,0
124,100.34166666666667,0.8916666666666657,0.86666666666666,0.76111111111112,1.1715328467153137,0.018281941544365143,0.8326992595714913,25.0,0.6923076922885207,1.1386861313868393,0.0,0.9377550752243231,0
125,101.20833333333333,0.86666666666666,0.8555555555555543,0.76111111111112,1.1386861313868393,0.01885949067674181,0.8590052585119834,36.111111111111114,0.9999999999723078,1.1240875912408612,0.0,0.9969457967096444,0
126,102.06388888888888,0.8555555555555543,0.875,0.76111111111112,1.1240875912408612,0.021666336352214016,0.986850449900725,36.111111111111114,0.9999999999723078,1.149635036496337,0.0,0.9801481635033293,0
127,102.93888888888888,0.875,0.7250000000000085,0.76111111111112,1.149635036496337,0.01967062972508003,0.8959507264384433,25.0,0.6923076922885207,0.9525547445255476,0.0,0.8956112729475387,0
128,103.66388888888889,0.7250000000000085,0.875,0.76111111111112,0.9525547445255476,0.023952961533475516,1.091000826420272,41.666666666666664,1.153846153814201,1.149635036496337,0.0,0.9787104920181111,0
129,104.53888888888889,0.875,0.9055555555555515,0.76111111111112,1.149635036496337,0.01911605232646851,0.8706910357169603,33.333333333333336,0.923076923051361,1.1897810218977911,0.0,0.9945706067002744,0
130,105.44444444444444,0.9055555555555515,0.8888888888888857,0.76111111111112,1.1897810218977911,0.0165594558189871,0.7542441028987668,27.77777777777778,0.7692307692094675,1.1678832116788145,0.0,0.9445342490243468,0
131,106.33333333333333,0.8888888888888857,0.8972222222222257,0.76111111111112,1.1678832116788145,0.02077514754178575,0.9462589043703356,38.888888888888886,1.0769230768932543,1.178832116788312,0.0,0.9937822452101825,0
132,107.23055555555555,0.8972222222222257,0.8666666666666742,0.76111111111112,1.178832116788312,0.024096618827444783,1.0975440768748235,33.333333333333336,0.923076923051361,1.1386861313868581,0.0,0.9808605046240049,0
133,108.09722222222223,0.8666666666666742,0.8499999999999943,0.76111111111112,1.1386861313868581,0.015581657797335577,0.7097077123483523,36.111111111111114,0.9999999999723078,1.1167883211678629,0.0,0.9731390108511369,0
134,108.94722222222222,0.8499999999999943,0.8416666666666686,0.76111111111112,1.1167883211678629,0.01854414594742791,0.8446420508640302,33.333333333333336,0.923076923051361,1.1058394160583838,0.0,0.9938533152621282,0
135,109.78888888888889,0.8416666666666686,0.8166666666666629,0.76111111111112,1.1058394160583838,0.019448493342444723,0.8858329388448537,33.333333333333336,0.923076923051361,1.0729927007299096,0.0,0.9928315190708226,0
136,110.60555555555555,0.8166666666666629,0.8916666666666657,0.76111111111112,1.0729927007299096,0.018591100710338735,0.8467807294181825,38.888888888888886,1.0769230768932543,1.1715328467153137,0.0,0.9763217834980039,0
137,111.49722222222222,0.8916666666666657,0.9027777777777857,0.76111111111112,1.1715328467153137,0.02646973421411028,1.2056338779803928,36.111111111111114,0.9999999999723078,1.1861313868613104,0.0,0.9638536128004077,0
138,112.4,0.9027777777777857,0.8583333333333343,0.76111111111112,1.1861313868613104,0.02334331653880924,1.0632329367555913,38.888888888888886,1.0769230768932543,1.1277372262773604,0.0,0.9861384892638041,0
139,113.25833333333334,0.8583333333333343,0.73888888888888,0.76111111111112,1.1277372262773604,0.015441937311454596,0.7033437742043798,27.77777777777778,0.7692307692094675,0.9708029197080063,0.0,0.9706056954124782,0
140,113.99722222222222,0.73888888888888,0.8972222222222257,0.76111111111112,0.9708029197080063,0.023441666247852235,1.0677125337229285,41.666666666666664,1.153846153814201,1.178832116788312,0.0,0.9896903002818813,0
141,114.89444444444445,0.8972222222222257,0.8444444444444485,0.76111111111112,1.178832116788312,0.02802643901027617,1.2765381048642306,36.111111111111114,0.9999999999723078,1.109489051094883,0.0,0.990096721929116,0
142,115.7388888888889,0.8444444444444485,0.7722222222222115,0.76111111111112,1.109489051094883,0.02278545544295565,1.0378236813800754,33.333333333333336,0.923076923051361,1.0145985401459594,0.0,0.9423057575676712,0
143,116.5111111111111,0.7722222222222115,0.9027777777777857,0.76111111111112,1.0145985401459594,0.027691886117948376,1.2613000107562928,44.44444444444444,1.2307692307351479,1.1861313868613104,0.0,0.9392558327644205,0
144,117.41388888888889,0.9027777777777857,0.8527777777777743,0.76111111111112,1.1861313868613104,0.019721215460819744,0.8982547872294222,36.111111111111114,0.9999999999723078,1.120437956204362,0.0,0.9959887806402861,0
145,118.26666666666667,0.8527777777777743,0.7972222222222172,0.76111111111112,1.120437956204362,0.023106395661267525,1.0524417503366181,38.888888888888886,1.0769230768932543,1.0474452554744338,0.0,0.9928486106737908,0
146,119.06388888888888,0.7972222222222172,0.8722222222222342,0.76111111111112,1.0474452554744338,0.021773625642623615,0.9917372236860597,38.888888888888886,1.0769230768932543,1.1459854014598565,0.0,0.9844435973195372,0
147,119.93611111111112,0.8722222222222342,0.8083333333333229,0.76111111111112,1.1459854014598565,0.019908191217828882,0.9067710913671146,30.555555555555557,0.8461538461304142,1.0620437956204118,0.0,0.9465222351863101,0
148,120.74444444444444,0.8083333333333229,0.7638888888888999,0.76111111111112,1.0620437956204118,0.02303348906590683,1.0491210271066809,38.888888888888886,1.0769230768932543,1.0036496350364992,0.0,0.9722333177935498,0
149,121.50833333333334,0.7638888888888999,0.8416666666666544,0.76111111111112,1.0036496350364992,0.02134177995885497,0.972067672711364,36.111111111111114,0.9999999999723078,1.105839416058365,0.0,0.980074894290476,0
150,122.35,0.8416666666666544,0.8166666666666771,0.76111111111112,1.105839416058365,0.01768948414874903,0.8057142244503583,33.333333333333336,0.923076923051361,1.0729927007299283,0.0,0.984776686760438,0
151,123.16666666666667,0.8166666666666771,0.8333333333333286,0.76111111111112,1.0729927007299283,0.02380248987287809,1.0841471976597867,38.888888888888886,1.0769230768932543,1.0948905109488862,0.0,0.9822147898012441,0
152,124.0,0.8333333333333286,0.8888888888888857,0.76111111111112,1.0948905109488862,0.020693534453424034,0.9425416209469516,36.111111111111114,0.9999999999723078,1.1678832116788145,0.0,0.9864959428564182,0
153,124.88888888888889,0.8888888888888857,0.7777777777777857,0.76111111111112,1.1678832116788145,0.01786442290287159,0.8136822715352214,27.77777777777778,0.7692307692094675,1.0218978102189766,0.0,0.9824789443959682,0
154,125.66666666666667,0.7777777777777857,0.8055555555555571,0.76111111111112,1.0218978102189766,0.022691574178197633,1.0335476114964732,38.888888888888886,1.0769230768932543,1.0583941605839313,0.0,0.9809412582985064,0
155,126.47222222222223,0.8055555555555571,0.8333333333333286,0.76111111111112,1.0583941605839313,0.020532349516966246,0.93520002777334,36.111111111111114,0.9999999999723078,1.0948905109488862,0.0,0.9718003173958418,0
156,127.30555555555556,0.8333333333333286,0.7277777777777743,0.76111111111112,1.0948905109488862,0.01809645032249261,0.8242505725031378,27.77777777777778,0.7692307692094675,0.9562043795620281,0.0,0.9676902870156157,0
157,128.03333333333333,0.7277777777777743,0.7888888888888914,0.76111111111112,0.9562043795620281,0.020332352336788546,0.9260906285639499,36.111111111111114,0.9999999999723078,1.0364963503649547,0.0,0.9695584719494037,0
158,128.82222222222222,0.7888888888888914,0.8499999999999943,0.76111111111112,1.0364963503649547,0.02127614955268742,0.9690783627144759,38.888888888888886,1.0769230768932543,1.1167883211678629,0.0,0.9887410193088844,0
159,129.67222222222222,0.8499999999999943,0.825000000000017,0.76111111111112,1.1167883211678629,0.01714608671776015,0.7809637548495542,30.555555555555557,0.8461538461304142,1.0839416058394258,0.0,0.9330423833737987,0
160,130.49722222222223,0.825000000000017,0.7972222222222172,0.76111111111112,1.0839416058394258,0.02156385731563266,0.9821827718165449,36.111111111111114,0.9999999999723078,1.0474452554744338,0.0,0.9799056998264777,0
161,131.29444444444445,0.7972222222222172,0.7888888888888914,0.76111111111112,1.0474452554744338,0.018337756157343413,0.8352414833712714,33.333333333333336,0.923076923051361,1.0364963503649547,0.0,0.9321014854953646,0
162,132.08333333333334,0.7888888888888914,0.73888888888888,0.76111111111112,1.0364963503649547,0.019736742924921405,0.8989620265469258,41.666666666666664,1.153846153814201,0.9708029197080063,0.0,0.9508728052023079,0
163,132.82222222222222,0.73888888888888,0.7888888888888914,0.76111111111112,0.9708029197080063,0.021708456024863664,0.9887689015128606,38.888888888888886,1.0769230768932543,1.0364963503649547,0.0,0.9783510328298617,0
164,133.61111111111111,0.7888888888888914,0.7722222222222115,0.76111111111112,1.0364963503649547,0.020741462166706828,0.9447246150926603,33.333333333333336,0.923076923051361,1.0145985401459594,0.0,0.967300735998414,0
165,134.38333333333333,0.7722222222222115,0.74444444444444,0.76111111111112,1.0145985401459594,0.02065395520404745,0.940738879615004,36.111111111111114,0.9999999999723078,0.9781021897810047,0.0,0.967469104628887,0
166,135.12777777777777,0.74444444444444,0.88611111111112,0.76111111111112,0.9781021897810047,0.021300693481952064,0.9701962807253199,36.111111111111114,0.9999999999723078,1.164233576642334,0.0,0.9763852286885752,0
167,136.01388888888889,0.88611111111112,0.7583333333333258,0.76111111111112,1.164233576642334,0.022777269043956928,1.0374508102400901,38.888888888888886,1.0769230768932543,0.9963503649634822,0.0,0.9946876090856778,0
168,136.7722222222222,0.7583333333333258,0.7944444444444514,0.76111111111112,0.9963503649634822,0.019051567903076275,0.867753922528938,33.333333333333336,0.923076923051361,1.0437956204379533,0.0,0.9710476763075018,0
169,137.56666666666666,0.7944444444444514,0.7888888888888914,0.76111111111112,1.0437956204379533,0.019520102213303553,0.8890945537886602,33.333333333333336,0.923076923051361,1.0364963503649547,0.0,0.9655640361885353,0
170,138.35555555555555,0.7888888888888914,0.7777777777777715,0.76111111111112,1.0364963503649547,0.02059354843609099,0.9379874940015894,33.333333333333336,0.923076923051361,1.021897810218958,0.0,0.9814399257755949,0
171,139.13333333333333,0.7777777777777715,0.8361111111111086,0.76111111111112,1.021897810218958,0.02006796596897968,0.9140484539305289,33.333333333333336,0.923076923051361,1.0985401459853854,0.0,0.9554027056744083,0
172,139.96944444444443,0.8361111111111086,0.7444444444444684,0.76111111111112,1.0985401459853854,0.020318634617830015,0.9254658188635108,30.555555555555557,0.8461538461304142,0.978102189781042,0.0,0.9700815308966054,0
173,140.7138888888889,0.7444444444444684,0.8388888888888744,0.76111111111112,0.978102189781042,0.022145588979786524,1.0086792752013025,36.111111111111114,0.9999999999723078,1.102189781021866,0.0,0.9779033038541777,0
174,141.55277777777778,0.8388888888888744,0.8444444444444343,0.76111111111112,1.102189781021866,0.021465066690019092,0.9776830921407624,36.111111111111114,0.9999999999723078,1.1094890510948643,0.0,0.9898498666555777,0
175,142.3972222222222,0.8444444444444343,0.8388888888889028,0.76111111111112,1.1094890510948643,0.018544350299953195,0.8446513586389229,27.77777777777778,0.7692307692094675,1.1021897810219032,0.0,0.9474074294886368,0
176,143.23611111111111,0.8388888888889028,0.7666666666666515,0.76111111111112,1.1021897810219032,0.020877664856400854,0.9509283259285489,36.111111111111114,0.9999999999723078,1.007299270072961,0.0,0.976552959438805,0
177,144.00277777777777,0.7666666666666515,0.88055555555556,0.76111111111112,1.007299270072961,0.02107768617559201,0.9600388246129912,33.333333333333336,0.923076923051361,1.1569343065693354,0.0,0.96646146278594,0
178,144.88333333333333,0.88055555555556,0.7722222222222399,0.76111111111112,1.1569343065693354,0.02017521590535251,0.918933435232434,33.333333333333336,0.923076923051361,1.014598540145997,0.0,0.9939834489981493,0
179,145.65555555555557,0.7722222222222399,0.7527777777777658,0.76111111111112,1.014598540145997,0.018797255762574728,0.8561706051563392,38.888888888888886,1.0769230768932543,0.9890510948904837,0.0,0.9143877625316124,0
180,146.40833333333333,0.7527777777777658,0.9166666666666572,0.76111111111112,0.9890510948904837,0.01966114466163713,0.8955187042001748,33.333333333333336,0.923076923051361,1.2043795620437692,0.0,0.9775290302610231,0
181,147.325,0.9166666666666572,0.8138888888888971,0.76111111111112,1.2043795620437692,0.020233180209624533,0.9215735723935642,36.111111111111114,0.9999999999723078,1.069343065693429,0.0,0.997912074131895,0
182,148.13888888888889,0.8138888888888971,0.8527777777777885,0.76111111111112,1.069343065693429,0.017779261548754612,0.8098033729868793,25.0,0.6923076922885207,1.1204379562043807,0.0,0.9174373215628533,0
183,148.99166666666667,0.8527777777777885,0.7972222222222172,0.76111111111112,1.1204379562043807,0.023843656600087408,1.086022244857755,38.888888888888886,1.0769230768932543,1.0474452554744338,0.0,0.9849623973604275,0
184,149.7888888888889,0.7972222222222172,0.86944444444444,0.76111111111112,1.0474452554744338,0.01926857455254842,0.8776380628922048,36.111111111111114,0.9999999999723078,1.1423357664233387,0.0,0.9782416250527979,0
185,150.65833333333333,0.86944444444444,0.7249999999999943,0.76111111111112,1.1423357664233387,0.018175121679836634,0.8278338670263634,25.0,0.6923076922885207,0.9525547445255289,0.0,0.9511881071738404,0
186,151.38333333333333,0.7249999999999943,0.875,0.76111111111112,0.9525547445255289,0.021316831519217223,0.9709313302083863,38.888888888888886,1.0769230768932543,1.149635036496337,0.0,0.9896514788432622,0
187,152.25833333333333,0.875,0.8222222222222229,0.76111111111112,1.149635036496337,0.018428636583228176,0.8393808721314936,33.333333333333336,0.923076923051361,1.080291970802908,0.0,0.994153891295073,0
188,153.08055555555555,0.8222222222222229,0.8083333333333371,0.76111111111112,1.080291970802908,0.01607835480459341,0.7323310879439521,27.77777777777778,0.7692307692094675,1.0620437956204305,0.0,0.9495041620419082,0
189,153.88888888888889,0.8083333333333371,0.8972222222222115,0.76111111111112,1.0620437956204305,0.01911277471430276,0.8705417482237824,33.333333333333336,0.923076923051361,1.1788321167882934,0.0,0.9789263589963705,0
190,154.7861111111111,0.8972222222222115,0.8194444444444571,0.76111111111112,1.1788321167882934,0.027465867897413194,1.2510054146143792,38.888888888888886,1.0769230768932543,1.0766423357664274,0.0,0.9918778760616631,0
191,155.60555555555555,0.8194444444444571,0.8277777777777828,0.76111111111112,1.0766423357664274,0.01777656646535106,0.8096806183030195,30.555555555555557,0.8461538461304142,1.0875912408759063,0.0,0.9456842936717627,0
192,156.43333333333334,0.8277777777777828,0.799999999999983,0.76111111111112,1.0875912408759063,0.027369536455619497,1.2466177449535607,38.888888888888886,1.0769230768932543,1.0510948905109143,0.0,0.9641756020194321,0
193,157.23333333333332,0.799999999999983,0.830555555555577,0.76111111111112,1.0510948905109143,0.020918865953301904,0.9528049385848022,36.111111111111114,0.9999999999723078,1.0912408759124244,0.0,0.9786287782361613,0
194,158.0638888888889,0.830555555555577,0.75,0.76111111111112,1.0912408759124244,0.02152058367495787,0.9802117596862733,30.555555555555557,0.8461538461304142,0.9854014598540032,0.0,0.9571716936649539,0
195,158.8138888888889,0.75,0.8527777777777601,0.76111111111112,0.9854014598540032,0.01960330127549151,0.8928840745741212,33.333333333333336,0.923076923051361,1.1204379562043434,0.0,0.9841723679022719,0
196,159.66666666666666,0.8527777777777601,0.8638888888889085,0.76111111111112,1.1204379562043434,0.020042150348554267,0.9128726133907561,33.333333333333336,0.923076923051361,1.1350364963503774,0.0,0.9903071910723185,0
197,160.53055555555557,0.8638888888889085,0.8416666666666686,0.76111111111112,1.1350364963503774,0.016895447535106817,0.7695477320322531,33.333333333333336,0.923076923051361,1.1058394160583838,0.0,0.9648000237921693,0
198,161.37222222222223,0.8416666666666686,0.7805555555555372,0.76111111111112,1.1058394160583838,0.024860282694205437,1.1323271624059714,36.111111111111114,0.9999999999723078,1.0255474452554385,0.0,0.9645900963848831,0
199,162.15277777777777,0.7805555555555372,0.8611111111111143,0.76111111111112,1.0255474452554385,0.019748024322983483,0.8994758675845654,33.333333333333336,0.923076923051361,1.1313868613138596,0.0,0.9838922796480019,0
200,163.01388888888889,0.8611111111111143,0.7416666666666742,0.76111111111112,1.1313868613138596,0.016590011681535958,0.7556358502718921,33.333333333333336,0.923076923051361,0.9744525547445242,0.0,0.958586702551999,0
201,163.75555555555556,0.7416666666666742,0.8166666666666629,0.76111111111112,0.9744525547445242,0.018567018411126426,0.8456838375659574,33.333333333333336,0.923076923051361,1.0729927007299096,0.0,0.9738830608529678,0
202,164.57222222222222,0.8166666666666629,0.8416666666666686,0.76111111111112,1.0729927007299096,0.021416543636625922,0.9754729816590836,38.888888888888886,1.0769230768932543,1.1058394160583838,0.0,0.9913204149089446,0
203,165.4138888888889,0.8416666666666686,0.8472222222222285,0.76111111111112,1.1058394160583838,0.016787121195701377,0.7646137231144311,30.555555555555557,0.8461538461304142,1.1131386861313823,0.0,0.9532522443869589,0
204,166.26111111111112,0.8472222222222285,0.7666666666666515,0.76111111111112,1.1131386861313823,0.02545992479817601,1.159639444024008,36.111111111111114,0.9999999999723078,1.007299270072961,0.0,0.9769640162791562,0
205,167.02777777777777,0.7666666666666515,0.88611111111112,0.76111111111112,1.007299270072961,0.024173815027121324,1.101060181450281,38.888888888888886,1.0769230768932543,1.164233576642334,0.0,0.9611537518041564,0
206,167.9138888888889,0.88611111111112,0.74444444444444,0.76111111111112,1.164233576642334,0.01832707097261995,0.8347547984430859,33.333333333333336,0.923076923051361,0.9781021897810047,0.0,0.9950936633096069,0
207,168.65833333333333,0.74444444444444,0.8611111111111143,0.76111111111112,0.9781021897810047,0.0164813766522077,0.7506877812571408,33.333333333333336,0.923076923051361,1.1313868613138596,0.0,0.9629237155195469,0
208,169.51944444444445,0.8611111111111143,0.7472222222222342,0.76111111111112,1.1313868613138596,0.01738812912369544,0.7919882147909733,33.333333333333336,0.923076923051361,0.9817518248175227,0.0,0.9752000181857755,0
209,170.26666666666668,0.7472222222222342,0.8249999999999886,0.76111111111112,0.9817518248175227,0.017563285160847857,0.7999661586046732,30.555555555555557,0.8461538461304142,1.0839416058393885,0.0,0.9531308793109128,0
210,171.09166666666667,0.8249999999999886,0.8194444444444287,0.76111111111112,1.0839416058393885,0.019708077495216445,0.8976563839250689,33.333333333333336,0.923076923051361,1.0766423357663901,0.0,0.9903523595713521,0
211,171.9111111111111,0.8194444444444287,0.8472222222222285,0.76111111111112,1.0766423357663901,0.01929917629259709,0.8790318998770945,36.111111111111114,0.9999999999723078,1.1131386861313823,0.0,0.9763263143820624,0
212,172.75833333333333,0.8472222222222285,0.8027777777777771,0.76111111111112,1.1131386861313823,0.020316770590280565,0.9253809168110411,36.111111111111114,0.9999999999723078,1.0547445255474321,0.0,0.9877026818975398,0
213,173.5611111111111,0.8027777777777771,0.86944444444444,0.76111111111112,1.0547445255474321,0.02385992206725899,1.0867630984720986,41.666666666666664,1.153846153814201,1.1423357664233387,0.0,0.9750457932826564,0
214,174.43055555555554,0.86944444444444,0.7833333333333599,0.76111111111112,1.1423357664233387,0.016625270890380652,0.757241823960562,27.77777777777778,0.7692307692094675,1.0291970802919936,0.0,0.9512872300369049,0
215,175.2138888888889,0.7833333333333599,0.7861111111110972,0.76111111111112,1.0291970802919936,0.01744701950409583,0.79467053253257,33.333333333333336,0.923076923051361,1.0328467153284369,0.0,0.9655467991707474,0
216,176.0,0.7861111111110972,0.8583333333333201,0.76111111111112,1.0328467153284369,0.017230808243634613,0.7848226202602235,30.555555555555557,0.8461538461304142,1.1277372262773417,0.0,0.9702636801312936,0
217,176.85833333333332,0.8583333333333201,0.8000000000000114,0.76111111111112,1.1277372262773417,0.01699670156092393,0.7741596137693179,33.333333333333336,0.923076923051361,1.0510948905109516,0.0,0.990289795133381,0
218,177.65833333333333,0.8000000000000114,0.9250000000000114,0.76111111111112,1.0510948905109516,0.023684184674055007,1.07875867526328,36.111111111111114,0.9999999999723078,1.2153284671532856,0.0,0.9874300065798585,0
219,178.58333333333334,0.9250000000000114,0.8583333333333201,0.76111111111112,1.2153284671532856,0.019337003630998644,0.8807548458017435,33.333333333333336,0.923076923051361,1.1277372262773417,0.0,0.9959894374216667,0
220,179.44166666666666,0.8583333333333201,0.8583333333333485,0.76111111111112,1.1277372262773417,0.020260942675716404,0.9228380871554388,36.111111111111114,0.9999999999723078,1.127737226277379,0.0,0.9584778911015661,0
221,180.3,0.8583333333333485,0.8305555555555486,0.76111111111112,1.127737226277379,0.01511030722829593,0.6882388071510873,25.0,0.6923076922885207,1.091240875912387,0.0,0.9429632255100155,0
222,181.13055555555556,0.8305555555555486,0.8555555555555543,0.76111111111112,1.091240875912387,0.01718412607330147,0.7826963576541832,27.77777777777778,0.7692307692094675,1.1240875912408612,0.0,0.9681778509835453,0
223,181.98611111111111,0.8555555555555543,0.8388888888888744,0.76111111111112,1.1240875912408612,0.020801150627880186,0.9474432835285812,36.111111111111114,0.9999999999723078,1.102189781021866,0.0,0.9969209547545386,0
224,182.825,0.8388888888888744,0.8833333333333542,0.76111111111112,1.102189781021866,0.021893876560151737,0.9972143689742373,36.111111111111114,0.9999999999723078,1.1605839416058532,0.0,0.9731159422562095,0
225,183.70833333333334,0.8833333333333542,0.8027777777777771,0.76111111111112,1.1605839416058532,0.020377800384308444,0.9281606797905633,36.111111111111114,0.9999999999723078,1.0547445255474321,0.0,0.9951440441483272,0
226,184.51111111111112,0.8027777777777771,0.9055555555555372,0.76111111111112,1.0547445255474321,0.02471484645963687,1.1257028854085736,41.666666666666664,1.153846153814201,1.1897810218977722,0.0,0.9729409583498448,0
227,185.41666666666666,0.9055555555555372,0.8555555555555543,0.76111111111112,1.1897810218977722,0.02106940793410506,0.959661770264578,36.111111111111114,0.9999999999723078,1.1240875912408612,0.0,0.9683349220476354,0
228,186.2722222222222,0.8555555555555543,0.7444444444444684,0.76111111111112,1.1240875912408612,0.017435919244280857,0.7941649419142789,30.555555555555557,0.8461538461304142,0.978102189781042,0.0,0.9843896476273324,0
229,187.01666666666668,0.7444444444444684,0.8944444444444173,0.76111111111112,0.978102189781042,0.023854030864790803,1.0864947681133486,38.888888888888886,1.0769230768932543,1.1751824817517755,0.0,0.9792779977442134,0
230,187.9111111111111,0.8944444444444173,0.7416666666666742,0.76111111111112,1.1751824817517755,0.019884954739286375,0.9057127246487637,36.111111111111114,0.9999999999723078,0.9744525547445242,0.0,0.9493635819080672,0
231,188.65277777777777,0.7416666666666742,0.8472222222222285,0.76111111111112,0.9744525547445242,0.01940234502760634,0.8837309920957548,36.111111111111114,0.9999999999723078,1.1131386861313823,0.0,0.9855722864560148,0
232,189.5,0.8472222222222285,0.8972222222222115,0.76111111111112,1.1131386861313823,0.020519920641640516,0.9346339218564205,36.111111111111114,0.9999999999723078,1.1788321167882934,0.0,0.991461744724365,0
233,190.3972222222222,0.8972222222222115,0.8333333333333428,0.76111111111112,1.1788321167882934,0.02613221601330041,1.1902607210744784,36.111111111111114,0.9999999999723078,1.0948905109489049,0.0,0.9800389204405716,0
234,191.23055555555555,0.8333333333333428,0.8222222222222229,0.76111111111112,1.0948905109489049,0.01942972332333765,0.8849780088050287,33.333333333333336,0.923076923051361,1.080291970802908,0.0,0.9851391604612132,0
235,192.05277777777778,0.8222222222222229,0.8222222222222229,0.76111111111112,1.080291970802908,0.017091191461717194,0.7784634055868662,33.333333333333336,0.923076923051361,1.080291970802908,0.0,0.9439223016533972,0
236,192.875,0.8222222222222229,0.7166666666666686,0.76111111111112,1.080291970802908,0.0184893023360916,0.8421440538957571,33.333333333333336,0.923076923051361,0.9416058394160499,0.0,0.9728325126796135,0
237,193.59166666666667,0.7166666666666686,0.8666666666666742,0.76111111111112,0.9416058394160499,0.017803839105431988,0.810922822646953,33.333333333333336,0.923076923051361,1.1386861313868581,0.0,0.9648193326188285,0
238,194.45833333333334,0.8666666666666742,0.7972222222222172,0.76111111111112,1.1386861313868581,0.016601829152084257,0.7561741081451981,27.77777777777778,0.7692307692094675,1.0474452554744338,0.0,0.9696549778179984,0
239,195.25555555555556,0.7972222222222172,0.8333333333333428,0.76111111111112,1.0474452554744338,0.02463907603448963,1.1222517214955716,30.555555555555557,0.8461538461304142,1.0948905109489049,0.0,0.9649174530045166,0
240,196.0888888888889,0.8333333333333428,0.9055555555555372,0.76111111111112,1.0948905109489049,0.02011121623713925,0.9160184014979328,36.111111111111114,0.9999999999723078,1.1897810218977722,0.0,0.9910643547997924,0
241,196.99444444444444,0.9055555555555372,0.8000000000000114,0.76111111111112,1.1897810218977722,0.016882004370914697,0.7689354276529885,33.333333333333336,0.923076923051361,1.0510948905109516,0.0,0.9723656744443439,0
242,197.79444444444445,0.8000000000000114,0.7333333333333201,0.76111111111112,1.0510948905109516,0.019872702940739315,0.9051546841608976,36.111111111111114,0.9999999999723078,0.9635036496350079,0.0,0.9839694211352471,0
243,198.52777777777777,0.7333333333333201,0.8638888888889085,0.76111111111112,0.9635036496350079,0.025263330576327268,1.150685041529491,41.666666666666664,1.153846153814201,1.1350364963503774,0.0,0.961040051541324,0
244,199.39166666666668,0.8638888888889085,0.7638888888888857,0.76111111111112,1.1350364963503774,0.016411452458988923,0.7475028994010146,30.555555555555557,0.8461538461304142,1.0036496350364805,0.0,0.9726576915542438,0
245,200.15555555555557,0.7638888888888857,0.7888888888888914,0.76111111111112,1.0036496350364805,0.018833563024299164,0.8578243151784197,33.333333333333336,0.923076923051361,1.0364963503649547,0.0,0.9687825763792837,0
246,200.94444444444446,0.7888888888888914,0.8527777777777601,0.76111111111112,1.0364963503649547,0.027395566963468548,1.2478033731079652,41.666666666666664,1.153846153814201,1.1204379562043434,0.0,0.9849752840331153,0
247,201.79722222222222,0.8527777777777601,0.8138888888888971,0.76111111111112,1.1204379562043434,0.020459200681274242,0.931868271068428,36.111111111111114,0.9999999999723078,1.069343065693429,0.0,0.9570929628788599,0
248,202.61111111111111,0.8138888888888971,0.8055555555555429,0.76111111111112,1.069343065693429,0.023048966834119288,1.0498260028938016,36.111111111111114,0.9999999999723078,1.0583941605839127,0.0,0.9612831578335712,0
249,203.41666666666666,0.8055555555555429,0.8722222222222342,0.76111111111112,1.0583941605839127,0.022264212856986817,1.0140823126452456,41.666666666666664,1.153846153814201,1.1459854014598565,0.0,0.8441497770771577,0
250,204.2888888888889,0.8722222222222342,0.7249999999999943,0.76111111111112,1.1459854014598565,0.01996703108321375,0.9094511082690596,33.333333333333336,0.923076923051361,0.9525547445255289,0.0,0.9965722635592159,0
251,205.01388888888889,0.7249999999999943,0.8583333333333485,0.76111111111112,0.9525547445255289,0.02125328885319651,0.9680371118444207,36.111111111111114,0.9999999999723078,1.127737226277379,0.0,0.9820882605263898,0
252,205.87222222222223,0.8583333333333485,0.7777777777777715,0.76111111111112,1.127737226277379,0.019153280803766378,0.8723867049327096,30.555555555555557,0.8461538461304142,1.021897810218958,0.0,0.9689634614864155,0
253,206.65,0.7777777777777715,0.7472222222222058,0.76111111111112,1.021897810218958,0.02051655845109953,0.9344807820180054,33.333333333333336,0.923076923051361,0.9817518248174852,0.0,0.9566720518034346,0
254,207.3972222222222,0.7472222222222058,0.9416666666666913,0.76111111111112,0.9817518248174852,0.02287467177575387,1.0418872746304138,38.888888888888886,1.0769230768932543,1.2372262773722809,0.0,0.9760149088174088,0
255,208.3388888888889,0.9416666666666913,0.919444444444423,0.76111111111112,1.2372262773722809,0.022611172842353124,1.029885520538365,38.888888888888886,1.0769230768932543,1.2080291970802497,0.0,0.9950084969607731,0
256,209.25833333333333,0.919444444444423,0.8361111111111086,0.76111111111112,1.2080291970802497,0.01950295534271563,0.8883135543303761,36.111111111111114,0.9999999999723078,1.0985401459853854,0.0,0.9951899182262788,0
257,210.09444444444443,0.8361111111111086,0.7916666666666856,0.76111111111112,1.0985401459853854,0.01577771368355418,0.7186375949263426,27.77777777777778,0.7692307692094675,1.0401459854014727,0.0,0.9484979571568417,0
258,210.88611111111112,0.7916666666666856,0.7638888888888857,0.76111111111112,1.0401459854014727,0.025110454067660597,1.1437218776191542,36.111111111111114,0.9999999999723078,1.0036496350364805,0.0,0.9611347485878357,0
259,211.65,0.7638888888888857,0.7972222222222172,0.76111111111112,1.0036496350364805,0.01910760562819324,0.8703063085596957,33.333333333333336,0.923076923051361,1.0474452554744338,0.0,0.9772315072187838,0
260,212.44722222222222,0.7972222222222172,0.8222222222222229,0.76111111111112,1.0474452554744338,0.02598278534519654,1.1834545070634879,38.888888888888886,1.0769230768932543,1.080291970802908,0.0,0.9369771604812493,0
261,213.26944444444445,0.8222222222222229,0.8499999999999943,0.76111111111112,1.080291970802908,0.027036019238449567,1.2314268234030352,36.111111111111114,0.9999999999723078,1.1167883211678629,0.0,0.9822913246058407,0
262,214.11944444444444,0.8499999999999943,0.8611111111111143,0.76111111111112,1.1167883211678629,0.023131866962608206,1.0536019079552843,41.666666666666664,1.153846153814201,1.1313868613138596,0.0,0.9719860706823622,0
263,214.98055555555555,0.8611111111111143,0.7472222222222342,0.76111111111112,1.1313868613138596,0.018422582583855224,0.8391051267582208,30.555555555555557,0.8461538461304142,0.9817518248175227,0.0,0.9742137661956735,0
264,215.7277777777778,0.7472222222222342,0.8999999999999773,0.76111111111112,0.9817518248175227,0.021858706243321722,0.9956124441068933,36.111111111111114,0.9999999999723078,1.1824817518247739,0.0,0.9348844714316062,0
265,216.62777777777777,0.8999999999999773,0.76111111111112,0.76111111111112,1.1824817518247739,0.022925608211592577,1.044207308982628,36.111111111111114,0.9999999999723078,1.0,0.0,0.966662417159809,0
266,217.38888888888889,0.76111111111112,0.8277777777777828,0.76111111111112,1.0,0.024075259179890916,1.0965711953753585,36.111111111111114,0.9999999999723078,1.0875912408759063,0.0,0.9563161209525519,0
267,218.21666666666667,0.8277777777777828,0.88055555555556,0.76111111111112,1.0875912408759063,0.01764228300775767,0.8035643239565267,33.333333333333336,0.923076923051361,1.1569343065693354,0.0,0.967920129740274,0
268,219.09722222222223,0.88055555555556,0.8305555555555486,0.76111111111112,1.1569343065693354,0.015511027433284572,0.7064906660786324,36.111111111111114,0.9999999999723078,1.091240875912387,0.0,0.979158200625284,0
269,219.92777777777778,0.8305555555555486,0.9138888888888914,0.76111111111112,1.091240875912387,0.019400489507507546,0.8836464775375699,33.333333333333336,0.923076923051361,1.2007299270072886,0.0,0.9813476134301617,0
270,220.84166666666667,0.9138888888888914,0.7638888888888857,0.76111111111112,1.2007299270072886,0.020280279877836583,0.923718851041954,36.111111111111114,0.9999999999723078,1.0036496350364805,0.0,0.9955148825931764,0
271,221.60555555555555,0.7638888888888857,0.9083333333333314,0.76111111111112,1.0036496350364805,0.023022032934254127,1.048599227366669,30.555555555555557,0.8461538461304142,1.1934306569342903,0.0,0.9377723031123613,0
272,222.51388888888889,0.9083333333333314,0.7944444444444514,0.76111111111112,1.1934306569342903,0.018776147426906996,0.8552091703197463,25.0,0.6923076922885207,1.0437956204379533,0.0,0.8866496233663091,0
273,223.30833333333334,0.7944444444444514,0.7638888888888857,0.76111111111112,1.0437956204379533,0.01725977095680413,0.7861418034417753,33.333333333333336,0.923076923051361,1.0036496350364805,0.0,0.9674116016379579,0
274,224.07222222222222,0.7638888888888857,0.86944444444444,0.76111111111112,1.0036496350364805,0.016610054437211356,0.756548750456491,33.333333333333336,0.923076923051361,1.1423357664233387,0.0,0.96636287336587,0
275,224.94166666666666,0.86944444444444,0.7805555555555657,0.76111111111112,1.1423357664233387,0.01576829654005934,0.7182086662812966,27.77777777777778,0.7692307692094675,1.0255474452554758,0.0,0.9590121253238388,0
276,225.72222222222223,0.7805555555555657,0.9416666666666629,0.76111111111112,1.0255474452554758,0.02039318161009808,0.9288612582983355,36.111111111111114,0.9999999999723078,1.2372262773722433,0.0,0.9943811998506016,0
277,226.6638888888889,0.9416666666666629,0.8499999999999943,0.76111111111112,1.2372262773722433,0.021161317364358143,0.9638480277435036,33.333333333333336,0.923076923051361,1.1167883211678629,0.0,0.9925401103032372,0
278,227.51388888888889,0.8499999999999943,0.8222222222222229,0.76111111111112,1.1167883211678629,0.021094743944380184,0.9608157656947348,33.333333333333336,0.923076923051361,1.080291970802908,0.0,0.9485025349150256,0
279,228.3361111111111,0.8222222222222229,0.7249999999999943,0.76111111111112,1.080291970802908,0.023355017354209844,1.0637658812624327,41.666666666666664,1.153846153814201,0.9525547445255289,0.0,0.88552890566354,0
280,229.0611111111111,0.7249999999999943,0.88055555555556,0.76111111111112,0.9525547445255289,0.01893236987003587,0.8623247336425028,36.111111111111114,0.9999999999723078,1.1569343065693354,0.0,0.9853815141246062,0
281,229.94166666666666,0.88055555555556,0.825000000000017,0.76111111111112,1.1569343065693354,0.025419168563539478,1.1577830937932405,36.111111111111114,0.9999999999723078,1.0839416058394258,0.0,0.9840090973205491,0
282,230.76666666666668,0.825000000000017,0.8611111111110858,0.76111111111112,1.0839416058394258,0.017405012283629222,0.7927572028517855,27.77777777777778,0.7692307692094675,1.1313868613138223,0.0,0.963128444389133,0
283,231.62777777777777,0.8611111111110858,0.8583333333333485,0.76111111111112,1.1313868613138223,0.022135220163619233,1.0082070001136603,38.888888888888886,1.0769230768932543,1.127737226277379,0.0,0.9929267371258876,0
284,232.48611111111111,0.8583333333333485,0.86388888888888,0.76111111111112,1.127737226277379,0.02590096188190343,1.1797276415588365,36.111111111111114,0.9999999999723078,1.13503649635034,0.0,0.9744054899076029,0
285,233.35,0.86388888888888,0.7277777777777885,0.76111111111112,1.13503649635034,0.025397858389329613,1.15681246568775,47.22222222222222,1.3076923076560947,0.9562043795620468,0.0,0.9815254347008857,0
286,234.07777777777778,0.7277777777777885,0.875,0.76111111111112,0.9562043795620468,0.019563161041211686,0.8910557817047493,36.111111111111114,0.9999999999723078,1.149635036496337,0.0,0.9832072448265475,0
287,234.95277777777778,0.875,0.75,0.76111111111112,1.149635036496337,0.027490679895589145,1.2521355425310157,38.888888888888886,1.0769230768932543,0.9854014598540032,0.0,0.9891891604361769,0
288,235.70277777777778,0.75,0.8333333333333144,0.76111111111112,0.9854014598540032,0.02610801382135095,1.1891583683912352,36.111111111111114,0.9999999999723078,1.0948905109488676,0.0,0.973087597833862,0
289,236.5361111111111,0.8333333333333144,0.8333333333333428,0.76111111111112,1.0948905109488676,0.018211950731230005,0.8295113433355158,33.333333333333336,0.923076923051361,1.0948905109489049,0.0,0.9536520844931967,0
290,237.36944444444444,0.8333333333333428,0.7638888888888857,0.76111111111112,1.0948905109489049,0.02026179850792243,0.922877068291143,36.111111111111114,0.9999999999723078,1.0036496350364805,0.0,0.9777159181087489,0
291,238.13333333333333,0.7638888888888857,0.9305555555555713,0.76111111111112,1.0036496350364805,0.021739324403972655,0.9901748832772072,36.111111111111114,0.9999999999723078,1.222627737226284,0.0,0.9893433397151212,0
292,239.0638888888889,0.9305555555555713,0.8055555555555429,0.76111111111112,1.222627737226284,0.017523786605714686,0.7981670927049317,30.555555555555557,0.8461538461304142,1.0583941605839127,0.0,0.9863689870317968,0
293,239.86944444444444,0.8055555555555429,0.7694444444444457,0.76111111111112,1.0583941605839127,0.022316574269723492,1.0164672513296922,36.111111111111114,0.9999999999723078,1.0109489051094789,0.0,0.9799751692999324,0
294,240.63888888888889,0.7694444444444457,0.875,0.76111111111112,1.0109489051094789,0.020687224393614183,0.9422542126255343,36.111111111111114,0.9999999999723078,1.149635036496337,0.0,0.97897855692532,0
295,241.51388888888889,0.875,0.7472222222222342,0.76111111111112,1.149635036496337,0.018373676387138094,0.8368775650030327,30.555555555555557,0.8461538461304142,0.9817518248175227,0.0,0.9707916497333233,0
296,242.26111111111112,0.7472222222222342,0.7972222222222172,0.76111111111112,0.9817518248175227,0.02222740369935725,1.01240574245005,38.888888888888886,1.0769230768932543,1.0474452554744338,0.0,0.9698242972860651,0
297,243.05833333333334,0.7972222222222172,0.9027777777777715,0.76111111111112,1.0474452554744338,0.022362223909323853,1.0185464845994563,36.111111111111114,0.9999999999723078,1.1861313868612917,0.0,0.9799941892249358,0
298,243.9611111111111,0.9027777777777715,0.8388888888889028,0.76111111111112,1.1861313868612917,0.017887485275845254,0.8147327081561092,30.555555555555557,0.8461538461304142,1.1021897810219032,0.0,0.9661947699279314,0
299,244.8,0.8388888888889028,0.7416666666666458,0.76111111111112,1.1021897810219032,0.023230732034625813,1.0581049784889454,41.666666666666664,1.153846153814201,0.9744525547444869,0.0,0.9823610291581075,0
300,245.54166666666666,0.7416666666666458,0.8944444444444457,0.76111111111112,0.9744525547444869,0.021183150469736876,0.964842474128692,36.111111111111114,0.9999999999723078,1.1751824817518128,0.0,0.972644117517665,0
301,246.4361111111111,0.8944444444444457,0.8361111111111086,0.76111111111112,1.1751824817518128,0.020594901211257722,0.9380491097154878,33.333333333333336,0.923076923051361,1.0985401459853854,0.0,0.9887565217878336,0
302,247.2722222222222,0.8361111111111086,0.7361111111111143,0.76111111111112,1.0985401459853854,0.020926580449579433,0.9531563156703636,36.111111111111114,0.9999999999723078,0.9671532846715257,0.0,0.9938258753350989,0
303,248.00833333333333,0.7361111111111143,0.8555555555555543,0.76111111111112,0.9671532846715257,0.02004265439271262,0.9128955714117317,33.333333333333336,0.923076923051361,1.1240875912408612,0.0,0.9586484278106362,0
304,248.86388888888888,0.8555555555555543,0.8444444444444628,0.76111111111112,1.1240875912408612,0.01766582620918501,0.8046366611778721,30.555555555555557,0.8461538461304142,1.1094890510949016,0.0,0.9846064094233815,0
305,249.70833333333334,0.8444444444444628,0.8472222222222001,0.76111111111112,1.1094890510949016,0.020916295075355747,0.9526878411661818,33.333333333333336,0.923076923051361,1.1131386861313448,0.0,0.9713618410407527,0
306,250.55555555555554,0.8472222222222001,0.8694444444444684,0.76111111111112,1.1131386861313448,0.0211720712479324,0.9643378417420919,36.111111111111114,0.9999999999723078,1.142335766423376,0.0,0.9760488821496296,0
307,251.425,0.8694444444444684,0.7805555555555372,0.76111111111112,1.142335766423376,0.019075996293100278,0.8688665780002481,33.333333333333336,0.923076923051361,1.0255474452554385,0.0,0.9876079352752148,0
308,252.20555555555555,0.7805555555555372,0.74444444444444,0.76111111111112,1.0255474452554385,0.020967468369737684,0.9550186638656345,36.111111111111114,0.9999999999723078,0.9781021897810047,0.0,0.965320706832725,0
309,252.95,0.74444444444444,0.8777777777777942,0.76111111111112,0.9781021897810047,0.021060979650519396,0.9592778818529337,36.111111111111114,0.9999999999723078,1.1532846715328549,0.0,0.9589689349234568,0
310,253.82777777777778,0.8777777777777942,0.7583333333333258,0.76111111111112,1.1532846715328549,0.021195201264971333,0.9653913593903929,33.333333333333336,0.923076923051361,0.9963503649634822,0.0,0.992595433560056,0
311,254.5861111111111,0.7583333333333258,0.8194444444444571,0.76111111111112,0.9963503649634822,0.017752471638843324,0.8085831558620744,27.77777777777778,0.7692307692094675,1.0766423357664274,0.0,0.9144576912978979,0
312,255.40555555555557,0.8194444444444571,0.8388888888889028,0.76111111111112,1.0766423357664274,0.022228102139993777,1.0124375547714863,36.111111111111114,0.9999999999723078,1.1021897810219032,0.0,0.9728210149581343,0
313,256.24444444444447,0.8388888888889028,0.8361111111111086,0.76111111111112,1.1021897810219032,0.020241369777697037,0.9219465878773757,33.333333333333336,0.923076923051361,1.0985401459853854,0.0,0.9696581747365107,0
314,257.0805555555556,0.8361111111111086,0.7916666666666288,0.76111111111112,1.0985401459853854,0.015526259163955938,0.7071844354368408,27.77777777777778,0.7692307692094675,1.040145985401398,0.0,0.8738576622775489,0
315,257.8722222222222,0.7916666666666288,0.7416666666666742,0.76111111111112,1.040145985401398,0.023133463846179734,1.0536746422304928,38.888888888888886,1.0769230768932543,0.9744525547445242,0.0,0.9824256409482828,0
316,258.6138888888889,0.7416666666666742,0.8583333333333485,0.76111111111112,0.9744525547445242,0.020594363009462886,0.9380245958948429,33.333333333333336,0.923076923051361,1.127737226277379,0.0,0.9690232189593577,0
317,259.47222222222223,0.8583333333333485,0.73888888888888,0.76111111111112,1.127737226277379,0.016730860545041852,0.762051183351709,27.77777777777778,0.7692307692094675,0.9708029197080063,0.0,0.9693541240555597,0
318,260.2111111111111,0.73888888888888,0.7916666666666856,0.76111111111112,0.9708029197080063,0.01982765448739815,0.9031028335053751,33.333333333333336,0.923076923051361,1.0401459854014727,0.0,0.9537606781665049,0
319,261.0027777777778,0.7916666666666856,0.8333333333333144,0.76111111111112,1.0401459854014727,0.021464478996549238,0.9776563240912084,36.111111111111114,0.9999999999723078,1.0948905109488676,0.0,0.9648002604114865,0
320,261.8361111111111,0.8333333333333144,0.7888888888888914,0.76111111111112,1.0948905109488676,0.019344277396706144,0.8810861486507452,30.555555555555557,0.8461538461304142,1.0364963503649547,0.0,0.9283366003109691,0
321,262.625,0.7888888888888914,0.86388888888888,0.76111111111112,1.0364963503649547,0.023472695509507802,1.0691258433073036,36.111111111111114,0.9999999999723078,1.13503649635034,0.0,0.9831072489178264,0
322,263.4888888888889,0.86388888888888,0.8055555555555429,0.76111111111112,1.13503649635034,0.021186512934174787,0.9649956264424651,36.111111111111114,0.9999999999723078,1.0583941605839127,0.0,0.9422160644549497,0
323,264.2944444444444,0.8055555555555429,0.7638888888889142,0.76111111111112,1.0583941605839127,0.022192353030586826,1.010809267269239,36.111111111111114,0.9999999999723078,1.0036496350365178,0.0,0.9683892348713339,0
324,265.05833333333334,0.7638888888889142,0.783333333333303,0.76111111111112,1.0036496350365178,0.020123092298585537,0.9165593280482639,33.333333333333336,0.923076923051361,1.029197080291919,0.0,0.9361986843354488,0
325,265.84166666666664,0.783333333333303,0.7416666666666742,0.76111111111112,1.029197080291919,0.021812302906945316,0.9934988817290401,36.111111111111114,0.9999999999723078,0.9744525547445242,0.0,0.9506440483824267,0
326,266.5833333333333,0.7416666666666742,0.8361111111111086,0.76111111111112,0.9744525547445242,0.023191667422725177,1.056325677678571,38.888888888888886,1.0769230768932543,1.0985401459853854,0.0,0.9655526124325042,0
327,267.4194444444444,0.8361111111111086,0.8333333333333712,0.76111111111112,1.0985401459853854,0.022500326173369944,1.0248367165607204,38.888888888888886,1.0769230768932543,1.0948905109489422,0.0,0.9845606595822525,0
328,268.2527777777778,0.8333333333333712,0.7583333333333258,0.76111111111112,1.0948905109489422,0.02213459970377645,1.0081787396332063,38.888888888888886,1.0769230768932543,0.9963503649634822,0.0,0.9730707949485302,0
329,269.0111111111111,0.7583333333333258,0.875,0.76111111111112,0.9963503649634822,0.022818687211163216,1.0393373099360765,38.888888888888886,1.0769230768932543,1.149635036496337,0.0,0.9866997557952983,0
330,269.8861111111111,0.875,0.8138888888888687,0.76111111111112,1.149635036496337,0.021801191422455624,0.9929927798533256,36.111111111111114,0.9999999999723078,1.0693430656933918,0.0,0.9945862233168075,0
331,270.7,0.8138888888888687,0.7361111111111427,0.76111111111112,1.0693430656933918,0.02250894323591568,1.0252292034081432,36.111111111111114,0.9999999999723078,0.9671532846715631,0.0,0.9833444413215643,0
332,271.43611111111113,0.7361111111111427,0.8694444444444116,0.76111111111112,0.9671532846715631,0.02092483727051914,0.9530769179811586,36.111111111111114,0.9999999999723078,1.1423357664233011,0.0,0.9604773387064585,0
333,272.30555555555554,0.8694444444444116,0.7527777777777942,0.76111111111112,1.1423357664233011,0.022197299626936517,1.0110345730502355,33.333333333333336,0.923076923051361,0.989051094890521,0.0,0.9887905791931186,0
334,273.05833333333334,0.7527777777777942,0.8444444444444343,0.76111111111112,0.989051094890521,0.02032618213702366,0.9258095905372632,25.0,0.6923076922885207,1.1094890510948643,0.0,0.9052097081247943,0
335,273.90277777777777,0.8444444444444343,0.8472222222222285,0.76111111111112,1.1094890510948643,0.023044502670686307,1.0496226707927645,38.888888888888886,1.0769230768932543,1.1131386861313823,0.0,0.9794485140422566,0
336,274.75,0.8472222222222285,0.830555555555577,0.76111111111112,1.1131386861313823,0.020294989083344473,0.9243888206130513,36.111111111111114,0.9999999999723078,1.0912408759124244,0.0,0.9836567363220232,0
337,275.5805555555556,0.830555555555577,0.7722222222221831,0.76111111111112,1.0912408759124244,0.01632767236920036,0.7436869141806005,27.77777777777778,0.7692307692094675,1.014598540145922,0.0,0.9256596377016157,0
338,276.35277777777776,0.7722222222221831,0.8111111111111313,0.76111111111112,1.014598540145922,0.025500631651037338,1.1614935450315438,36.111111111111114,0.9999999999723078,1.0656934306569485,0.0,0.9707469189237627,0
339,277.1638888888889,0.8111111111111313,0.8055555555555429,0.76111111111112,1.0656934306569485,0.02436894334259973,1.109947815371766,36.111111111111114,0.9999999999723078,1.0583941605839127,0.0,0.9603181340211944,0
340,277.96944444444443,0.8055555555555429,0.716666666666697,0.76111111111112,1.0583941605839127,0.02158889694908393,0.9833232679823495,44.44444444444444,1.2307692307351479,0.9416058394160873,0.0,0.8854297248535058,0
341,278.68611111111113,0.716666666666697,0.9166666666666288,0.76111111111112,0.9416058394160873,0.024971696492648916,1.1374017977911024,36.111111111111114,0.9999999999723078,1.2043795620437319,0.0,0.9744598292298287,0
342,279.60277777777776,0.9166666666666288,0.8666666666666742,0.76111111111112,1.2043795620437319,0.020559111164871403,0.936418957630514,38.888888888888886,1.0769230768932543,1.1386861313868581,0.0,0.9915425613993607,0
343,280.46944444444443,0.8666666666666742,0.7805555555555657,0.76111111111112,1.1386861313868581,0.020407909293360362,0.9295320694875052,27.77777777777778,0.7692307692094675,1.0255474452554758,0.0,0.9027238266169527,0
344,281.25,0.7805555555555657,0.8138888888888687,0.76111111111112,1.0255474452554758,0.02443594968510888,1.1129997960193663,36.111111111111114,0.9999999999723078,1.0693430656933918,0.0,0.9747851305027231,0
345,282.06388888888887,0.8138888888888687,0.7888888888888914,0.76111111111112,1.0693430656933918,0.019014072544274035,0.8660460974909777,33.333333333333336,0.923076923051361,1.0364963503649547,0.0,0.9807749108829593,0
346,282.85277777777776,0.7888888888888914,0.7777777777777715,0.76111111111112,1.0364963503649547,0.018218064644223996,0.8297898176327246,33.333333333333336,0.923076923051361,1.021897810218958,0.0,0.9693516070383852,0
347,283.63055555555553,0.7777777777777715,0.7916666666666856,0.76111111111112,1.021897810218958,0.0246685791061993,1.1235955167324236,44.44444444444444,1.2307692307351479,1.0401459854014727,0.0,0.9613781707752036,0
348,284.4222222222222,0.7916666666666856,0.8249999999999886,0.76111111111112,1.0401459854014727,0.02097352357146877,0.9552944640034805,36.111111111111114,0.9999999999723078,1.0839416058393885,0.0,0.8408735032257961,0
349,285.2472222222222,0.8249999999999886,0.8333333333333712,0.76111111111112,1.0839416058393885,0.020094124543902747,0.9152399152376894,36.111111111111114,0.9999999999723078,1.0948905109489422,0.0,0.9860462315493304,0
350,286.0805555555556,0.8333333333333712,0.9138888888888914,0.76111111111112,1.0948905109489422,0.01943547636390682,0.8852400462155854,33.333333333333336,0.923076923051361,1.2007299270072886,0.0,0.9925079061815067,0
351,286.99444444444447,0.9138888888888914,0.73888888888888,0.76111111111112,1.2007299270072886,0.02180983795976433,0.9933866092065889,38.888888888888886,1.0769230768932543,0.9708029197080063,0.0,0.9695456363046018,0
352,287.73333333333335,0.73888888888888,0.88611111111112,0.76111111111112,0.9708029197080063,0.02425093679157856,1.1045728956772982,36.111111111111114,0.9999999999723078,1.164233576642334,0.0,0.9832576059397758,0
353,288.61944444444447,0.88611111111112,0.7999999999999545,0.76111111111112,1.164233576642334,0.02488592775840604,1.133495234512519,36.111111111111114,0.9999999999723078,1.051094890510877,0.0,0.9778951274240582,0
354,289.4194444444444,0.7999999999999545,0.7944444444444798,0.76111111111112,1.051094890510877,0.015937841604243084,0.7259310435281116,27.77777777777778,0.7692307692094675,1.0437956204379906,0.0,0.9372321911878363,0
355,290.2138888888889,0.7944444444444798,0.8805555555555316,0.76111111111112,1.0437956204379906,0.017258773569523492,0.7860963748067434,30.555555555555557,0.8461538461304142,1.156934306569298,0.0,0.9579498319820035,0
356,291.09444444444443,0.8805555555555316,0.8444444444444343,0.76111111111112,1.156934306569298,0.02038172994286516,0.9283396619021009,33.333333333333336,0.923076923051361,1.1094890510948643,0.0,0.9526229154025663,0
357,291.93888888888887,0.8444444444444343,0.8083333333333371,0.76111111111112,1.1094890510948643,0.02075971621066155,0.9455560436829114,36.111111111111114,0.9999999999723078,1.0620437956204305,0.0,0.9919310526177663,0
358,292.7472222222222,0.8083333333333371,0.8972222222222399,0.76111111111112,1.0620437956204305,0.018998687546692653,0.8653453471869995,30.555555555555557,0.8461538461304142,1.1788321167883307,0.0,0.9842107173959778,0
359,293.64444444444445,0.8972222222222399,0.8416666666666401,0.76111111111112,1.1788321167883307,0.020654143841455763,0.9407474716034341,41.666666666666664,1.153846153814201,1.1058394160583465,0.0,0.9453715170727794,0
360,294.4861111111111,0.8416666666666401,0.7361111111111427,0.76111111111112,1.1058394160583465,0.016356379692614168,0.7449944649619521,27.77777777777778,0.7692307692094675,0.9671532846715631,0.0,0.9424543332961686,0
361,295.22222222222223,0.7361111111111427,0.875,0.76111111111112,0.9671532846715631,0.017796731037287898,0.8105990669306248,30.555555555555557,0.8461538461304142,1.149635036496337,0.0,0.9733232776547827,0
362,296.09722222222223,0.875,0.8222222222221944,0.76111111111112,1.149635036496337,0.01610667919636835,0.7336211970935503,30.555555555555557,0.8461538461304142,1.0802919708028706,0.0,0.9637677669751528,0
363,296.9194444444444,0.8222222222221944,0.8333333333333712,0.76111111111112,1.0802919708028706,0.020526029565133337,0.934912168893635,38.888888888888886,1.0769230768932543,1.0948905109489422,0.0,0.988147675891341,0
364,297.7527777777778,0.8333333333333712,0.9222222222222172,0.76111111111112,1.0948905109489422,0.018741042702675022,0.8536102330403283,33.333333333333336,0.923076923051361,1.2116788321167675,0.0,0.9883369501052717,0
365,298.675,0.9222222222222172,0.7527777777777942,0.76111111111112,1.2116788321167675,0.02073798782887418,0.9445663672099763,36.111111111111114,0.9999999999723078,0.989051094890521,0.0,0.947597611351684,0
366,299.4277777777778,0.7527777777777942,0.8194444444444002,0.76111111111112,0.989051094890521,0.01767218607710959,0.80492633814128,30.555555555555557,0.8461538461304142,1.0766423357663528,0.0,0.9350624420873239,0
367,300.2472222222222,0.8194444444444002,0.86388888888888,0.76111111111112,1.0766423357663528,0.02597498966598303,1.1830994322869282,36.111111111111114,0.9999999999723078,1.13503649635034,0.0,0.9791115681780918,0
368,301.1111111111111,0.86388888888888,0.7388888888889369,0.76111111111112,1.13503649635034,0.021956195892422963,1.000052867375149,44.44444444444444,1.2307692307351479,0.970802919708081,0.0,0.8727108927616991,0
369,301.85,0.7388888888889369,0.8499999999999659,0.76111111111112,0.970802919708081,0.024504327044861135,1.11611422326436,41.666666666666664,1.153846153814201,1.1167883211678253,0.0,0.9664664495841188,0
370,302.7,0.8499999999999659,0.8388888888889028,0.76111111111112,1.1167883211678253,0.023011109973316145,1.0481017122934853,33.333333333333336,0.923076923051361,1.1021897810219032,0.0,0.9656920264627302,0
371,303.5388888888889,0.8388888888889028,0.7694444444444457,0.76111111111112,1.1021897810219032,0.025216065314647543,1.1485322204897426,41.666666666666664,1.153846153814201,1.0109489051094789,0.0,0.9707738147266073,0
372,304.30833333333334,0.7694444444444457,0.8999999999999773,0.76111111111112,1.0109489051094789,0.02271127921078898,1.0344451291922185,33.333333333333336,0.923076923051361,1.1824817518247739,0.0,0.9515819507848586,0
373,305.2083333333333,0.8999999999999773,0.8027777777778056,0.76111111111112,1.1824817518247739,0.01907615680610697,0.8688738889886078,33.333333333333336,0.923076923051361,1.0547445255474694,0.0,0.9495561880439658,0
374,306.0111111111111,0.8027777777778056,0.8027777777777487,0.76111111111112,1.0547445255474694,0.017880118975311644,0.8143971905643244,30.555555555555557,0.8461538461304142,1.0547445255473948,0.0,0.9735220168677285,0
375,306.81388888888887,0.8027777777777487,0.7916666666666856,0.76111111111112,1.0547445255473948,0.01699721360624429,0.7741829362243261,30.555555555555557,0.8461538461304142,1.0401459854014727,0.0,0.9486510353808688,0
376,307.60555555555555,0.7916666666666856,0.705555555555577,0.76111111111112,1.0401459854014727,0.017980016067074837,0.8189472671600015,27.77777777777778,0.7692307692094675,0.9270072992700904,0.0,0.9420876218241416,0
377,308.31111111111113,0.705555555555577,0.875,0.76111111111112,0.9270072992700904,0.02347842302278765,1.0693867180101213,38.888888888888886,1.0769230768932543,1.149635036496337,0.0,0.938233306710232,0
378,309.18611111111113,0.875,0.8277777777777828,0.76111111111112,1.149635036496337,0.02119999135913679,0.9656095368665201,38.888888888888886,1.0769230768932543,1.0875912408759063,0.0,0.9459049814223073,0
379,310.0138888888889,0.8277777777777828,0.8166666666666629,0.76111111111112,1.0875912408759063,0.019944233612348115,0.9084127373135541,36.111111111111114,0.9999999999723078,1.0729927007299096,0.0,0.9826599639371227,0
380,310.8305555555556,0.8166666666666629,0.8277777777777828,0.76111111111112,1.0729927007299096,0.01977793328527595,0.900838150178843,33.333333333333336,0.923076923051361,1.0875912408759063,0.0,0.9867451973981085,0
381,311.65833333333336,0.8277777777777828,0.7999999999999545,0.76111111111112,1.0875912408759063,0.01705836873947013,0.7769684081082927,30.555555555555557,0.8461538461304142,1.051094890510877,0.0,0.9713465649827651,0
382,312.4583333333333,0.7999999999999545,0.7722222222222399,0.76111111111112,1.051094890510877,0.01987169417196122,0.905108737125537,36.111111111111114,0.9999999999723078,1.014598540145997,0.0,0.9773414643938694,0
383,313.23055555555555,0.7722222222222399,0.794444444444423,0.76111111111112,1.014598540145997,0.016835861853396784,0.766833744958145,30.555555555555557,0.8461538461304142,1.043795620437916,0.0,0.9561520338326479,0
384,314.025,0.794444444444423,0.7972222222222172,0.76111111111112,1.043795620437916,0.016561791513616936,0.754350488272778,33.333333333333336,0.923076923051361,1.0474452554744338,0.0,0.9551004477922092,0
385,314.8222222222222,0.7972222222222172,0.7833333333333599,0.76111111111112,1.0474452554744338,0.021007962431283906,0.9568630727313314,38.888888888888886,1.0769230768932543,1.0291970802919936,0.0,0.9864235697826109,0
386,315.60555555555555,0.7833333333333599,0.9305555555555429,0.76111111111112,1.0291970802919936,0.01881911131383288,0.857166073898323,33.333333333333336,0.923076923051361,1.2226277372262466,0.0,0.982780300965193,0
387,316.5361111111111,0.9305555555555429,0.7861111111110972,0.76111111111112,1.2226277372262466,0.01544797705114729,0.7036188700828949,30.555555555555557,0.8461538461304142,1.0328467153284369,0.0,0.9806001268825439,0
388,317.3222222222222,0.7861111111110972,0.8194444444444571,0.76111111111112,1.0328467153284369,0.016997458420166086,0.7741940869202693,33.333333333333336,0.923076923051361,1.0766423357664274,0.0,0.9670087476738761,0
389,318.14166666666665,0.8194444444444571,0.8027777777778056,0.76111111111112,1.0766423357664274,0.02602256351763085,1.1852663088709041,44.44444444444444,1.2307692307351479,1.0547445255474694,0.0,0.9825541090017682,0
390,318.94444444444446,0.8027777777778056,0.8083333333333371,0.76111111111112,1.0547445255474694,0.024753738089975583,1.1274743073173454,33.333333333333336,0.923076923051361,1.0620437956204305,0.0,0.9190536843586838,0
391,319.7527777777778,0.8083333333333371,0.7194444444444343,0.76111111111112,1.0620437956204305,0.017733483511485005,0.8077182915065271,33.333333333333336,0.923076923051361,0.9452554744525304,0.0,0.9726899703922739,0
392,320.47222222222223,0.7194444444444343,0.9499999999999886,0.76111111111112,0.9452554744525304,0.020232386577445215,0.9215374243221743,36.111111111111114,0.9999999999723078,1.2481751824817224,0.0,0.976861431020195,0
393,321.4222222222222,0.9499999999999886,0.9138888888888914,0.76111111111112,1.2481751824817224,0.023639495894139252,1.0767232068828185,30.555555555555557,0.8461538461304142,1.2007299270072886,0.0,0.9314190815763028,0
394,322.3361111111111,0.9138888888888914,0.88611111111112,0.76111111111112,1.2007299270072886,0.017954846422737345,0.8178008493053855,33.333333333333336,0.923076923051361,1.164233576642334,0.0,0.9921300419420083,0
395,323.22222222222223,0.88611111111112,0.8888888888888573,0.76111111111112,1.164233576642334,0.023846242235572888,1.0861400144474376,36.111111111111114,0.9999999999723078,1.167883211678777,0.0,0.9905126044249157,0
396,324.1111111111111,0.8888888888888573,0.8666666666666742,0.76111111111112,1.167883211678777,0.015022602601178029,0.6842440685241836,27.77777777777778,0.7692307692094675,1.1386861313868581,0.0,0.970440526971561,0
397,324.97777777777776,0.8666666666666742,0.8333333333333712,0.76111111111112,1.1386861313868581,0.02397068564304404,1.0918081177508157,36.111111111111114,0.9999999999723078,1.0948905109489422,0.0,0.9936758070243548,0
398,325.81111111111113,0.8333333333333712,0.8027777777777487,0.76111111111112,1.0948905109489422,0.018496591678454608,0.8424760662246287,33.333333333333336,0.923076923051361,1.0547445255473948,0.0,0.9950823236074139,0
399,326.6138888888889,0.8027777777777487,0.8694444444444684,0.76111111111112,1.0547445255473948,0.02066801224558161,0.9413791446573604,36.111111111111114,0.9999999999723078,1.142335766423376,0.0,0.9051754329210681,0
400,327.48333333333335,0.8694444444444684,0.783333333333303,0.76111111111112,1.142335766423376,0.020701970468380192,0.9429258615042622,36.111111111111114,0.9999999999723078,1.029197080291919,0.0,0.9814108539486279,0
401,328.26666666666665,0.783333333333303,0.9583333333333712,0.76111111111112,1.029197080291919,0.01934950085642023,0.8813240649041018,33.333333333333336,0.923076923051361,1.2591240875912761,0.0,0.9943572232130284,0
402,329.225,0.9583333333333712,0.8888888888888573,0.76111111111112,1.2591240875912761,0.01472676971188821,0.6707695791068136,25.0,0.6923076922885207,1.167883211678777,0.0,0.9605897254253706,0
403,330.1138888888889,0.8888888888888573,0.8333333333333144,0.76111111111112,1.167883211678777,0.020002907941774745,0.9110852144435593,38.888888888888886,1.0769230768932543,1.0948905109488676,0.0,0.9954536870192969,0
404,330.9472222222222,0.8333333333333144,0.8111111111111313,0.76111111111112,1.0948905109488676,0.01827806817714854,0.8325228368427845,33.333333333333336,0.923076923051361,1.0656934306569485,0.0,0.9937848795936128,0
405,331.7583333333333,0.8111111111111313,0.8222222222222513,0.76111111111112,1.0656934306569485,0.023106028058620262,1.052425006904229,44.44444444444444,1.2307692307351479,1.0802919708029453,0.0,0.9766290096890384,0
406,332.5805555555556,0.8222222222222513,0.9166666666666288,0.76111111111112,1.0802919708029453,0.018717574948219056,0.8525413322503402,27.77777777777778,0.7692307692094675,1.2043795620437319,0.0,0.9661611121412388,0
407,333.4972222222222,0.9166666666666288,0.8777777777777942,0.76111111111112,1.2043795620437319,0.02052925049994403,0.935058874867149,36.111111111111114,0.9999999999723078,1.1532846715328549,0.0,0.9973148664862039,0
408,334.375,0.8777777777777942,0.8555555555555543,0.76111111111112,1.1532846715328549,0.022942454732355705,1.0449746282157506,36.111111111111114,0.9999999999723078,1.1240875912408612,0.0,0.9851258185797342,0
409,335.23055555555555,0.8555555555555543,0.7305555555555543,0.76111111111112,1.1240875912408612,0.01867041517940407,0.8503933161614307,30.555555555555557,0.8461538461304142,0.9598540145985274,0.0,0.9761201893775123,0
410,335.9611111111111,0.7305555555555543,0.8777777777777942,0.76111111111112,0.9598540145985274,0.018596941359311763,0.8470467571846237,33.333333333333336,0.923076923051361,1.1532846715328549,0.0,0.9859068176165908,0
411,336.8388888888889,0.8777777777777942,0.8555555555555543,0.76111111111112,1.1532846715328549,0.018104836687550963,0.8246325516248653,33.333333333333336,0.923076923051361,1.1240875912408612,0.0,0.9889278719276368,0
412,337.69444444444446,0.8555555555555543,0.7222222222222285,0.76111111111112,1.1240875912408612,0.017846928580311554,0.8128854464602098,25.0,0.6923076922885207,0.9489051094890484,0.0,0.9563354522198935,0
413,338.4166666666667,0.7222222222222285,0.88611111111112,0.76111111111112,0.9489051094890484,0.023884464853499713,1.0878809644209027,38.888888888888886,1.0769230768932543,1.164233576642334,0.0,0.946043452995607,0
414,339.3027777777778,0.88611111111112,0.8444444444444343,0.76111111111112,1.164233576642334,0.017793489411900006,0.8104514185501858,33.333333333333336,0.923076923051361,1.1094890510948643,0.0,0.9941238653180942,0
415,340.14722222222224,0.8444444444444343,0.8222222222221944,0.76111111111112,1.1094890510948643,0.019196309128377286,0.874346543495652,30.555555555555557,0.8461538461304142,1.0802919708028706,0.0,0.976756986441166,0
416,340.96944444444443,0.8222222222221944,0.8805555555555884,0.76111111111112,1.0802919708028706,0.024811539656144244,1.1301070321422177,41.666666666666664,1.153846153814201,1.1569343065693727,0.0,0.9775276813467373,0
417,341.85,0.8805555555555884,0.8222222222221944,0.76111111111112,1.1569343065693727,0.022933279973963223,1.044556739639659,36.111111111111114,0.9999999999723078,1.0802919708028706,0.0,0.9849565704020704,0
418,342.6722222222222,0.8222222222221944,0.7333333333333485,0.76111111111112,1.0802919708028706,0.025210653044167017,1.1482857043519026,36.111111111111114,0.9999999999723078,0.9635036496350452,0.0,0.9727621168413838,0
419,343.40555555555557,0.7333333333333485,0.8611111111110858,0.76111111111112,0.9635036496350452,0.016593233665056002,0.7557826040116402,30.555555555555557,0.8461538461304142,1.1313868613138223,0.0,0.9467746998653489,0
420,344.26666666666665,0.8611111111110858,0.7444444444444684,0.76111111111112,1.1313868613138223,0.015362514584355369,0.6997262565633686,30.555555555555557,0.8461538461304142,0.978102189781042,0.0,0.9415315472066726,0
421,345.0111111111111,0.7444444444444684,0.9499999999999886,0.76111111111112,0.978102189781042,0.018323510633672352,0.8345926334127309,33.333333333333336,0.923076923051361,1.2481751824817224,0.0,0.9906520446206548,0
422,345.9611111111111,0.9499999999999886,0.7972222222222172,0.76111111111112,1.2481751824817224,0.02122305984245165,0.966660251799018,38.888888888888886,1.0769230768932543,1.0474452554744338,0.0,0.9960602624673423,0
423,346.7583333333333,0.7972222222222172,0.8972222222222399,0.76111111111112,1.0474452554744338,0.015894403692346744,0.7239525492316695,27.77777777777778,0.7692307692094675,1.1788321167883307,0.0,0.9522361370192058,0
424,347.65555555555557,0.8972222222222399,0.7583333333333258,0.76111111111112,1.1788321167883307,0.02525597521253252,1.150350022080331,36.111111111111114,0.9999999999723078,0.9963503649634822,0.0,0.9819216240917805,0
425,348.4138888888889,0.7583333333333258,0.8527777777777601,0.76111111111112,0.9963503649634822,0.024072878412238905,1.0964627570316394,38.888888888888886,1.0769230768932543,1.1204379562043434,0.0,0.969640798980939,0
426,349.26666666666665,0.8527777777777601,0.75,0.76111111111112,1.1204379562043434,0.016817440598530225,0.7659947003057739,30.555555555555557,0.8461538461304142,0.9854014598540032,0.0,0.9539334931297102,0
427,350.01666666666665,0.75,0.8166666666666629,0.76111111111112,0.9854014598540032,0.024695045760383512,1.1248010103223165,41.666666666666664,1.153846153814201,1.0729927007299096,0.0,0.9618036906052594,0
428,350.8333333333333,0.8166666666666629,0.8500000000000227,0.76111111111112,1.0729927007299096,0.020705675365107465,0.9430946108000687,36.111111111111114,0.9999999999723078,1.1167883211679002,0.0,0.9955821434377194,0
429,351.68333333333334,0.8500000000000227,0.7916666666666856,0.76111111111112,1.1167883211679002,0.016965788513242614,0.7727515974569988,27.77777777777778,0.7692307692094675,1.0401459854014727,0.0,0.9638139295761965,0
430,352.475,0.7916666666666856,0.8361111111111086,0.76111111111112,1.0401459854014727,0.019224406353930402,0.8756263057603609,33.333333333333336,0.923076923051361,1.0985401459853854,0.0,0.9789456130773546,0
431,353.31111111111113,0.8361111111111086,0.7916666666666288,0.76111111111112,1.0985401459853854,0.02398903712270931,1.0926439843075613,36.111111111111114,0.9999999999723078,1.040145985401398,0.0,0.9447249857283406,0
432,354.10277777777776,0.7916666666666288,0.73888888888888,0.76111111111112,1.040145985401398,0.02523206712938349,1.14926106535833,30.555555555555557,0.8461538461304142,0.9708029197080063,0.0,0.9566733773577866,0
433,354.84166666666664,0.73888888888888,0.8611111111111427,0.76111111111112,0.9708029197080063,0.019089169416530525,0.8694665826605842,33.333333333333336,0.923076923051361,1.1313868613138969,0.0,0.9749490860765635,0
434,355.7027777777778,0.8611111111111427,0.73888888888888,0.76111111111112,1.1313868613138969,0.017605052570106212,0.8018685654513011,33.333333333333336,0.923076923051361,0.9708029197080063,0.0,0.9842927490815551,0
435,356.44166666666666,0.73888888888888,0.8249999999999886,0.76111111111112,0.9708029197080063,0.024709301773312167,1.125450338041767,30.555555555555557,0.8461538461304142,1.0839416058393885,0.0,0.9202106328467181,0
436,357.26666666666665,0.8249999999999886,0.8194444444444571,0.76111111111112,1.0839416058393885,0.017551520987237258,0.7994303282810041,33.333333333333336,0.923076923051361,1.0766423357664274,0.0,0.979573702096628,0
437,358.0861111111111,0.8194444444444571,0.8111111111111313,0.76111111111112,1.0766423357664274,0.01718823015317816,0.7828832887996663,30.555555555555557,0.8461538461304142,1.0656934306569485,0.0,0.9655010409946074,0
438,358.89722222222224,0.8111111111111313,0.8027777777777487,0.76111111111112,1.0656934306569485,0.017339226799646303,0.7897608294266658,36.111111111111114,0.9999999999723078,1.0547445255473948,0.0,0.969285465677932,0
439,359.7,0.8027777777777487,0.7916666666666856,0.76111111111112,1.0547445255473948,0.01976500336644312,0.9002492229135254,36.111111111111114,0.9999999999723078,1.0401459854014727,0.0,0.927587444701875,0
440,360.4916666666667,0.7916666666666856,0.7277777777777601,0.76111111111112,1.0401459854014727,0.02305453786903839,1.0500797503768533,38.888888888888886,1.0769230768932543,0.9562043795620094,0.0,0.9478108651149066,0
441,361.21944444444443,0.7277777777777601,0.8611111111111427,0.76111111111112,0.9562043795620094,0.021298129397758735,0.9700794927460956,30.555555555555557,0.8461538461304142,1.1313868613138969,0.0,0.9391642761212253,0
442,362.0805555555556,0.8611111111111427,0.7194444444444343,0.76111111111112,1.1313868613138969,0.021224144691569188,0.9667096641141558,36.111111111111114,0.9999999999723078,0.9452554744525304,0.0,0.9599931454586317,0
443,362.8,0.7194444444444343,0.8499999999999659,0.76111111111112,0.9452554744525304,0.017459905543823335,0.7952574612082723,33.333333333333336,0.923076923051361,1.1167883211678253,0.0,0.9817314242076272,0
444,363.65,0.8499999999999659,0.8361111111111086,0.76111111111112,1.1167883211678253,0.0249975703288486,1.1385802899219009,36.111111111111114,0.9999999999723078,1.0985401459853854,0.0,0.9859181315911456,0
445,364.4861111111111,0.8361111111111086,0.8277777777777828,0.76111111111112,1.0985401459853854,0.01493936741420887,0.6804529023402575,27.77777777777778,0.7692307692094675,1.0875912408759063,0.0,0.9527773665081267,0
446,365.31388888888887,0.8277777777777828,0.7222222222222285,0.76111111111112,1.0875912408759063,0.01929528257026961,0.8788545500211614,33.333333333333336,0.923076923051361,0.9489051094890484,0.0,0.9821449883702096,0
447,366.0361111111111,0.7222222222222285,0.8888888888889142,0.76111111111112,0.9489051094890484,0.02448968261865157,1.1154472042373074,33.333333333333336,0.923076923051361,1.1678832116788518,0.0,0.9680447591062185,0
448,366.925,0.8888888888889142,0.7666666666666515,0.76111111111112,1.1678832116788518,0.015279088050824273,0.6959263749954631,27.77777777777778,0.7692307692094675,1.007299270072961,0.0,0.9758617299300375,0
449,367.69166666666666,0.7666666666666515,0.7111111111111086,0.76111111111112,1.007299270072961,0.017678359924340945,0.8052075423014499,30.555555555555557,0.8461538461304142,0.9343065693430516,0.0,0.9696603977402547,0
450,368.40277777777777,0.7111111111111086,0.919444444444423,0.76111111111112,0.9343065693430516,0.022967140063584583,1.0460989867521064,44.44444444444444,1.2307692307351479,1.2080291970802497,0.0,0.9205794997499369,0
451,369.3222222222222,0.919444444444423,0.8194444444444571,0.76111111111112,1.2080291970802497,0.018916752886781393,0.8616134169390124,33.333333333333336,0.923076923051361,1.0766423357664274,0.0,0.9913485542615033,0
452,370.14166666666665,0.8194444444444571,0.76111111111112,0.76111111111112,1.0766423357664274,0.019373177630687747,0.882402486052849,33.333333333333336,0.923076923051361,1.0,0.0,0.9796990917563138,0
453,370.90277777777777,0.76111111111112,0.8833333333333258,0.76111111111112,1.0,0.019973663180034344,0.9097531846157382,33.333333333333336,0.923076923051361,1.160583941605816,0.0,0.985432871669323,0
454,371.7861111111111,0.8833333333333258,0.7694444444444457,0.76111111111112,1.160583941605816,0.01934071407434071,0.880923847732754,33.333333333333336,0.923076923051361,1.0109489051094789,0.0,0.9944723713735473,0
455,372.55555555555554,0.7694444444444457,0.7416666666666742,0.76111111111112,1.0109489051094789,0.020342591413105134,0.9265569943078085,27.77777777777778,0.7692307692094675,0.9744525547445242,0.0,0.9303743938365945,0
456,373.2972222222222,0.7416666666666742,0.8666666666666742,0.76111111111112,0.9744525547445242,0.021298737286586163,0.9701071806464903,36.111111111111114,0.9999999999723078,1.1386861313868581,0.0,0.9718997802798439,0
457,374.1638888888889,0.8666666666666742,0.7638888888889142,0.76111111111112,1.1386861313868581,0.019392643921979175,0.8832891296462354,33.333333333333336,0.923076923051361,1.0036496350365178,0.0,0.9943893900127254,0
458,374.9277777777778,0.7638888888889142,0.8333333333333144,0.76111111111112,1.0036496350365178,0.019702560657537626,0.8974051049983105,30.555555555555557,0.8461538461304142,1.0948905109488676,0.0,0.9536769539462335,0
459,375.7611111111111,0.8333333333333144,0.8111111111110745,0.76111111111112,1.0948905109488676,0.023470075176882748,1.0690064933448602,38.888888888888886,1.0769230768932543,1.0656934306568737,0.0,0.9762077072396503,0
460,376.5722222222222,0.8111111111110745,0.8166666666667197,0.76111111111112,1.0656934306568737,0.020641443787757566,0.9401690141521102,36.111111111111114,0.9999999999723078,1.0729927007299842,0.0,0.9742057752471773,0
461,377.3888888888889,0.8166666666667197,0.8166666666666629,0.76111111111112,1.0729927007299842,0.019869093015016874,0.9049902605700613,30.555555555555557,0.8461538461304142,1.0729927007299096,0.0,0.8791312336961383,0
462,378.2055555555556,0.8166666666666629,0.7972222222222172,0.76111111111112,1.0729927007299096,0.022044432396791405,1.004071831754642,38.888888888888886,1.0769230768932543,1.0474452554744338,0.0,0.9707807178382928,0
463,379.0027777777778,0.7972222222222172,0.8222222222221944,0.76111111111112,1.0474452554744338,0.019845012835605663,0.9038934652697698,33.333333333333336,0.923076923051361,1.0802919708028706,0.0,0.965927569520686,0
464,379.825,0.8222222222221944,0.716666666666697,0.76111111111112,1.0802919708028706,0.018961802534524074,0.863665321996703,27.77777777777778,0.7692307692094675,0.9416058394160873,0.0,0.9591418947482901,0
465,380.5416666666667,0.716666666666697,0.8444444444444343,0.76111111111112,0.9416058394160873,0.02252945286236667,1.026163368453928,36.111111111111114,0.9999999999723078,1.1094890510948643,0.0,0.9710836176356357,0
466,381.3861111111111,0.8444444444444343,0.8444444444444343,0.76111111111112,1.1094890510948643,0.02159089053829578,0.9834140712625465,36.111111111111114,0.9999999999723078,1.1094890510948643,0.0,0.979641727653362,0
467,382.23055555555555,0.8444444444444343,0.7916666666666856,0.76111111111112,1.1094890510948643,0.01887101692498534,0.8595302518971079,30.555555555555557,0.8461538461304142,1.0401459854014727,0.0,0.9395193222467357,0
468,383.02222222222224,0.7916666666666856,0.8277777777777828,0.76111111111112,1.0401459854014727,0.022038299716448852,1.0037925026490304,38.888888888888886,1.0769230768932543,1.0875912408759063,0.0,0.9712873045141547,0
469,383.85,0.8277777777777828,0.794444444444423,0.76111111111112,1.0875912408759063,0.020728362111549534,0.9441279385195865,36.111111111111114,0.9999999999723078,1.043795620437916,0.0,0.952964973478271,0
470,384.64444444444445,0.794444444444423,0.7250000000000227,0.76111111111112,1.043795620437916,0.023768342125308088,1.082591848407161,38.888888888888886,1.0769230768932543,0.9525547445255662,0.0,0.9663102285472667,0
471,385.36944444444447,0.7250000000000227,0.8722222222222058,0.76111111111112,0.9525547445255662,0.021456393968882666,0.9772880701759866,33.333333333333336,0.923076923051361,1.1459854014598192,0.0,0.9149985199765966,0
472,386.2416666666667,0.8722222222222058,0.7583333333333258,0.76111111111112,1.1459854014598192,0.021276385062093256,0.9690890896116923,33.333333333333336,0.923076923051361,0.9963503649634822,0.0,0.9885186766112435,0
473,387.0,0.7583333333333258,0.9138888888888914,0.76111111111112,0.9963503649634822,0.021931439353867595,0.998925265513247,36.111111111111114,0.9999999999723078,1.2007299270072886,0.0,0.9807254712996369,0
474,387.9138888888889,0.9138888888888914,0.7749999999999773,0.76111111111112,1.2007299270072886,0.02233700030892052,1.017397609173473,36.111111111111114,0.9999999999723078,1.0182481751824402,0.0,0.9777928387309085,0
475,388.68888888888887,0.7749999999999773,0.8138888888889255,0.76111111111112,1.0182481751824402,0.02180679359357794,0.9932479455168973,36.111111111111114,0.9999999999723078,1.0693430656934664,0.0,0.9684096076998898,0
476,389.5027777777778,0.8138888888889255,0.7972222222222172,0.76111111111112,1.0693430656934664,0.024403765019794358,1.1115338605271252,38.888888888888886,1.0769230768932543,1.0474452554744338,0.0,0.9706861809894554,0
477,390.3,0.7972222222222172,0.7861111111110972,0.76111111111112,1.0474452554744338,0.022802625776697803,1.0386057495296201,38.888888888888886,1.0769230768932543,1.0328467153284369,0.0,0.9427842572581093,0
478,391.0861111111111,0.7861111111110972,0.794444444444423,0.76111111111112,1.0328467153284369,0.021588983082122273,0.9833271911388195,36.111111111111114,0.9999999999723078,1.043795620437916,0.0,0.9425782965789087,0
479,391.88055555555553,0.794444444444423,0.7138888888889028,0.76111111111112,1.043795620437916,0.019844012288838503,0.9038478927275888,33.333333333333336,0.923076923051361,0.9379562043795694,0.0,0.9329730706002063,0
480,392.59444444444443,0.7138888888889028,0.9250000000000114,0.76111111111112,0.9379562043795694,0.023386065695459275,1.0651800598772467,38.888888888888886,1.0769230768932543,1.2153284671532856,0.0,0.9732759377338482,0
481,393.51944444444445,0.9250000000000114,0.8583333333333485,0.76111111111112,1.2153284671532856,0.02248998422911003,1.0243656654249937,33.333333333333336,0.923076923051361,1.127737226277379,0.0,0.9929307618489289,0
482,394.3777777777778,0.8583333333333485,0.7805555555555657,0.76111111111112,1.127737226277379,0.020363113244245116,0.9274917152483522,36.111111111111114,0.9999999999723078,1.0255474452554758,0.0,0.9840374102586265,0
483,395.15833333333336,0.7805555555555657,0.8805555555555316,0.76111111111112,1.0255474452554758,0.020910486120444393,0.9524232569893956,36.111111111111114,0.9999999999723078,1.156934306569298,0.0,0.9616975349366225,0
484,396.0388888888889,0.8805555555555316,0.8166666666666629,0.76111111111112,1.156934306569298,0.020779485195765616,0.9464564742645695,36.111111111111114,0.9999999999723078,1.0729927007299096,0.0,0.9962184676992579,0
485,396.85555555555555,0.8166666666666629,0.7333333333333485,0.76111111111112,1.0729927007299096,0.01779766366674012,0.8106415459995155,22.22222222222222,0.6153846153675739,0.9635036496350452,0.0,0.8750305812301827,0
486,397.5888888888889,0.7333333333333485,0.8305555555555202,0.76111111111112,0.9635036496350452,0.021425966808760858,0.9759021848944476,36.111111111111114,0.9999999999723078,1.0912408759123495,0.0,0.9576701267759689,0
487,398.4194444444444,0.8305555555555202,0.830555555555577,0.76111111111112,1.0912408759123495,0.02142998208227561,0.9760850711198846,33.333333333333336,0.923076923051361,1.0912408759124244,0.0,0.9877976363807661,0
488,399.25,0.830555555555577,0.8833333333333258,0.76111111111112,1.0912408759124244,0.019066274220314944,0.8684237605461937,33.333333333333336,0.923076923051361,1.160583941605816,0.0,0.9607114440314406,0
489,400.1333333333333,0.8833333333333258,0.7805555555555657,0.76111111111112,1.160583941605816,0.021207797499208845,0.9659650881104804,36.111111111111114,0.9999999999723078,1.0255474452554758,0.0,0.9876413873199326,0
490,400.9138888888889,0.7805555555555657,0.8833333333333258,0.76111111111112,1.0255474452554758,0.02053394123103185,0.9352725265897628,33.333333333333336,0.923076923051361,1.160583941605816,0.0,0.9760457785383927,0
491,401.7972222222222,0.8833333333333258,0.794444444444423,0.76111111111112,1.160583941605816,0.019827921460779357,0.903114993512359,33.333333333333336,0.923076923051361,1.043795620437916,0.0,0.9937615429800934,0
492,402.59166666666664,0.794444444444423,0.7861111111111541,0.76111111111112,1.043795620437916,0.01792522918875961,0.8164518542468483,30.555555555555557,0.8461538461304142,1.0328467153285117,0.0,0.902836418817309,0
493,403.3777777777778,0.7861111111111541,0.7638888888888573,0.76111111111112,1.0328467153285117,0.022174196601767712,1.0099822848178703,36.111111111111114,0.9999999999723078,1.0036496350364432,0.0,0.9557238490637336,0
494,404.14166666666665,0.7638888888888573,0.88611111111112,0.76111111111112,1.0036496350364432,0.019816856156121433,0.9026109950189152,33.333333333333336,0.923076923051361,1.164233576642334,0.0,0.9607970374893988,0
495,405.02777777777777,0.88611111111112,0.8138888888888687,0.76111111111112,1.164233576642334,0.016001934202420773,0.7288503100030131,30.555555555555557,0.8461538461304142,1.0693430656933918,0.0,0.977163267038927,0
496,405.84166666666664,0.8138888888888687,0.830555555555577,0.76111111111112,1.0693430656933918,0.021095441677416928,0.9608475457866723,38.888888888888886,1.0769230768932543,1.0912408759124244,0.0,0.9729688334901436,0
497,406.6722222222222,0.830555555555577,0.8722222222222058,0.76111111111112,1.0912408759124244,0.02011220811538082,0.9160635792092461,36.111111111111114,0.9999999999723078,1.1459854014598192,0.0,0.9776083311031938,0
498,407.5444444444444,0.8722222222222058,0.7750000000000341,0.76111111111112,1.1459854014598192,0.018953562629040323,0.8632900137626948,36.111111111111114,0.9999999999723078,1.0182481751825148,0.0,0.9787325805286309,0
499,408.31944444444446,0.7750000000000341,0.8111111111110745,0.76111111111112,1.0182481751825148,0.021437207054142586,0.9764141515246905,38.888888888888886,1.0769230768932543,1.0656934306568737,0.0,0.9763205528859986,0
500,409.13055555555553,0.8111111111110745,0.8444444444444912,0.76111111111112,1.0656934306568737,0.026277136296687917,1.196861497714138,36.111111111111114,0.9999999999723078,1.1094890510949391,0.0,0.9792584597930922,0
501,409.975,0.8444444444444912,0.7527777777777374,0.76111111111112,1.1094890510949391,0.015851398327387134,0.7219937564266183,30.555555555555557,0.8461538461304142,0.9890510948904464,0.0,0.9678298428792516,0
502,410.72777777777776,0.7527777777777374,0.8277777777777828,0.76111111111112,0.9890510948904464,0.019743970642076628,0.8992912319931274,36.111111111111114,0.9999999999723078,1.0875912408759063,0.0,0.9819841605150923,0
503,411.55555555555554,0.8277777777777828,0.9083333333333599,0.76111111111112,1.0875912408759063,0.025898384479889795,1.179610246984351,36.111111111111114,0.9999999999723078,1.1934306569343276,0.0,0.9760229263267803,0
504,412.4638888888889,0.9083333333333599,0.8333333333333144,0.76111111111112,1.1934306569343276,0.01622643680198032,0.7390758731890374,30.555555555555557,0.8461538461304142,1.0948905109488676,0.0,0.9857986520981663,0
505,413.2972222222222,0.8333333333333144,0.76111111111112,0.76111111111112,1.0948905109488676,0.025741737967692017,1.1724753683170603,36.111111111111114,0.9999999999723078,1.0,0.0,0.9609759477161495,0
506,414.05833333333334,0.76111111111112,0.8611111111110858,0.76111111111112,1.0,0.019441708563456457,0.885523908186038,33.333333333333336,0.923076923051361,1.1313868613138223,0.0,0.989727732205435,0
507,414.9194444444444,0.8611111111110858,0.7833333333333599,0.76111111111112,1.1313868613138223,0.02197365046902874,1.0008478821158149,33.333333333333336,0.923076923051361,1.0291970802919936,0.0,0.9785545492917611,0
508,415.7027777777778,0.7833333333333599,0.7222222222222285,0.76111111111112,1.0291970802919936,0.01831378976491146,0.8341498707991463,33.333333333333336,0.923076923051361,0.9489051094890484,0.0,0.9787177670179366,0
509,416.425,0.7222222222222285,0.9138888888888914,0.76111111111112,0.9489051094890484,0.017065347268234728,0.7772862636118277,36.111111111111114,0.9999999999723078,1.2007299270072886,0.0,0.938686822388064,0
510,417.3388888888889,0.9138888888888914,0.7888888888888914,0.76111111111112,1.2007299270072886,0.01798110852786919,0.8189970261690412,30.555555555555557,0.8461538461304142,1.0364963503649547,0.0,0.9881410087729872,0
511,418.1277777777778,0.7888888888888914,0.9111111111110972,0.76111111111112,1.0364963503649547,0.018677752251734188,0.8507275024775768,33.333333333333336,0.923076923051361,1.1970802919707708,0.0,0.9941343507545366,0
512,419.0388888888889,0.9111111111110972,0.7749999999999773,0.76111111111112,1.1970802919707708,0.024842327691778833,1.1315093544510584,36.111111111111114,0.9999999999723078,1.0182481751824402,0.0,0.9745793917448402,0
513,419.81388888888887,0.7749999999999773,0.8111111111111313,0.76111111111112,1.0182481751824402,0.01772817063852198,0.8074763026908549,36.111111111111114,0.9999999999723078,1.0656934306569485,0.0,0.9647921556658334,0
514,420.625,0.8111111111111313,0.8027777777778056,0.76111111111112,1.0656934306569485,0.024188132664224943,1.101712316005359,36.111111111111114,0.9999999999723078,1.0547445255474694,0.0,0.9717972488757647,0
515,421.4277777777778,0.8027777777778056,0.73888888888888,0.76111111111112,1.0547445255474694,0.017664345734782302,0.8045692290653716,27.77777777777778,0.7692307692094675,0.9708029197080063,0.0,0.9525668515777642,0
516,422.1666666666667,0.73888888888888,0.9166666666666288,0.76111111111112,0.9708029197080063,0.017543895524559577,0.7990830064656386,33.333333333333336,0.923076923051361,1.2043795620437319,0.0,0.9672629888798172,0
517,423.0833333333333,0.9166666666666288,0.9055555555555657,0.76111111111112,1.2043795620437319,0.022649022938916446,1.031609503043533,33.333333333333336,0.923076923051361,1.1897810218978098,0.0,0.9857593753060622,0
518,423.9888888888889,0.9055555555555657,0.86388888888888,0.76111111111112,1.1897810218978098,0.02032159521084072,0.9256006668829033,30.555555555555557,0.8461538461304142,1.13503649635034,0.0,0.9748967350199479,0
519,424.85277777777776,0.86388888888888,0.8444444444444343,0.76111111111112,1.13503649635034,0.02555224829948574,1.1638445614616229,36.111111111111114,0.9999999999723078,1.1094890510948643,0.0,0.9890757847488156,0
520,425.6972222222222,0.8444444444444343,0.8583333333333485,0.76111111111112,1.1094890510948643,0.018521210713901236,0.8435974051446785,33.333333333333336,0.923076923051361,1.127737226277379,0.0,0.9951784262803878,0
521,426.55555555555554,0.8583333333333485,0.8500000000000227,0.76111111111112,1.127737226277379,0.01628672658987456,0.7418219306368982,27.77777777777778,0.7692307692094675,1.1167883211679002,0.0,0.9737148202816801,0
522,427.40555555555557,0.8500000000000227,0.8555555555555543,0.76111111111112,1.1167883211679002,0.013907586791400703,0.633457731801744,30.555555555555557,0.8461538461304142,1.1240875912408612,0.0,0.8908239601717722,0
523,428.2611111111111,0.8555555555555543,0.8555555555555543,0.76111111111112,1.1240875912408612,0.01958919865847883,0.892241733676357,36.111111111111114,0.9999999999723078,1.1240875912408612,0.0,0.9981025692073277,0
524,429.1166666666667,0.8555555555555543,0.8527777777777601,0.76111111111112,1.1240875912408612,0.018255469006788552,0.8314934980069708,33.333333333333336,0.923076923051361,1.1204379562043434,0.0,0.9947745981558088,0
525,429.96944444444443,0.8527777777777601,0.8888888888889142,0.76111111111112,1.1204379562043434,0.015496759153069369,0.705840779613252,27.77777777777778,0.7692307692094675,1.1678832116788518,0.0,0.9623683207132787,0
526,430.85833333333335,0.8888888888889142,0.7638888888888573,0.76111111111112,1.1678832116788518,0.02566326002464125,1.1689008833580923,36.111111111111114,0.9999999999723078,1.0036496350364432,0.0,0.977818569669693,0
527,431.6222222222222,0.7638888888888573,0.9277777777778056,0.76111111111112,1.0036496350364432,0.018586378811022937,0.8465656580563966,33.333333333333336,0.923076923051361,1.2189781021898034,0.0,0.9863286478212627,0
528,432.55,0.9277777777778056,0.8972222222221831,0.76111111111112,1.2189781021898034,0.018445897064650395,0.8401670462949571,33.333333333333336,0.923076923051361,1.178832116788256,0.0,0.9915488506359862,0
529,433.4472222222222,0.8972222222221831,0.830555555555577,0.76111111111112,1.178832116788256,0.018672341394030265,0.8504810506883744,30.555555555555557,0.8461538461304142,1.0912408759124244,0.0,0.9211078946498679,0
530,434.27777777777777,0.830555555555577,0.88611111111112,0.76111111111112,1.0912408759124244,0.024869830579830277,1.1327620460462557,36.111111111111114,0.9999999999723078,1.164233576642334,0.0,0.9887078591951501,0
531,435.1638888888889,0.88611111111112,0.9027777777777715,0.76111111111112,1.164233576642334,0.019524412662317452,0.8892908845609463,36.111111111111114,0.9999999999723078,1.1861313868612917,0.0,0.9955909562673758,0
532,436.06666666666666,0.9027777777777715,0.8888888888889142,0.76111111111112,1.1861313868612917,0.01460043390650196,0.6650152815478148,27.77777777777778,0.7692307692094675,1.1678832116788518,0.0,0.970459042962688,0
533,436.9555555555556,0.8888888888889142,0.8388888888888459,0.76111111111112,1.1678832116788518,0.020430609579329694,0.9305660139005126,36.111111111111114,0.9999999999723078,1.1021897810218286,0.0,0.9961603819050511,0
534,437.7944444444444,0.8388888888888459,0.8111111111111313,0.76111111111112,1.1021897810218286,0.018435108419955885,0.8396756490094391,33.333333333333336,0.923076923051361,1.0656934306569485,0.0,0.9922818687476447,0
535,438.60555555555555,0.8111111111111313,0.8194444444444571,0.76111111111112,1.0656934306569485,0.016324627203322013,0.7435482140668288,27.77777777777778,0.7692307692094675,1.0766423357664274,0.0,0.9383168013422979,0
536,439.425,0.8194444444444571,0.7333333333333485,0.76111111111112,1.0766423357664274,0.01712639324269692,0.7800667635719183,33.333333333333336,0.923076923051361,0.9635036496350452,0.0,0.969292320750058,0
537,440.15833333333336,0.7333333333333485,0.8916666666666515,0.76111111111112,0.9635036496350452,0.017199511658529947,0.7833971347240988,33.333333333333336,0.923076923051361,1.171532846715295,0.0,0.9467424925645911,0
538,441.05,0.8916666666666515,0.9305555555555429,0.76111111111112,1.171532846715295,0.02108539776478184,0.9603900692875739,41.666666666666664,1.153846153814201,1.2226277372262466,0.0,0.9392613343574744,0
539,441.98055555555555,0.9305555555555429,0.8666666666666742,0.76111111111112,1.2226277372262466,0.026723176276079577,1.2171775653307746,38.888888888888886,1.0769230768932543,1.1386861313868581,0.0,0.9942219886674839,0
540,442.84722222222223,0.8666666666666742,0.8388888888889028,0.76111111111112,1.1386861313868581,0.02180153501946352,0.9930084298855376,33.333333333333336,0.923076923051361,1.1021897810219032,0.0,0.9801492069258126,0
541,443.68611111111113,0.8388888888889028,0.7611111111110631,0.76111111111112,1.1021897810219032,0.024969297599386972,1.1372925338686595,36.111111111111114,0.9999999999723078,0.9999999999999253,0.0,0.9910263398764787,0
542,444.4472222222222,0.7611111111110631,0.875,0.76111111111112,0.9999999999999253,0.018385766778660207,0.8374282537821189,33.333333333333336,0.923076923051361,1.149635036496337,0.0,0.9826312702613232,0
543,445.3222222222222,0.875,0.7305555555556111,0.76111111111112,1.149635036496337,0.015483158008103445,0.7052212795828551,27.77777777777778,0.7692307692094675,0.959854014598602,0.0,0.9619646745035475,0
544,446.0527777777778,0.7305555555556111,0.8694444444444116,0.76111111111112,0.959854014598602,0.017873273186710382,0.8140853810617275,33.333333333333336,0.923076923051361,1.1423357664233011,0.0,0.9790879522817981,0
545,446.9222222222222,0.8694444444444116,0.7972222222222172,0.76111111111112,1.1423357664233011,0.019565971905831994,0.8911838099495836,36.111111111111114,0.9999999999723078,1.0474452554744338,0.0,0.9881218490190891,0
546,447.71944444444443,0.7972222222222172,0.9361111111111313,0.76111111111112,1.0474452554744338,0.02119514572537129,0.9653888296927827,36.111111111111114,0.9999999999723078,1.2299270072992823,0.0,0.9394917590690816,0
547,448.65555555555557,0.9361111111111313,0.76111111111112,0.76111111111112,1.2299270072992823,0.019294057853100635,0.8787987670466171,33.333333333333336,0.923076923051361,1.0,0.0,0.9870939876838818,0
548,449.4166666666667,0.76111111111112,0.875,0.76111111111112,1.0,0.022466564657338792,1.0232989592424986,36.111111111111114,0.9999999999723078,1.149635036496337,0.0,0.9285939524755578,0
549,450.2916666666667,0.875,0.76111111111112,0.76111111111112,1.149635036496337,0.015745696151715314,0.7171792719691866,27.77777777777778,0.7692307692094675,1.0,0.0,0.9230827173733851,0
550,451.0527777777778,0.76111111111112,0.7972222222222172,0.76111111111112,1.0,0.023847321537294856,1.0861891740918088,36.111111111111114,0.9999999999723078,1.0474452554744338,0.0,0.972788508026347,0
551,451.85,0.7972222222222172,0.7888888888888914,0.76111111111112,1.0474452554744338,0.022941451722532126,1.044928943487167,38.888888888888886,1.0769230768932543,1.0364963503649547,0.0,0.9388823531248457,0
552,452.6388888888889,0.7888888888888914,0.7805555555555088,0.76111111111112,1.0364963503649547,0.019763817364073802,0.90019520330667,33.333333333333336,0.923076923051361,1.0255474452554012,0.0,0.9889165642253015,0
553,453.4194444444444,0.7805555555555088,0.9305555555555998,0.76111111111112,1.0255474452554012,0.023307576076418472,1.0616050431045088,38.888888888888886,1.0769230768932543,1.2226277372263212,0.0,0.980180904785306,0
554,454.35,0.9305555555555998,0.783333333333303,0.76111111111112,1.2226277372263212,0.014102531181990782,0.6423369883789541,27.77777777777778,0.7692307692094675,1.029197080291919,0.0,0.9696375719830331,0
555,455.1333333333333,0.783333333333303,0.7722222222222399,0.76111111111112,1.029197080291919,0.01729940118716753,0.7879468668372669,30.555555555555557,0.8461538461304142,1.014598540145997,0.0,0.9633853117661457,0
556,455.90555555555557,0.7722222222222399,0.8805555555555316,0.76111111111112,1.014598540145997,0.021826371695608464,0.9941396818253779,36.111111111111114,0.9999999999723078,1.156934306569298,0.0,0.8980465441235069,0
557,456.7861111111111,0.8805555555555316,0.8000000000000114,0.76111111111112,1.156934306569298,0.018861352153599915,0.8590900443864865,33.333333333333336,0.923076923051361,1.0510948905109516,0.0,0.9895238021651103,0
558,457.5861111111111,0.8000000000000114,0.8277777777777828,0.76111111111112,1.0510948905109516,0.017434684055771373,0.7941086819949053,33.333333333333336,0.923076923051361,1.0875912408759063,0.0,0.972809188140864,0
559,458.4138888888889,0.8277777777777828,0.7805555555555657,0.76111111111112,1.0875912408759063,0.022692207309315354,1.0335764491235742,33.333333333333336,0.923076923051361,1.0255474452554758,0.0,0.9591098588618713,0
