beat_index,peak_time_s,rr_prev_s,rr_next_s,rr_baseline_s,prematurity_index,aa_ratio,morph_index,qrs_width_ms,width_index,pause_index,pvc_score,morphology_score,is_pvc_candidate
0,0.5722222222222222,,0.7666666666666666,0.6972222222222797,,0.03222822325514284,0.9800097864756715,55.55555555555556,0.9523809523646259,1.0996015936254073,1.0805833561278178e-08,0.9994927004652867,0
1,1.3388888888888888,0.7666666666666666,0.7722222222222224,0.6972222222222797,1.0996015936254073,0.03705134370860889,1.1266733244661946,63.888888888888886,1.0952380952193197,1.1075697211154467,5.160898217582144e-05,0.9974809720276817,0
2,2.111111111111111,0.7722222222222224,0.7666666666666666,0.6972222222222797,1.1075697211154467,0.03533826269360957,1.0745812141927216,61.111111111111114,1.0476190476010885,1.0996015936254073,1.467578613301157e-06,0.9987994420452363,0
3,2.8777777777777778,0.7666666666666666,0.7555555555555555,0.6972222222222797,1.0996015936254073,0.03242579457966847,0.9860176209761718,58.333333333333336,0.9999999999828572,1.083665338645329,1.9441172227629977e-08,0.9994291162154295,0
4,3.6333333333333333,0.7555555555555555,0.7416666666666667,0.6972222222222797,1.083665338645329,0.029648842063641614,0.9015748448187776,52.77777777777778,0.9047619047463946,1.0637450199202312,1.203654675929755e-10,0.9989986275008095,0
5,4.375,0.7416666666666667,0.7833333333333332,0.7666666666666666,0.9673913043478262,0.036339363986339177,1.1050231363663836,63.888888888888886,1.0952380952193197,1.0217391304347825,5.628629878628999e-06,0.9980908616400597,0
6,5.158333333333333,0.7833333333333332,0.7472222222222227,0.7666666666666666,1.0217391304347825,0.03615940956607082,1.099551004328996,63.888888888888886,1.0952380952193197,0.974637681159421,7.754375701551908e-07,0.9988573543522357,0
7,5.905555555555556,0.7472222222222227,0.7166666666666659,0.7666666666666666,0.974637681159421,0.03289201149241997,1.0001945470046347,55.55555555555556,0.9523809523646259,0.9347826086956512,5.145290415953241e-09,0.9983559628863772,0
8,6.622222222222222,0.7166666666666659,0.7305555555555561,0.7611111111111111,0.9416058394160575,0.035300549300442415,1.0734344089812642,61.111111111111114,1.0476190476010885,0.9598540145985409,8.42270708290016e-07,0.9986008174212102,0
9,7.352777777777778,0.7305555555555561,0.7277777777777779,0.7555555555555555,0.966911764705883,0.034642293672027626,1.0534178864214534,61.111111111111114,1.0476190476010885,0.9632352941176472,2.1577784536930267e-07,0.9988765723406994,0
10,8.080555555555556,0.7277777777777779,0.7416666666666671,0.7513888888888891,0.9685767097966727,0.03162353807755724,0.9616222574121168,58.333333333333336,0.9999999999828572,0.9870609981515716,8.243033811083933e-09,0.9974743517868563,0
11,8.822222222222223,0.7416666666666671,0.75,0.7444444444444449,0.996268656716418,0.03263861017833953,0.9924890099746032,58.333333333333336,0.9999999999828572,1.0074626865671636,1.0275854833707854e-08,0.9990063674691274,0
12,9.572222222222223,0.75,0.7388888888888889,0.7444444444444449,1.0074626865671636,0.032529076655745726,0.9891582671272775,58.333333333333336,0.9999999999828572,0.9925373134328352,5.4931499349208934e-09,0.9993170203334331,0
13,10.311111111111112,0.7388888888888889,0.7111111111111104,0.7416666666666669,0.9962546816479398,0.03390868183025739,1.031109899452468,61.111111111111114,1.0476190476010885,0.9588014981273395,5.590533547206178e-08,0.9996330358826809,0
14,11.022222222222222,0.7111111111111104,0.7527777777777782,0.7402777777777778,0.9606003752345205,0.03271925508469772,0.9949412952537126,55.55555555555556,0.9523809523646259,1.0168855534709198,1.8684165326021684e-08,0.9987350350612699,0
15,11.775,0.7527777777777782,0.7666666666666657,0.740277777777778,1.0168855534709196,0.029912371198602333,0.9095883530174265,52.77777777777778,0.9047619047463946,1.035647279549717,7.659611833688018e-11,0.998845066712694,0
16,12.541666666666666,0.7666666666666657,0.7361111111111125,0.740277777777778,1.035647279549717,0.03437655535539312,1.045337200468596,58.333333333333336,0.9999999999828572,0.9943714821763617,7.071087537724452e-08,0.9976226286338403,0
17,13.277777777777779,0.7361111111111125,0.716666666666665,0.7375000000000007,0.9981167608286261,0.031103411234052636,0.9458060148346774,58.333333333333336,0.9999999999828572,0.9717514124293753,1.1990335391232065e-09,0.9994076096509867,0
18,13.994444444444444,0.716666666666665,0.7305555555555561,0.7375000000000007,0.9717514124293753,0.029998198481590365,0.9121982262521064,55.55555555555556,0.9523809523646259,0.990583804143126,5.433045124902947e-10,0.9985268682943884,0
19,14.725,0.7305555555555561,0.7444444444444454,0.7375000000000007,0.990583804143126,0.033486851917773036,1.0182827125737475,58.333333333333336,0.9999999999828572,1.0094161958568741,4.32745999034978e-08,0.9988783669564861,0
20,15.469444444444445,0.7444444444444454,0.7611111111111093,0.740277777777778,1.0056285178236406,0.0342671031391199,1.04200893001912,58.333333333333336,0.9999999999828572,1.0281425891181961,1.0053837229406781e-07,0.9984488885143215,0
21,16.230555555555554,0.7611111111111093,0.7388888888888907,0.7416666666666671,1.0262172284644164,0.034661767050999916,1.0540100413726434,61.111111111111114,1.0476190476010885,0.9962546816479418,1.1016189205292903e-07,0.9991971729480765,0
22,16.969444444444445,0.7388888888888907,0.7305555555555543,0.7388888888888898,1.000000000000001,0.033640082660193214,1.0229422194280928,58.333333333333336,0.9999999999828572,0.9887218045112752,2.7167262217631105e-08,0.9993572363189618,0
23,17.7,0.7305555555555543,0.7611111111111128,0.7375000000000016,0.9905838041431223,0.031224504148539153,0.9494882606826769,52.77777777777778,0.9047619047463946,1.032015065913371,2.889440908759866e-09,0.9965679865040036,0
24,18.461111111111112,0.7611111111111128,0.7638888888888893,0.741666666666668,1.02621722846442,0.03276261741422063,0.9962598757711806,58.333333333333336,0.9999999999828572,1.0299625468164781,6.248106032558098e-09,0.9996438107486518,0
25,19.225,0.7638888888888893,0.7333333333333307,0.741666666666668,1.0299625468164781,0.03347059830048201,1.0177884655318077,58.333333333333336,0.9999999999828572,0.9887640449438149,9.589318672453828e-09,0.999735362962966,0
26,19.958333333333332,0.7333333333333307,0.719444444444445,0.7375000000000016,0.99435028248587,0.03481099139141619,1.0585477198177309,58.333333333333336,0.9999999999828572,0.9755178907721267,1.4547084958849155e-07,0.9988371485070083,0
27,20.677777777777777,0.719444444444445,0.7333333333333343,0.7361111111111107,0.977358490566039,0.03616446590250655,1.0997047595996947,61.111111111111114,1.0476190476010885,0.9962264150943414,2.6312543468520744e-06,0.9986564814893957,0
28,21.41111111111111,0.7333333333333343,0.7472222222222236,0.7361111111111125,0.9962264150943391,0.035873890531210206,1.0908688177196602,63.888888888888886,1.0952380952193197,1.0150943396226415,3.902579464920564e-06,0.9981906270065386,0
29,22.158333333333335,0.7472222222222236,0.7583333333333329,0.741666666666668,1.0074906367041199,0.03242233663641712,0.9859124703384664,55.55555555555556,0.9523809523646259,1.022471910112357,5.313734785516999e-09,0.9983549016419271,0
30,22.916666666666668,0.7583333333333329,0.6666666666666643,0.7430555555555571,1.0205607476635485,0.03708052585401517,1.127560707796703,63.888888888888886,1.0952380952193197,0.8971962616822379,1.0841426956176292e-05,0.9970253452881261,0
31,23.583333333333332,0.6666666666666643,0.8000000000000007,0.7361111111111125,0.9056603773584857,0.05297204338790069,1.6107968633198695,127.77777777777777,2.1904761904386394,1.0867924528301875,0.9916616678237915,0.82912373963547,1
32,24.383333333333333,0.8000000000000007,0.7472222222222236,0.7402777777777789,1.0806754221388362,0.030943272486327507,0.9409364463597991,52.77777777777778,0.9047619047463946,1.0093808630394,2.0204797904210814e-11,0.9988264628111627,0
33,25.130555555555556,0.7472222222222236,0.7638888888888893,0.7472222222222236,1.0,0.035842495137460295,1.0899141329738835,61.111111111111114,1.0476190476010885,1.0223048327137534,1.4855309018457774e-06,0.9977239792584955,0
34,25.894444444444446,0.7638888888888893,0.7361111111111107,0.7472222222222236,1.0223048327137534,0.03370987186172684,1.0250643997280062,58.333333333333336,0.9999999999828572,0.9851301115241613,1.828975015882861e-08,0.9986981999530036,0
35,26.630555555555556,0.7361111111111107,0.7361111111111107,0.7416666666666671,0.992509363295879,0.03148110673948478,0.9572911435276565,55.55555555555556,0.9523809523646259,0.992509363295879,1.9492587544078788e-09,0.9981334202963432,0
36,27.366666666666667,0.7361111111111107,0.7444444444444436,0.7416666666666671,0.992509363295879,0.03747981961358211,1.1397026055661317,63.888888888888886,1.0952380952193197,1.0037453183520582,4.507699850364588e-05,0.9969026184008722,0
37,28.11111111111111,0.7444444444444436,0.7472222222222236,0.7458333333333336,0.9981378026070749,0.035860268316866825,1.0904545875194938,61.111111111111114,1.0476190476010885,1.0018621973929251,7.204468488453131e-07,0.9991377603138702,0
38,28.858333333333334,0.7472222222222236,0.7749999999999986,0.7472222222222236,1.0,0.030924607738278844,0.9403688806083463,55.55555555555556,0.9523809523646259,1.0371747211895874,1.0970406805199673e-09,0.9985074577395859,0
39,29.633333333333333,0.7749999999999986,0.7611111111111128,0.7472222222222236,1.0371747211895874,0.036755863703002566,1.1176882403394774,61.111111111111114,1.0476190476010885,1.018587360594796,1.4410471749215503e-06,0.9984338418721939,0
40,30.394444444444446,0.7611111111111128,0.74722222222222,0.7472222222222236,1.018587360594796,0.03146000522313914,0.9566494794692786,55.55555555555556,0.9523809523646259,0.9999999999999952,9.773281073321982e-10,0.9978895864501882,0
41,31.141666666666666,0.74722222222222,0.7416666666666671,0.7472222222222236,0.9999999999999952,0.03293322768407104,1.0014478668311584,58.333333333333336,0.9999999999828572,0.9925650557620807,8.719241328947192e-09,0.9994631770086585,0
42,31.883333333333333,0.7416666666666671,0.7861111111111114,0.7472222222222218,0.992565055762083,0.02969030159468148,0.9028355642149447,55.55555555555556,0.9523809523646259,1.0520446096654286,7.70872921052046e-10,0.996832562000828,0
43,32.669444444444444,0.7861111111111114,0.7638888888888857,0.7472222222222218,1.0520446096654286,0.037087759132013565,1.1277806604503322,61.111111111111114,1.0476190476010885,1.022304832713751,2.297237642778782e-06,0.9976908297041462,0
44,33.43333333333333,0.7638888888888857,0.75833333333334,0.7472222222222218,1.022304832713751,0.035001952292345595,1.0643545416913247,61.111111111111114,1.0476190476010885,1.0148698884758458,1.973814391931228e-07,0.9987499344389642,0
45,34.19166666666667,0.75833333333334,0.7638888888888857,0.7527777777777818,1.0073800738007415,0.0346594952749893,1.0539409602227006,61.111111111111114,1.0476190476010885,1.0147601476014665,1.5322670776640734e-07,0.9986560825463484,0
46,34.955555555555556,0.7638888888888857,0.75,0.7597222222222264,1.0054844606946887,0.030482594944370445,0.9269279639202518,52.77777777777778,0.9047619047463946,0.9872029250456984,1.0167640340785766e-10,0.9968360061354953,0
47,35.705555555555556,0.75,0.7694444444444457,0.7597222222222264,0.9872029250456984,0.03671164706966727,1.1163436817812677,66.66666666666667,1.1428571428375511,1.0127970749542923,3.9847040170570835e-05,0.996394224379783,0
48,36.475,0.7694444444444457,0.7555555555555529,0.7624999999999993,1.009107468123864,0.03579376926603745,1.0884324555487614,61.111111111111114,1.0476190476010885,0.9908925318761358,4.947410729982948e-07,0.9980004448894455,0
49,37.230555555555554,0.7555555555555529,0.7388888888888872,0.7597222222222264,0.9945155393052927,0.03235997269725608,0.9840160806362744,55.55555555555556,0.9523809523646259,0.9725776965265006,2.3476340871297907e-09,0.9981430872715759,0
50,37.96944444444444,0.7388888888888872,0.7361111111111143,0.7569444444444464,0.9761467889908209,0.03342388364003353,1.0163679458820285,58.333333333333336,0.9999999999828572,0.9724770642201851,2.989926528584874e-08,0.9981536669775148,0
51,38.705555555555556,0.7361111111111143,0.7833333333333314,0.7569444444444464,0.9724770642201851,0.035082940686811344,1.0668172719057407,58.333333333333336,0.9999999999828572,1.0348623853210956,3.2359855595132103e-07,0.998442282152261,0
52,39.48888888888889,0.7833333333333314,0.7416666666666671,0.7611111111111128,1.0291970802919659,0.034584976528961885,1.0516749618831516,61.111111111111114,1.0476190476010885,0.974452554744524,4.493054106546879e-08,0.9992604309234963,0
53,40.230555555555554,0.7416666666666671,0.7250000000000014,0.7569444444444464,0.979816513761466,0.03217500844276527,0.9783916073876523,58.333333333333336,0.9999999999828572,0.9577981651376141,5.123881319235579e-09,0.9985645846242555,0
54,40.955555555555556,0.7250000000000014,0.7388888888888872,0.7527777777777764,0.9630996309963136,0.03497777984953721,1.0636194955695544,61.111111111111114,1.0476190476010885,0.9815498154981545,3.164387010201608e-07,0.9993695330834254,0
55,41.69444444444444,0.7388888888888872,0.7416666666666671,0.7458333333333336,0.9906890130353792,0.034208946164203086,1.0402404675097507,58.333333333333336,0.9999999999828572,0.9944134078212293,7.251763634030794e-08,0.9985824637460912,0
56,42.43611111111111,0.7416666666666671,0.75555555555556,0.7416666666666671,1.0,0.03202091824728947,0.9737059659121442,58.333333333333336,0.9999999999828572,1.018726591760305,4.445545265241435e-09,0.9995599470606432,0
57,43.19166666666667,0.75555555555556,0.7666666666666657,0.7416666666666671,1.018726591760305,0.03450199487262415,1.0491516196974802,58.333333333333336,0.9999999999828572,1.0337078651685374,1.050578859462803e-07,0.9983298833177621,0
58,43.958333333333336,0.7666666666666657,0.7583333333333329,0.7416666666666671,1.0337078651685374,0.03134566406954042,0.9531725440938299,55.55555555555556,0.9523809523646259,1.0224719101123583,4.761027683208852e-10,0.9995485081942742,0
59,44.71666666666667,0.7583333333333329,0.7638888888888857,0.7416666666666671,1.0224719101123583,0.027843317963585405,0.8466716851327901,50.0,0.8571428571281633,1.0299625468164746,1.4682608427685206e-12,0.9962901401714861,0
60,45.480555555555554,0.7638888888888857,0.81111111111111,0.7486111111111136,1.0204081632652986,0.03245328086090309,0.986853435733644,55.55555555555556,0.9523809523646259,1.0834879406307927,4.216124782630004e-09,0.9998121528786608,0
61,46.291666666666664,0.81111111111111,0.7722222222222257,0.7569444444444464,1.0715596330275188,0.03455979002238403,1.0509090796705947,58.333333333333336,0.9999999999828572,1.020183486238534,1.9032736275903517e-08,0.998259370133954,0
62,47.06388888888889,0.7722222222222257,0.74722222222222,0.7569444444444464,1.020183486238534,0.0344186188988648,1.0466162869366813,58.333333333333336,0.9999999999828572,0.9871559633027468,5.190030805124479e-08,0.9976586125073439,0
63,47.81111111111111,0.74722222222222,0.7722222222222257,0.7569444444444464,0.9871559633027468,0.03398220311560651,1.0333455665752256,58.333333333333336,0.9999999999828572,1.020183486238534,5.047727213991493e-08,0.9985914455617233,0
64,48.583333333333336,0.7722222222222257,0.7694444444444386,0.7611111111111093,1.0145985401459925,0.031665190406843534,0.962888839500956,55.55555555555556,0.9523809523646259,1.0109489051094838,1.3247786201375789e-09,0.9971895608642266,0
65,49.352777777777774,0.7694444444444386,0.7750000000000057,0.7652777777777757,1.0054446460979987,0.03245197113533908,0.9868136090308138,58.333333333333336,0.9999999999828572,1.0127041742286853,3.6921705692805062e-09,0.9986969069969518,0
66,50.12777777777778,0.7750000000000057,0.7555555555555529,0.7680555555555522,1.009041591320084,0.03661402027675459,1.1133750039326868,61.111111111111114,1.0476190476010885,0.9837251356238707,1.8865021047531627e-06,0.9968080744570129,0
67,50.88333333333333,0.7555555555555529,0.7388888888888872,0.7680555555555522,0.9837251356238707,0.03383586850522447,1.0288957602939681,58.333333333333336,0.9999999999828572,0.9620253164556982,1.4974112616528146e-08,0.9994748827746414,0
68,51.62222222222222,0.7388888888888872,0.7416666666666671,0.7666666666666622,0.9637681159420324,0.029936321749013072,0.9103166517389596,52.77777777777778,0.9047619047463946,0.9673913043478324,7.384576977687018e-11,0.9983054047964197,0
69,52.36388888888889,0.7416666666666671,0.7638888888888928,0.7666666666666622,0.9673913043478324,0.035978901070795676,1.0940620237385625,63.888888888888886,1.0952380952193197,0.9963768115942139,2.92475419882976e-06,0.998205859073185,0
70,53.12777777777778,0.7638888888888928,0.7361111111111072,0.7666666666666657,0.9963768115942093,0.03314904385926356,1.0080104986614649,58.333333333333336,0.9999999999828572,0.9601449275362279,5.0797521744527785e-09,0.9996494972756357,0
71,53.86388888888889,0.7361111111111072,0.7000000000000028,0.7597222222222229,0.9689213893967034,0.030468755199970787,0.926507118971816,55.55555555555556,0.9523809523646259,0.9213893967093265,2.4237584161923564e-10,0.9988762357133252,0
72,54.56388888888889,0.7000000000000028,0.7333333333333343,0.7513888888888864,0.931608133086883,0.03439814317222508,1.0459936521630153,58.333333333333336,0.9999999999828572,0.9759704251386366,3.606169229897205e-07,0.9979094669031134,0
73,55.297222222222224,0.7333333333333343,0.7305555555555543,0.74861111111111,0.9795918367346966,0.03197460558474118,0.9722976703888151,55.55555555555556,0.9523809523646259,0.9758812615955471,1.7483744452206906e-09,0.9994071659778175,0
74,56.02777777777778,0.7305555555555543,0.74722222222222,0.7402777777777771,0.9868667917448397,0.036022569215495376,1.0953899036165236,61.111111111111114,1.0476190476010885,1.0093808630393974,3.528015895426506e-06,0.9971737266411045,0
75,56.775,0.74722222222222,0.7472222222222271,0.7402777777777771,1.0093808630393974,0.03625687140977143,1.1025146663304164,63.888888888888886,1.0952380952193197,1.009380863039407,5.0624398681975435e-06,0.9975571914054246,0
76,57.522222222222226,0.7472222222222271,0.7361111111111072,0.7402777777777771,1.009380863039407,0.029058080307399488,0.8836107051884475,52.77777777777778,0.9047619047463946,0.9943714821763557,1.866265995909e-11,0.9985742992666644,0
77,58.25833333333333,0.7361111111111072,0.7250000000000014,0.7374999999999972,0.9981167608286238,0.03338648906795695,1.0152308355205297,58.333333333333336,0.9999999999828572,0.9830508474576328,3.221076383397303e-08,0.9984382596118784,0
78,58.983333333333334,0.7250000000000014,0.7638888888888857,0.7361111111111072,0.9849056603773657,0.033961198663958816,1.0327068541022688,58.333333333333336,0.9999999999828572,1.037735849056605,1.9060716738295014e-07,0.9977942558896749,0
79,59.74722222222222,0.7638888888888857,0.7472222222222271,0.7361111111111072,1.037735849056605,0.03294744260978035,1.0018801204555319,58.333333333333336,0.9999999999828572,1.0150943396226535,1.8188654138384663e-08,0.9975511790730092,0
80,60.49444444444445,0.7472222222222271,0.7194444444444414,0.7361111111111072,1.0150943396226535,0.034618830735556654,1.0527044152760237,58.333333333333336,0.9999999999828572,0.9773584905660389,9.84564181294445e-08,0.9984649326352814,0
81,61.21388888888889,0.7194444444444414,0.6000000000000014,0.7347222222222207,0.9792060491493363,0.031682767913387956,0.9634233439413342,55.55555555555556,0.9523809523646259,0.8166351606805329,2.4469475334853996e-09,0.9980229996318145,0
82,61.81388888888889,0.6000000000000014,0.8888888888888857,0.7347222222222207,0.8166351606805329,0.03808331155614564,1.158053850221764,127.77777777777777,2.1904761904386394,1.2098298676748565,0.9969964027404785,0.8693850888068764,1
83,62.702777777777776,0.8888888888888857,0.7666666666666657,0.7416666666666636,1.1985018726591767,0.03612077996568983,1.098376338691325,61.111111111111114,1.0476190476010885,1.0337078651685423,4.9148347613936494e-08,0.998391445077019,0
84,63.46944444444444,0.7666666666666657,0.5555555555555642,0.7472222222222236,1.0260223048327106,0.0340635787459465,1.035820072026006,58.333333333333336,0.9999999999828572,0.7434944237918318,3.332255005261686e-08,0.9985407508418591,0
85,64.025,0.5555555555555642,0.8138888888888829,0.7416666666666671,0.7490636704119963,0.029288370492943614,0.8906134690012657,55.55555555555556,0.9523809523646259,1.0973782771535492,1.57857830345165e-05,0.9974142765331127,0
86,64.83888888888889,0.8138888888888829,0.8027777777777771,0.7416666666666671,1.0973782771535492,0.028935024098940876,0.8798687586460862,52.77777777777778,0.9047619047463946,1.0823970037453168,3.2647563038418204e-12,0.9975650249897788,0
87,65.64166666666667,0.8027777777777771,0.8138888888888829,0.7555555555555564,1.062499999999998,0.030629656934468216,0.9313998886792876,55.55555555555556,0.9523809523646259,1.077205882352932,1.7816299824335857e-10,0.9984890937615504,0
88,66.45555555555555,0.8138888888888829,0.7861111111111114,0.7652777777777757,1.0635208711433708,0.032968112827405055,1.0025086693953982,58.333333333333336,0.9999999999828572,1.0272232304900213,2.1071608902190064e-09,0.9984143961380547,0
89,67.24166666666666,0.7861111111111114,0.76111111111112,0.7763888888888886,1.0125223613595715,0.035046687593539835,1.0657148721266767,61.111111111111114,1.0476190476010885,0.9803220035778293,1.0720212628712034e-07,0.9983663572522583,0
90,68.00277777777778,0.76111111111112,0.7722222222222257,0.7763888888888886,0.9803220035778293,0.03635057595839733,1.1053640748740914,61.111111111111114,1.0476190476010885,0.994633273703046,1.557066411805863e-06,0.9975473649202347,0
91,68.775,0.7722222222222257,0.7583333333333258,0.7791666666666686,0.9910873440285225,0.03558033603682629,1.0819422853730702,61.111111111111114,1.0476190476010885,0.9732620320855494,2.0903239317249245e-07,0.9990348117073268,0
92,69.53333333333333,0.7583333333333258,0.7833333333333314,0.7791666666666686,0.9732620320855494,0.0331185065808255,1.0070819078581583,58.333333333333336,0.9999999999828572,1.0053475935828828,9.005805878814499e-09,0.9992383124560473,0
93,70.31666666666666,0.7833333333333314,0.75,0.7777777777777786,1.0071428571428538,0.02988299939721143,0.9086952025455055,52.77777777777778,0.9047619047463946,0.9642857142857133,8.76675468330923e-12,0.9970729226336605,0
94,71.06666666666666,0.75,0.7388888888888943,0.7777777777777786,0.9642857142857133,0.03636270215887216,1.105732813635891,61.111111111111114,1.0476190476010885,0.950000000000006,1.0497242328710854e-06,0.998619295535971,0
95,71.80555555555556,0.7388888888888943,0.7611111111111057,0.7777777777777786,0.950000000000006,0.03216813484647423,0.9781825920913336,55.55555555555556,0.9523809523646259,0.9785714285714207,2.113129671243996e-09,0.9992838240934641,0
96,72.56666666666666,0.7611111111111057,0.50277777777778,0.7666666666666728,0.9927536231883908,0.031979655190511234,0.9724512209905135,55.55555555555556,0.9523809523646259,0.655797101449273,2.487547945406732e-10,0.9995278493168864,0
97,73.06944444444444,0.50277777777778,1.0138888888888857,0.7611111111111128,0.6605839416058408,0.045326340791488555,1.3783030236921865,127.77777777777777,2.1904761904386394,1.3321167883211606,0.9908034801483154,0.9394608477980135,1
98,74.08333333333333,1.0138888888888857,0.7361111111111143,0.7611111111111128,1.3321167883211606,0.03362719426823646,1.0225503036172348,55.55555555555556,0.9523809523646259,0.9671532846715348,2.894885123717189e-13,0.9977772086894114,0
99,74.81944444444444,0.7361111111111143,0.75,0.7597222222222157,0.9689213893967218,0.031068672629607455,0.9447496682885069,55.55555555555556,0.9523809523646259,0.9872029250457123,6.845295996704692e-10,0.9993182818042292,0
100,75.56944444444444,0.75,0.7138888888888886,0.7541666666666629,0.994475138121552,0.03207428023967398,0.9753286205136297,55.55555555555556,0.9523809523646259,0.946593001841625,1.0747124301602184e-09,0.9993787215401884,0
101,76.28333333333333,0.7138888888888886,0.75833333333334,0.75,0.9518518518518514,0.033335318627778734,1.0136748225887613,58.333333333333336,0.9999999999828572,1.01111111111112,1.0078317558281924e-07,0.9976796883969703,0
102,77.04166666666667,0.75833333333334,0.74444444444444,0.75,1.01111111111112,0.03169894511599491,0.9639152673324285,55.55555555555556,0.9523809523646259,0.9925925925925867,7.881804098275325e-10,0.9989737492380262,0
103,77.78611111111111,0.74444444444444,0.74166666666666,0.74722222222222,0.9962825278810379,0.03668867686428396,1.1156451938163934,63.888888888888886,1.0952380952193197,0.9925650557620759,1.3331246009329334e-05,0.9965559028653753,0
104,78.52777777777777,0.74166666666666,0.75277777777778,0.74305555555555,0.9981308411214939,0.03241254636333964,0.9856147634697926,55.55555555555556,0.9523809523646259,1.0130841121495433,9.112032905989054e-09,0.997305271932247,0
105,79.28055555555555,0.75277777777778,0.7916666666666714,0.74722222222222,1.0074349442379242,0.031573780739046056,0.9601092146885419,55.55555555555556,0.9523809523646259,1.0594795539033552,4.254804508718735e-09,0.9975125210060203,0
106,80.07222222222222,0.7916666666666714,0.75277777777778,0.74722222222222,1.0594795539033552,0.033193797078107753,1.0093713739444856,58.333333333333336,0.9999999999828572,1.0074349442379242,3.913926960308345e-09,0.9994844239550145,0
107,80.825,0.75277777777778,0.7361111111111143,0.75138888888889,1.0018484288354914,0.03358306632441411,1.0212084419681893,58.333333333333336,0.9999999999828572,0.9796672828096146,1.4254915470246488e-08,0.9994564926333329,0
108,81.56111111111112,0.7361111111111143,0.7611111111111057,0.74722222222222,0.9851301115241707,0.03477163411713331,1.057350926756541,58.333333333333336,0.9999999999828572,1.0185873605947913,1.384472767540501e-07,0.9992078600860137,0
109,82.32222222222222,0.7611111111111057,0.74444444444444,0.75138888888889,1.0129390018484201,0.031835738904631886,0.9680749521692874,55.55555555555556,0.9523809523646259,0.9907578558225435,6.477635094981338e-10,0.9994945581249217,0
110,83.06666666666666,0.74444444444444,0.7694444444444457,0.74861111111111,0.9944341372912757,0.03602919083445163,1.0955912566767922,63.888888888888886,1.0952380952193197,1.0278293135436025,3.2351135814678855e-06,0.998485348196176,0
111,83.83611111111111,0.7694444444444457,0.7694444444444457,0.75277777777778,1.0221402214022126,0.0352182261329985,1.070931090411388,58.333333333333336,0.9999999999828572,1.0221402214022126,1.2507859992183512e-07,0.9984601677766292,0
112,84.60555555555555,0.7694444444444457,0.75555555555556,0.75277777777778,1.0221402214022126,0.03268627799468989,0.9939385136023227,55.55555555555556,0.9523809523646259,1.0036900369003718,2.2821897704972116e-09,0.9985793484558565,0
113,85.36111111111111,0.75555555555556,0.73888888888888,0.75416666666667,1.0018416206261525,0.028705418143258492,0.8728868011915768,52.77777777777778,0.9047619047463946,0.9797421731123228,8.86201095146033e-12,0.9972537683656204,0
114,86.1,0.73888888888888,0.76111111111112,0.75416666666667,0.9797421731123228,0.03777168957816332,1.148577914000091,63.888888888888886,1.0952380952193197,1.0092081031307623,5.416778731159866e-05,0.9970804100954911,0
115,86.86111111111111,0.76111111111112,0.7361111111111143,0.7583333333333329,1.0036630036630159,0.033103382855008884,1.0066220190460784,58.333333333333336,0.9999999999828572,0.9706959706959755,1.208051170209501e-08,0.9978748442634764,0
116,87.59722222222223,0.7361111111111143,0.6944444444444429,0.75416666666667,0.9760589318600368,0.031724842242626505,0.9647027583876953,58.333333333333336,0.9999999999828572,0.9208103130755003,2.3359181255955264e-09,0.9994073795955527,0
117,88.29166666666667,0.6944444444444429,0.7333333333333343,0.75,0.9259259259259238,0.03351045328408569,1.0190003931538243,58.333333333333336,0.9999999999828572,0.9777777777777791,7.288149106443598e-08,0.9996773458446462,0
118,89.025,0.7333333333333343,0.7333333333333343,0.75,0.9777777777777791,0.03160361371416969,0.9610163887312866,58.333333333333336,0.9999999999828572,0.9777777777777791,5.063549135542189e-09,0.9979008174036835,0
119,89.75833333333334,0.7333333333333343,0.73888888888888,0.74166666666666,0.9887640449438303,0.035102436245006856,1.0674101012923671,61.111111111111114,1.0476190476010885,0.9962546816479371,5.879858235857682e-07,0.9982405851222804,0
120,90.49722222222222,0.73888888888888,0.75,0.73888888888888,1.0,0.03341602240697113,1.0161288980985397,58.333333333333336,0.9999999999828572,1.0150375939849745,5.0944343854553154e-08,0.9979280510679287,0
121,91.24722222222222,0.75,0.7333333333333343,0.73888888888888,1.0150375939849745,0.03039514450809385,0.9242687331365954,58.333333333333336,0.9999999999828572,0.992481203007532,4.95753604834448e-10,0.998726488096776,0
122,91.98055555555555,0.7333333333333343,0.7194444444444485,0.7374999999999972,0.9943502824858809,0.032301376916771665,0.9822342747369454,55.55555555555556,0.9523809523646259,0.9755178907721374,6.168827670904875e-09,0.9976470163957323,0
123,92.7,0.7194444444444485,0.7611111111111057,0.7347222222222243,0.9792060491493412,0.030459210245453505,0.926216871856288,52.77777777777778,0.9047619047463946,1.0359168241965873,7.311993233116709e-10,0.998629529302643,0
124,93.46111111111111,0.7611111111111057,0.7361111111111143,0.7347222222222243,1.0359168241965873,0.03639374008518681,1.106676628356903,63.888888888888886,1.0952380952193197,1.0018903591682435,4.394729785417439e-06,0.9974326166029633,0
125,94.19722222222222,0.7361111111111143,0.7222222222222285,0.7347222222222243,1.0018903591682435,0.033485587934499135,1.0182442768223083,58.333333333333336,0.9999999999828572,0.9829867674858281,3.9909949123284605e-08,0.9982864860715747,0
126,94.91944444444445,0.7222222222222285,0.7249999999999943,0.7333333333333343,0.9848484848484922,0.028174014273507228,0.8567276419104589,50.0,0.8571428571281633,0.9886363636363547,8.64616191142975e-12,0.9962634808863581,0
127,95.64444444444445,0.7249999999999943,0.74166666666666,0.7333333333333343,0.9886363636363547,0.0352434142576392,1.0716970218267017,58.333333333333336,0.9999999999828572,1.011363636363626,8.73261569722672e-07,0.9972229841325315,0
128,96.3861111111111,0.74166666666666,0.75555555555556,0.7347222222222243,1.009451795841198,0.03066893683275497,0.9325943288576379,52.77777777777778,0.9047619047463946,1.0283553875236326,7.681663638514635e-10,0.9965887609093649,0
129,97.14166666666667,0.75555555555556,0.74444444444444,0.7374999999999972,1.024482109227882,0.030581690873531176,0.9299413159008616,55.55555555555556,0.9523809523646259,1.0094161958568717,5.97893790033055e-10,0.9972772635198707,0
130,97.8861111111111,0.74444444444444,0.7250000000000085,0.7388888888888872,1.0075187969924775,0.034426598471299086,1.0468589332351006,61.111111111111114,1.0476190476010885,0.9812030075188108,1.1342601169417321e-07,0.9993637791978027,0
131,98.61111111111111,0.7250000000000085,0.7194444444444343,0.7347222222222243,0.9867674858223151,0.029823521488626017,0.9068865725124022,52.77777777777778,0.9047619047463946,0.9792060491493219,1.0561628654981448e-10,0.9982932316665891,0
132,99.33055555555555,0.7194444444444343,0.7250000000000085,0.7305555555555614,0.9847908745246932,0.03322583992600716,1.0103457467567676,58.333333333333336,0.9999999999828572,0.9923954372623611,5.6298798511988934e-08,0.9981741447637322,0
133,100.05555555555556,0.7250000000000085,0.7611111111111057,0.7305555555555614,0.9923954372623611,0.03383256038175437,1.0287951654411303,58.333333333333336,0.9999999999828572,1.0418250950570185,1.103869635699084e-07,0.9988243007386755,0
134,100.81666666666666,0.7611111111111057,0.7361111111111143,0.7305555555555614,1.0418250950570185,0.03155930087924612,0.9596689048334688,55.55555555555556,0.9523809523646259,1.0076045627376389,8.814969310044773e-10,0.998876125892214,0
135,101.55277777777778,0.7361111111111143,0.7249999999999943,0.7305555555555614,1.0076045627376389,0.0329514695173013,1.002002572405443,55.55555555555556,0.9523809523646259,0.9923954372623417,9.309935933288216e-09,0.9987862603012316,0
136,102.27777777777777,0.7249999999999943,0.75833333333334,0.7305555555555614,0.9923954372623417,0.030796279918787157,0.9364666326319901,52.77777777777778,0.9047619047463946,1.0380228136882137,1.3565907286405832e-09,0.99765631737126,0
137,103.03611111111111,0.75833333333334,0.7361111111111143,0.7388888888888872,1.0263157894736956,0.03313031141846403,1.007440874479493,58.333333333333336,0.9999999999828572,0.996240601503766,9.198137362886882e-09,0.9994376688483917,0
138,103.77222222222223,0.7361111111111143,0.75277777777778,0.7361111111111143,1.0,0.03613438765317792,1.0987901271525768,61.111111111111114,1.0476190476010885,1.022641509433961,1.866000388872635e-06,0.9988968667089655,0
139,104.525,0.75277777777778,0.7361111111111001,0.7361111111111143,1.022641509433961,0.033369605588153155,1.0147174353462014,58.333333333333336,0.9999999999828572,0.9999999999999807,2.3960167183645353e-08,0.9984023220934382,0
140,105.2611111111111,0.7361111111111001,0.7166666666666686,0.7361111111111072,0.9999999999999903,0.03348408054046424,1.0181984393309091,58.333333333333336,0.9999999999828572,0.9735849056603851,2.2513860997719348e-08,0.9993829678545334,0
141,105.97777777777777,0.7166666666666686,0.7277777777777743,0.7361111111111072,0.9735849056603851,0.031472030037864314,0.9570151352492431,55.55555555555556,0.9523809523646259,0.9886792452830194,2.755693673250903e-09,0.9987356704835526,0
142,106.70555555555555,0.7277777777777743,0.75,0.7361111111111072,0.9886792452830194,0.030766592333194672,0.9355638796571476,55.55555555555556,0.9523809523646259,1.0188679245283074,1.3935269604914424e-09,0.9984960560223015,0
143,107.45555555555555,0.75,0.7277777777777885,0.7361111111111143,1.0188679245282974,0.0351912925980345,1.0701120838021767,61.111111111111114,1.0476190476010885,0.9886792452830292,5.301735654938966e-07,0.9977597615866052,0
144,108.18333333333334,0.7277777777777885,0.7222222222222143,0.7361111111111072,0.9886792452830387,0.03306934378528915,1.0055869442551482,58.333333333333336,0.9999999999828572,0.9811320754716927,1.7617788117263444e-08,0.9994816580119038,0
145,108.90555555555555,0.7222222222222143,0.7138888888888886,0.7319444444444443,0.9867172675521716,0.0332335348854105,1.0105797384187374,58.333333333333336,0.9999999999828572,0.9753320683111952,2.948123700718952e-08,0.9991020040340985,0
146,109.61944444444444,0.7138888888888886,0.7333333333333343,0.7319444444444443,0.9753320683111952,0.033683006690389795,1.0242474719496049,58.333333333333336,0.9999999999828572,1.0018975332068327,1.1098186547542355e-07,0.998325508446708,0
147,110.35277777777777,0.7333333333333343,0.7388888888888943,0.7305555555555614,1.0038022813688146,0.030795546661208456,0.9364443354176062,58.333333333333336,0.9999999999828572,1.0114068441064632,1.9130921291576897e-09,0.9985281673289411,0
148,111.09166666666667,0.7388888888888943,0.75,0.7305555555555614,1.0114068441064632,0.033346974134979016,1.014029248305382,58.333333333333336,0.9999999999828572,1.026615969581741,5.271520109317862e-08,0.9980831900896765,0
149,111.84166666666667,0.75,0.7166666666666686,0.7305555555555614,1.026615969581741,0.03077869027180124,0.935931759019803,52.77777777777778,0.9047619047463946,0.9809885931558883,1.2256003156796424e-10,0.9987267469238739,0
150,112.55833333333334,0.7166666666666686,0.7194444444444343,0.7277777777777814,0.9847328244274786,0.03464173310104264,1.0534008403358857,61.111111111111114,1.0476190476010885,0.9885496183205918,3.9261578876903513e-07,0.9992183124057956,0
151,113.27777777777777,0.7194444444444343,0.7694444444444457,0.7277777777777814,0.9885496183205918,0.03328098941374916,1.012022756292118,58.333333333333336,0.9999999999828572,1.057251908396943,6.696354404311933e-08,0.9991876886478005,0
152,114.04722222222222,0.7694444444444457,0.7638888888888999,0.7305555555555614,1.0532319391634914,0.03128847917192288,0.9514336409324571,55.55555555555556,0.9523809523646259,1.0456273764258623,6.457452905728189e-10,0.9993995258220649,0
153,114.81111111111112,0.7638888888888999,0.7527777777777658,0.7305555555555614,1.0456273764258623,0.03489556124039351,1.0611193564538062,61.111111111111114,1.0476190476010885,1.0304182509505457,2.812304273902555e-07,0.9984693965202873,0
154,115.56388888888888,0.7527777777777658,0.7361111111111143,0.7361111111111143,1.0226415094339416,0.03072445276323077,0.9342824813425226,55.55555555555556,0.9523809523646259,1.0,7.403082591395105e-10,0.9971303206037659,0
155,116.3,0.7361111111111143,0.75555555555556,0.7375000000000043,0.9981167608286238,0.02878048882933905,0.8751695831635755,50.0,0.8571428571281633,1.024482109227872,1.8638576793073014e-11,0.9961941059231898,0
156,117.05555555555556,0.75555555555556,0.75555555555556,0.7444444444444471,1.0149253731343306,0.03304042527113762,1.0047075775381413,58.333333333333336,0.9999999999828572,1.0149253731343306,1.0506004954891068e-08,0.999267288959587,0
157,117.81111111111112,0.75555555555556,0.7611111111111057,0.7513888888888829,1.0055452865064833,0.03460314918436678,1.0522275638681278,58.333333333333336,0.9999999999828572,1.0129390018484299,8.470154000406183e-08,0.9984493950636526,0
158,118.57222222222222,0.7611111111111057,0.43055555555555713,0.7541666666666629,1.009208103130753,0.03528691769926954,1.0730198933423165,61.111111111111114,1.0476190476010885,0.570902394106819,4.2246156795044953e-07,0.9982842046825904,0
159,119.00277777777778,0.43055555555555713,0.42499999999999716,0.7541666666666629,0.570902394106819,0.04624388785259953,1.4062041925627744,75.0,1.285714285692245,0.5635359116022091,0.9982478618621826,0.3231858292669055,1
160,119.42777777777778,0.42499999999999716,1.1722222222222172,0.7541666666666629,0.5635359116022091,0.03752219700921739,1.14099123578689,66.66666666666667,1.1428571428375511,1.554327808471456,0.9584084749221802,0.9711350221378448,1
161,120.6,1.1722222222222172,0.6083333333333343,0.75555555555556,1.5514705882352784,0.03606472158125339,1.096671691031204,63.888888888888886,1.0952380952193197,0.805147058823526,5.877049281260982e-12,0.997264814316377,0
162,121.20833333333333,0.6083333333333343,1.1416666666666657,0.7541666666666629,0.8066298342541489,0.03572738590690172,1.0864138415812115,66.66666666666667,1.1428571428375511,1.513812154696139,0.9978589415550232,0.6703303883875091,1
163,122.35,1.1416666666666657,0.7777777777777857,0.7541666666666629,1.513812154696139,0.03358299020415297,1.021206127270284,58.333333333333336,0.9999999999828572,1.0313075506445828,4.949341836298386e-15,0.9989889505145253,0
164,123.12777777777778,0.7777777777777857,0.7222222222222143,0.75555555555556,1.0294117647058867,0.03563479660257953,1.083598345869879,61.111111111111114,1.0476190476010885,0.9558823529411604,2.2412858413645154e-07,0.9986301079366796,0
165,123.85,0.7222222222222143,0.8166666666666771,0.75555555555556,0.9558823529411604,0.03769830496442149,1.1463464028468269,69.44444444444444,1.1904761904557823,1.080882352941184,0.6733472943305969,0.9819172883161594,1
166,124.66666666666667,0.8166666666666771,0.7888888888888772,0.7583333333333329,1.0769230769230913,0.033054517624598365,1.0051361039324347,55.55555555555556,0.9523809523646259,1.0402930402930255,8.784372118597616e-10,0.9989521129767467,0
167,125.45555555555555,0.7888888888888772,0.7222222222222285,0.7694444444444457,1.0252707581227267,0.033121721329806834,1.0071796633390557,58.333333333333336,0.9999999999828572,0.938628158844772,2.6012123566232503e-09,0.9993278857236052,0
168,126.17777777777778,0.7222222222222285,0.75,0.7500000000000071,0.9629629629629622,0.04003926294702476,1.2175312681903876,77.77777777777777,1.3333333333104762,0.9999999999999906,0.8156136274337769,0.9838662334117478,1
169,126.92777777777778,0.75,0.75833333333334,0.7638888888888928,0.9818181818181767,0.03399387699963269,1.0337005511023358,58.333333333333336,0.9999999999828572,0.9927272727272762,3.585763863611646e-08,0.9986590081573717,0
170,127.68611111111112,0.75833333333334,0.6888888888888829,0.7680555555555628,0.987341772151898,0.03171322181962302,0.964349399526543,55.55555555555556,0.9523809523646259,0.8969258589511591,5.801731872701055e-10,0.9988242646222775,0
171,128.375,0.6888888888888829,0.7916666666666572,0.75416666666667,0.9134438305708904,0.03700198337050109,1.12517235390302,72.22222222222223,1.2380952380740138,1.0497237569060602,0.8317627906799316,0.9825325109034785,1
172,129.16666666666666,0.7916666666666572,0.7361111111111143,0.7680555555555628,1.0307414104882238,0.03325219889959963,1.0111472818546714,58.333333333333336,0.9999999999828572,0.9584086799276623,2.5639437239988183e-09,0.9995572114444067,0
173,129.90277777777777,0.7361111111111143,0.6388888888888857,0.75416666666667,0.9760589318600368,0.03130503799514629,0.9519371688087224,55.55555555555556,0.9523809523646259,0.847145488029458,3.491130717847568e-10,0.9997324105046592,0
174,130.54166666666666,0.6388888888888857,0.8388888888889028,0.7430555555555571,0.8598130841121434,0.03790882116646044,1.1527478707954808,83.33333333333333,1.4285714285469386,1.1289719626168386,0.9905111193656921,0.9815562010886179,1
175,131.38055555555556,0.8388888888889028,0.7638888888888857,0.75416666666667,1.1123388581952254,0.034685593730889086,1.054734573385648,58.333333333333336,0.9999999999828572,1.0128913443830485,6.833129173600128e-09,0.9995154066985017,0
176,132.14444444444445,0.7638888888888857,0.5194444444444457,0.75416666666667,1.0128913443830485,0.03346393646963098,1.0175858896908072,61.111111111111114,1.0476190476010885,0.6887661141804775,2.5202357534226394e-08,0.9993718244416038,0
177,132.6638888888889,0.5194444444444457,0.9222222222222172,0.7430555555555571,0.6990654205607478,0.04051922098066412,1.2321260401807774,77.77777777777777,1.3333333333104762,1.2411214953270933,0.9912358522415161,0.9776276020771578,1
178,133.5861111111111,0.9222222222222172,0.76111111111112,0.75416666666667,1.2228360957642606,0.03130085843897116,0.9518100750523484,55.55555555555556,0.9523809523646259,1.0092081031307623,9.688207267682936e-13,0.9963149555138385,0
179,134.34722222222223,0.76111111111112,0.5444444444444514,0.75972222222223,1.001828153564901,0.033708983989275465,1.0250374009175351,61.111111111111114,1.0476190476010885,0.7166361974405868,5.132158165110923e-08,0.9982257816704109,0
180,134.89166666666668,0.5444444444444514,0.9527777777777544,0.7486111111111171,0.7272727272727307,0.040731613540131106,1.238584565219667,83.33333333333333,1.4285714285469386,1.2727272727272314,0.9924435019493103,0.9766090325726278,1
181,135.84444444444443,0.9527777777777544,0.7361111111111143,0.7625000000000028,1.2495446265937715,0.033046825152250714,1.0049021878979327,58.333333333333336,0.9999999999828572,0.9653916211293266,5.7610582970824e-12,0.9993014946887537,0
182,136.58055555555555,0.7361111111111143,0.5388888888888914,0.7486111111111171,0.9833024118738368,0.03326420444689836,1.0115123517423783,58.333333333333336,0.9999999999828572,0.7198515769944317,1.4560376015992915e-08,0.9996453571061499,0
183,137.11944444444444,0.5388888888888914,0.9222222222222172,0.7486111111111171,0.7198515769944317,0.04109466664691415,1.249624441505773,88.88888888888889,1.5238095237834013,1.2319109461966438,0.9913285374641418,0.9680392209573366,1
184,138.04166666666666,0.9222222222222172,0.6888888888888971,0.7625000000000028,1.2094717668488049,0.0332122010208184,1.009931009014138,55.55555555555556,0.9523809523646259,0.9034608378870748,8.160455818029266e-12,0.9982806005889706,0
185,138.73055555555555,0.6888888888888971,0.6166666666666742,0.7486111111111171,0.9202226345083524,0.051538481023881325,1.5672044773810019,144.44444444444446,2.4761904761480276,0.8237476808905415,0.9919120073318481,0.8234316556344071,1
186,139.34722222222223,0.6166666666666742,0.9055555555555372,0.7125000000000057,0.8654970760233955,0.03715262256358589,1.1297530558015134,80.55555555555556,1.3809523809287076,1.270955165691972,0.9957281947135925,0.9792886136146401,1
187,140.25277777777777,0.9055555555555372,0.7305555555555543,0.7486111111111171,1.2096474953617469,0.030380228309997266,0.9238151549174073,52.77777777777778,0.9047619047463946,0.9758812615955378,3.4245331993320444e-14,0.9985316597441365,0
188,140.98333333333332,0.7305555555555543,0.7750000000000057,0.7333333333333343,0.9962121212121182,0.034159018211949645,1.0387222366895252,58.333333333333336,0.9999999999828572,1.056818181818188,1.7137141128387157e-07,0.9986196009779658,0
189,141.75833333333333,0.7750000000000057,0.7222222222222285,0.7333333333333343,1.056818181818188,0.034878243289887326,1.0605927447059789,58.333333333333336,0.9999999999828572,0.9848484848484922,6.475763569824267e-08,0.9989649996281649,0
190,142.48055555555555,0.7222222222222285,0.7055555555555486,0.7333333333333343,0.9848484848484922,0.04057160164308773,1.2337188540753201,75.0,1.285714285692245,0.9621212121212014,0.7330740094184875,0.9808378850600636,1
191,143.1861111111111,0.7055555555555486,0.7249999999999943,0.7263888888888914,0.971319311663467,0.03467989501572373,1.054561284384012,58.333333333333336,0.9999999999828572,0.9980879541108874,3.964157997415896e-07,0.9986192206329672,0
192,143.9111111111111,0.7249999999999943,0.7222222222222285,0.7236111111111114,1.0019193857965367,0.027134660313282558,0.8251225160377541,50.0,0.8571428571281633,0.9980806142034632,2.8014994837843865e-12,0.9954771258053665,0
193,144.63333333333333,0.7222222222222285,0.7333333333333485,0.7236111111111114,0.9980806142034632,0.03747710709114429,1.1396201220077282,61.111111111111114,1.0476190476010885,1.0134357005758363,2.9547849408118054e-05,0.9975149030325088,0
194,145.36666666666667,0.7333333333333485,0.7416666666666458,0.7236111111111114,1.0134357005758363,0.03782593506173597,1.1502274341846954,66.66666666666667,1.1428571428375511,1.024952015355057,0.0016500045312568545,0.9933666564454959,0
195,146.10833333333332,0.7416666666666458,0.7027777777777828,0.7277777777777743,1.019083969465625,0.03436564823266525,1.045005531951502,61.111111111111114,1.0476190476010885,0.9656488549618436,1.1959603796185547e-07,0.9994303866235121,0
196,146.8111111111111,0.7027777777777828,0.7027777777777828,0.7277777777777743,0.9656488549618436,0.03216813121576176,0.9781824816870545,55.55555555555556,0.9523809523646259,0.9656488549618436,5.653647772163595e-09,0.9994979754959885,0
197,147.51388888888889,0.7027777777777828,0.7416666666666742,0.7236111111111114,0.97120921305183,0.035080054418492275,1.0667295050072465,58.333333333333336,0.9999999999828572,1.0249520153550964,9.271942644772935e-07,0.9984960166254668,0
198,148.25555555555556,0.7416666666666742,0.7472222222222058,0.7236111111111114,1.0249520153550964,0.0416029988890833,1.26508202873182,75.0,1.285714285692245,1.0326295585412437,0.7176148295402527,0.9828312972074795,1
199,149.00277777777777,0.7472222222222058,0.700000000000017,0.7236111111111114,1.0326295585412437,0.034423516977655756,1.0467652298402992,58.333333333333336,0.9999999999828572,0.9673704414587564,9.066252459888346e-08,0.9987347200056472,0
200,149.70277777777778,0.700000000000017,0.7027777777777828,0.7236111111111114,0.9673704414587564,0.033973260275986024,1.0330736288305482,58.333333333333336,0.9999999999828572,0.97120921305183,1.4338034759475704e-07,0.9989990065437659,0
201,150.40555555555557,0.7027777777777828,0.6972222222222229,0.7236111111111114,0.97120921305183,0.036598231263721186,1.112894884778459,58.333333333333336,0.9999999999828572,0.9635316698656434,1.5780604371684603e-05,0.9952193195659957,0
202,151.1027777777778,0.6972222222222229,0.7805555555555372,0.7125000000000057,0.9785575048732874,0.034798013411818214,1.0581530797870344,63.888888888888886,1.0952380952193197,1.0955165692007454,8.814240572974086e-05,0.9935146676619389,0
203,151.88333333333333,0.7805555555555372,0.75,0.7180555555555657,1.0870406189554718,0.0393393187611857,1.1962470619008099,66.66666666666667,1.1428571428375511,1.0444874274661362,0.0014254371635615826,0.995057204187271,0
204,152.63333333333333,0.75,0.7333333333333485,0.7222222222222143,1.0384615384615499,0.029135074519755336,0.8859519785814409,52.77777777777778,0.9047619047463946,1.0153846153846475,8.816529450950128e-11,0.9957208607856125,0
205,153.36666666666667,0.7333333333333485,0.6777777777777771,0.7180555555555657,1.0212765957446877,0.0346361696515366,1.0532316645510675,58.333333333333336,0.9999999999828572,0.9439071566731,1.9686596886003827e-07,0.9984317184263491,0
206,154.04444444444445,0.6777777777777771,0.8277777777777828,0.7180555555555657,0.9439071566731,0.03896045208410329,1.1847263197124849,69.44444444444444,1.1904761904557823,1.1528046421663352,0.8283103704452515,0.9865676830849299,1
207,154.87222222222223,0.8277777777777828,0.7638888888888857,0.7375000000000114,1.1224105461393492,0.034203543350674326,1.0400761764133795,61.111111111111114,1.0476190476010885,1.0357815442561003,1.4390743707792808e-08,0.9995812001859966,0
208,155.63611111111112,0.7638888888888857,0.7416666666666458,0.7402777777777771,1.0318949343339554,0.03354502042631322,1.020051525802537,55.55555555555556,0.9523809523646259,1.0018761726078527,7.583157213275626e-09,0.9989293693180628,0
209,156.37777777777777,0.7416666666666458,0.705555555555577,0.7374999999999972,1.0056497175141,0.031128329233241755,0.9465637321581366,55.55555555555556,0.9523809523646259,0.9566854990584133,4.4407971744320207e-10,0.9993444892854532,0
210,157.08333333333334,0.705555555555577,0.75,0.7374999999999972,0.9566854990584133,0.04090790128767515,1.2439451994830326,75.0,1.285714285692245,1.0169491525423768,0.8219498991966248,0.9814169243204773,1
211,157.83333333333334,0.75,0.73888888888888,0.7458333333333229,1.005586592178785,0.037068862908438444,1.1272060558907062,63.888888888888886,1.0952380952193197,0.9906890130353837,3.286227001808584e-05,0.9954470182706285,0
212,158.57222222222222,0.73888888888888,0.75,0.7458333333333229,0.9906890130353837,0.03475054529698116,1.0567096487695198,58.333333333333336,0.9999999999828572,1.005586592178785,6.220942623258452e-07,0.9955458721228299,0
213,159.32222222222222,0.75,0.6916666666666629,0.7458333333333229,1.005586592178785,0.03648546376037764,1.1094658016422836,61.111111111111114,1.0476190476010885,0.9273743016759856,2.5151728095806902e-06,0.997151817407878,0
214,160.01388888888889,0.6916666666666629,0.700000000000017,0.7402777777777629,0.9343339587242162,0.03771302984285545,1.1467941633347603,63.888888888888886,1.0952380952193197,0.9455909943715242,0.002119838958606124,0.9928230499818569,0
215,160.7138888888889,0.700000000000017,0.7361111111110858,0.7402777777777629,0.9455909943715242,0.04068244050232687,1.2370892901653339,69.44444444444444,1.1904761904557823,0.9943714821763461,0.4053485095500946,0.9908171747205092,0
216,161.45,0.7361111111110858,0.7361111111111143,0.7402777777777629,0.9943714821763461,0.03518488821927241,1.0699173366759247,61.111111111111114,1.0476190476010885,0.9943714821763844,1.3053277143626474e-06,0.9965307147266271,0
217,162.1861111111111,0.7361111111111143,0.7027777777777828,0.7374999999999972,0.9981167608286333,0.03483584893559302,1.0593035987989639,61.111111111111114,1.0476190476010885,0.9529190207156414,8.624764973319543e-07,0.9962029519015996,0
218,162.88888888888889,0.7027777777777828,0.700000000000017,0.7361111111111001,0.9547169811320967,0.03371452152137235,1.0252057885945383,58.333333333333336,0.9999999999828572,0.9509433962264525,1.4360641387156647e-07,0.9976831280672878,0
219,163.5888888888889,0.700000000000017,0.46944444444443434,0.7208333333333314,0.9710982658959799,0.03392455950760444,1.031592714749589,58.333333333333336,0.9999999999828572,0.6512524084778297,2.340980103099355e-07,0.9981106192924857,0
220,164.05833333333334,0.46944444444443434,0.9361111111111029,0.7194444444444343,0.6525096525096477,0.03981944550472005,1.2108469640948372,75.0,1.285714285692245,1.301158301158308,0.9818974137306213,0.9853076523580981,1
221,164.99444444444444,0.9361111111111029,0.7333333333333485,0.7194444444444343,1.301158301158308,0.036984452352279984,1.124639263099734,61.111111111111114,1.0476190476010885,1.0193050193050548,1.0240366776770315e-07,0.9969677395776824,0
222,165.7277777777778,0.7333333333333485,0.7055555555555486,0.7180555555555657,1.0212765957446877,0.03492222538151648,1.061930171218294,61.111111111111114,1.0476190476010885,0.982591876208874,3.609809482441051e-07,0.9993844471306317,0
223,166.43333333333334,0.7055555555555486,0.7055555555555486,0.7041666666666657,1.0019723865877628,0.03563331366157259,1.0835532519567563,61.111111111111114,1.0476190476010885,1.0019723865877628,4.041340616822708e-06,0.998297877907034,0
224,167.13888888888889,0.7055555555555486,0.7333333333333485,0.7055555555555486,1.0,0.03259258057808343,0.9910893219321871,58.333333333333336,0.9999999999828572,1.0393700787401892,9.568275771698609e-08,0.99771854061519,0
225,167.87222222222223,0.7333333333333485,0.7527777777777658,0.7194444444444485,1.0193050193050346,0.034941697327946754,1.0625222826081253,61.111111111111114,1.0476190476010885,1.0463320463320236,9.185970384351094e-07,0.9984162239057479,0
226,168.625,0.7527777777777658,0.7194444444444343,0.7194444444444485,1.0463320463320236,0.03469599853225696,1.0550509670970272,58.333333333333336,0.9999999999828572,0.9999999999999802,1.2406830762756726e-07,0.9990187605561281,0
227,169.34444444444443,0.7194444444444343,0.705555555555577,0.7124999999999915,1.009746588693955,0.032422341487505106,0.9859126178524531,55.55555555555556,0.9523809523646259,0.9902534113060849,1.1200533833743975e-08,0.9987056561432427,0
228,170.05,0.705555555555577,0.7222222222222001,0.7125000000000057,0.9902534113060651,0.03443290376251772,1.0470506672643682,58.333333333333336,0.9999999999828572,1.0136452241715008,4.2004595002254064e-07,0.9985551586688302,0
229,170.7722222222222,0.7222222222222001,0.7111111111111086,0.7208333333333172,1.0019267822735949,0.03225451416555692,0.9808092518789355,55.55555555555556,0.9523809523646259,0.986512524084797,8.219892322358646e-09,0.9982973504740273,0
230,171.48333333333332,0.7111111111111086,0.7277777777777885,0.7208333333333172,0.986512524084797,0.03803990189594971,1.156733830452669,61.111111111111114,1.0476190476010885,1.0096339113680528,0.00011123353033326566,0.9969904290526723,0
231,172.2111111111111,0.7277777777777885,0.5361111111111256,0.7208333333333172,1.0096339113680528,0.03341845880524617,1.0162029851536776,55.55555555555556,0.9523809523646259,0.7437379576108267,1.7967083820735752e-08,0.9986517097953551,0
232,172.74722222222223,0.5361111111111256,0.7861111111110972,0.7152777777777715,0.7495145631068231,0.032580567581039,0.9907240255093827,58.333333333333336,0.9999999999828572,1.0990291262135825,0.000345530774211511,0.9989612536125987,0
233,173.53333333333333,0.7861111111110972,0.7638888888888857,0.7208333333333172,1.09055876685935,0.03468302487454433,1.0546564584880944,58.333333333333336,0.9999999999828572,1.0597302504817148,7.982450256349694e-08,0.9990351540862509,0
234,174.29722222222222,0.7638888888888857,0.6638888888888914,0.7249999999999943,1.053639846743299,0.034742131479709504,1.0564537977658028,61.111111111111114,1.0476190476010885,0.915708812260547,2.1347578638142295e-07,0.9985870956854146,0
235,174.9611111111111,0.6638888888888914,0.8499999999999943,0.7208333333333172,0.9210019267822976,0.03847509090282502,1.1699672464659572,63.888888888888886,1.0952380952193197,1.1791907514451052,0.010205957107245922,0.9971098375614922,0
236,175.8111111111111,0.8499999999999943,0.7361111111111143,0.7208333333333172,1.1791907514451052,0.03400378042779421,1.0340016988398675,58.333333333333336,0.9999999999828572,1.0211946050096612,5.89469495437811e-09,0.9982151281836817,0
237,176.54722222222222,0.7361111111111143,0.7222222222222285,0.7249999999999943,1.0153256704980966,0.03142658685180807,0.9556332791440776,55.55555555555556,0.9523809523646259,0.9961685823754954,1.218266376667998e-09,0.9995261592659533,0
238,177.26944444444445,0.7222222222222285,0.7638888888888857,0.7250000000000085,0.9961685823754759,0.029850451467113442,0.907705470974732,52.77777777777778,0.9047619047463946,1.0536398467432784,4.2096137686797874e-10,0.9982687975984719,0
239,178.03333333333333,0.7638888888888857,0.7527777777777658,0.7319444444444514,1.0436432637571016,0.034884305844073475,1.060777097482315,61.111111111111114,1.0476190476010885,1.0284629981024407,4.124946713091049e-07,0.9974854428936685,0
240,178.7861111111111,0.7527777777777658,0.7722222222222399,0.74444444444444,1.0111940298507363,0.035034163857508016,1.065334044931294,55.55555555555556,0.9523809523646259,1.0373134328358509,1.2664450821375794e-07,0.9979979595850477,0
241,179.55833333333334,0.7722222222222399,0.73888888888888,0.7583333333333258,1.0183150183150518,0.03420377805058841,1.0400833132701297,58.333333333333336,0.9999999999828572,0.9743589743589725,1.6841498862163462e-08,0.9993570691947993,0
242,180.29722222222222,0.73888888888888,0.7166666666666686,0.7583333333333258,0.9743589743589725,0.03374095159648836,1.0260094857783983,58.333333333333336,0.9999999999828572,0.945054945054957,2.7035602201408437e-08,0.9989528972964563,0
243,181.01388888888889,0.7166666666666686,0.7416666666666742,0.7458333333333229,0.9608938547486193,0.03386538926252405,1.0297934402817452,58.333333333333336,0.9999999999828572,0.9944134078212531,1.0765393909650811e-07,0.9983047857644891,0
244,181.75555555555556,0.7416666666666742,0.7527777777777658,0.7402777777777771,1.001876172607891,0.033171557807636004,1.0086951125653256,55.55555555555556,0.9523809523646259,1.016885553470904,1.1319837511791775e-08,0.9988627078569163,0
245,182.50833333333333,0.7527777777777658,0.7138888888889028,0.74722222222222,1.0074349442379051,0.035370363544427116,1.075557350782888,61.111111111111114,1.0476190476010885,0.9553903345725121,2.899559774505178e-07,0.9988852132156453,0
246,183.22222222222223,0.7138888888889028,0.7027777777777828,0.7402777777777771,0.9643527204503011,0.031194938377717956,0.948589211904217,52.77777777777778,0.9047619047463946,0.9493433395872497,5.68659785926684e-10,0.9987164516726956,0
247,183.925,0.7027777777777828,0.7305555555555543,0.7402777777777771,0.9493433395872497,0.03566870040474763,1.0846293073864488,61.111111111111114,1.0476190476010885,0.9868667917448397,1.6806014855319518e-06,0.999097173169154,0
248,184.65555555555557,0.7305555555555543,0.7333333333333201,0.7402777777777771,0.9868667917448397,0.033124114123276795,1.007252424440374,58.333333333333336,0.9999999999828572,0.9906191369605833,2.066520110588499e-08,0.9991664268832134,0
249,185.38888888888889,0.7333333333333201,0.61388888888888,0.7361111111111001,0.9962264150943365,0.02987204431372189,0.9083620756167756,52.77777777777778,0.9047619047463946,0.8339622641509439,2.4058862541087578e-11,0.998261014432465,0
250,186.00277777777777,0.61388888888888,0.7833333333333314,0.7319444444444372,0.8387096774193511,0.030805182463451108,0.9367373450701577,58.333333333333336,0.9999999999828572,1.0702087286527595,7.565678856735758e-07,0.9986967743124109,0
251,186.7861111111111,0.7833333333333314,0.7666666666666799,0.7319444444444372,1.0702087286527595,0.03653876970748669,1.1110867519947327,61.111111111111114,1.0476190476010885,1.0474383301708066,2.6330417313147336e-06,0.9970396359267288,0
252,187.55277777777778,0.7666666666666799,0.61944444444444,0.7319444444444372,1.0474383301708066,0.03766839313049725,1.1454368308314815,63.888888888888886,1.0952380952193197,0.8462998102466817,3.0391805921681225e-05,0.9972513347903428,0
253,188.17222222222222,0.61944444444444,0.8916666666666799,0.7319444444444372,0.8462998102466817,0.037109647101289264,1.128446239310403,138.88888888888889,2.3809523809115647,1.218216318785609,0.9975849390029907,0.8769501497718253,1
254,189.0638888888889,0.8916666666666799,0.7472222222222058,0.7319444444444372,1.218216318785609,0.03241349451235773,0.9856435951962397,55.55555555555556,0.9523809523646259,1.02087286527513,1.6189492454965482e-11,0.9986655324763714,0
255,189.8111111111111,0.7472222222222058,0.7388888888889085,0.7319444444444372,1.02087286527513,0.03559918466723243,1.082515442698978,61.111111111111114,1.0476190476010885,1.0094876660341923,1.3939869631940383e-06,0.9972538142468911,0
256,190.55,0.7388888888889085,0.7527777777777658,0.7361111111111143,1.0037735849056826,0.035584522887323645,1.082069600938357,61.111111111111114,1.0476190476010885,1.0226415094339416,8.049345865401847e-07,0.9991400908742505,0
257,191.30277777777778,0.7527777777777658,0.74444444444444,0.7430555555555571,1.0130841121495144,0.031837179172686664,0.9681187484647784,55.55555555555556,0.9523809523646259,1.0018691588784967,1.5564814992430342e-09,0.9985442694339235,0
258,192.04722222222222,0.74444444444444,0.7583333333333258,0.7458333333333229,0.9981378026070844,0.038106716431150774,1.1587655558089658,63.888888888888886,1.0952380952193197,1.016759776536317,0.00012244995741639286,0.9961984460444328,0
259,192.80555555555554,0.7583333333333258,0.7416666666666742,0.7499999999999858,1.0111111111111202,0.037168783757316054,1.130244492387741,61.111111111111114,1.0476190476010885,0.9888888888889177,3.032577069461695e-06,0.9983722931791084,0
260,193.54722222222222,0.7416666666666742,0.7416666666666742,0.7499999999999858,0.9888888888889177,0.029405584875378966,0.8941777747649728,52.77777777777778,0.9047619047463946,0.9888888888889177,3.9458394884839265e-11,0.9982153610822703,0
261,194.2888888888889,0.7416666666666742,0.7249999999999943,0.7458333333333229,0.9944134078212531,0.03599650582517583,1.094597356742944,61.111111111111114,1.0476190476010885,0.9720670391061512,1.1567299225134775e-06,0.998218091330314,0
262,195.01388888888889,0.7249999999999943,0.76111111111112,0.7430555555555571,0.9757009345794295,0.033994523893053435,1.0337202221179584,58.333333333333336,0.9999999999828572,1.0242990654205704,1.1277366951389922e-07,0.9986069923152059,0
263,195.775,0.76111111111112,0.7472222222222058,0.7458333333333229,1.0204841713221862,0.033271217231063126,1.0117255995239116,58.333333333333336,0.9999999999828572,1.0018621973929156,1.2896162360220842e-08,0.9987344433811388,0
264,196.5222222222222,0.7472222222222058,0.7361111111111143,0.7458333333333229,1.0018621973929156,0.03634054108546878,1.1050589301070914,61.111111111111114,1.0476190476010885,0.9869646182495525,3.06112247017154e-06,0.9968326973889592,0
265,197.25833333333333,0.7361111111111143,0.7472222222222342,0.7430555555555571,0.9906542056074787,0.036020179233840516,1.095317228018098,61.111111111111114,1.0476190476010885,1.005607476635528,1.6894202872208552e-06,0.9982900417291597,0
266,198.00555555555556,0.7472222222222342,0.7249999999999943,0.7458333333333229,1.0018621973929538,0.031953958548527665,0.9716698263593514,55.55555555555556,0.9523809523646259,0.9720670391061512,1.755337875053442e-09,0.9983296293710876,0
267,198.73055555555555,0.7249999999999943,0.75,0.7430555555555571,0.9757009345794295,0.03703780291313721,1.1262615700863814,61.111111111111114,1.0476190476010885,1.0093457943925213,1.2108504051866475e-05,0.9974206642788286,0
268,199.48055555555555,0.75,0.73888888888888,0.74444444444444,1.00746268656717,0.03244431059129466,0.9865806638860001,55.55555555555556,0.9523809523646259,0.9925373134328298,3.2556020101992544e-09,0.9984482853272907,0
269,200.21944444444443,0.73888888888888,0.7305555555555543,0.7416666666666742,0.996254681647918,0.03238938367344317,0.9849104223523835,55.55555555555556,0.9523809523646259,0.9850187265917485,5.200006203409657e-09,0.9979786897352416,0
270,200.95,0.7305555555555543,0.7194444444444628,0.7402777777777771,0.9868667917448397,0.034340055558709184,1.0442272988251995,58.333333333333336,0.9999999999828572,0.9718574108818266,1.4369518908097234e-07,0.9977249269988028,0
271,201.66944444444445,0.7194444444444628,0.7694444444444457,0.7374999999999972,0.9755178907721567,0.03242940588567697,0.9861274351350932,52.77777777777778,0.9047619047463946,1.0433145009416254,9.549856905266552e-09,0.9985195784435097,0
272,202.4388888888889,0.7694444444444457,0.74444444444444,0.7430555555555429,1.035514018691608,0.03827722152633678,1.1639503486721463,61.111111111111114,1.0476190476010885,1.0018691588785158,1.645622069190722e-05,0.9973179962182105,0
273,203.18333333333334,0.74444444444444,0.74444444444444,0.74166666666666,1.003745318352063,0.035262826341641434,1.0722873128938657,61.111111111111114,1.0476190476010885,1.003745318352063,4.148621428612387e-07,0.9988775207422483,0
274,203.92777777777778,0.74444444444444,0.7277777777777885,0.74166666666666,1.003745318352063,0.03093171837159738,0.9405851038293733,55.55555555555556,0.9523809523646259,0.9812734082397236,5.048088613790469e-10,0.9986526175295454,0
275,204.65555555555557,0.7277777777777885,0.7333333333333201,0.74166666666666,0.9812734082397236,0.03642444354828967,1.1076102725755521,61.111111111111114,1.0476190476010885,0.9887640449438112,4.199348040856421e-06,0.9975818122631008,0
276,205.38888888888889,0.7333333333333201,0.75,0.7361111111111001,0.9962264150943365,0.0315031915574417,0.9579627082477767,55.55555555555556,0.9523809523646259,1.0188679245283172,1.771114033211063e-09,0.9995372516825619,0
277,206.13888888888889,0.75,0.7527777777777942,0.74166666666666,1.011235955056189,0.03338541768419786,1.0151982564186455,55.55555555555556,0.9523809523646259,1.0149812734082708,1.0823491436440236e-08,0.9988928690518267,0
278,206.89166666666668,0.7527777777777942,0.7194444444444343,0.74166666666666,1.0149812734082708,0.03660793379111983,1.1131899234384852,61.111111111111114,1.0476190476010885,0.9700374531835156,2.35160064221418e-06,0.9976841437621017,0
279,207.61111111111111,0.7194444444444343,0.7194444444444343,0.73888888888888,0.9736842105263138,0.03464733003288324,1.0535710342660507,58.333333333333336,0.9999999999828572,0.9736842105263138,2.2068201133151888e-07,0.9982533512623061,0
280,208.33055555555555,0.7194444444444343,0.7722222222222399,0.73888888888888,0.9736842105263138,0.033485667503595114,1.018246696393879,58.333333333333336,0.9999999999828572,1.0451127819549237,1.2618131961517065e-07,0.9979455833613322,0
281,209.1027777777778,0.7722222222222399,0.7694444444444457,0.74444444444444,1.0373134328358509,0.03583160589822358,1.0895830082657427,58.333333333333336,0.9999999999828572,1.0335820895522467,2.6350008397457714e-07,0.998641820939804,0
282,209.87222222222223,0.7694444444444457,0.7416666666666458,0.74444444444444,1.0335820895522467,0.035204963968633554,1.0705278087670789,61.111111111111114,1.0476190476010885,0.9962686567163959,1.9427092468049523e-07,0.998810900688091,0
283,210.61388888888888,0.7416666666666458,0.7333333333333485,0.7430555555555429,0.9981308411214842,0.03137980524850169,0.9542107238668499,55.55555555555556,0.9523809523646259,0.9869158878505044,2.0217383323029026e-09,0.9971256215987362,0
284,211.34722222222223,0.7333333333333485,0.7416666666666742,0.7374999999999972,0.9943502824859001,0.034648973638225736,1.0536210137299509,58.333333333333336,0.9999999999828572,1.0056497175141383,2.0440683101696777e-07,0.998164865637237,0
285,212.0888888888889,0.7416666666666742,0.7416666666666458,0.74166666666666,1.000000000000019,0.03330582531752816,1.012777977222751,58.333333333333336,0.9999999999828572,0.9999999999999808,2.467895576785395e-08,0.998696510501745,0
286,212.83055555555555,0.7416666666666458,0.75555555555556,0.74166666666666,0.9999999999999808,0.03353750689021173,1.0198230509389925,58.333333333333336,0.9999999999828572,1.0187265917603148,4.404495612675419e-08,0.9983851418503933,0
287,213.5861111111111,0.75555555555556,0.73888888888888,0.74166666666666,1.0187265917603148,0.03679214380752594,1.1187914614884,61.111111111111114,1.0476190476010885,0.9962546816479371,3.5482069051795406e-06,0.9974169831570043,0
288,214.325,0.73888888888888,0.7277777777777885,0.7416666666666458,0.9962546816479562,0.033523841328541575,1.0194075026145188,58.333333333333336,0.9999999999828572,0.9812734082397424,2.791259312573402e-08,0.9988267257653533,0
289,215.05277777777778,0.7277777777777885,0.7472222222222342,0.7416666666666458,0.9812734082397424,0.031047850117283896,0.944116488305405,55.55555555555556,0.9523809523646259,1.0074906367041643,1.0519314308510275e-09,0.9995459401851765,0
290,215.8,0.7472222222222342,0.7666666666666515,0.74166666666666,1.007490636704145,0.038140846974515405,1.159803412170152,63.888888888888886,1.0952380952193197,1.033707865168528,0.00011935499787796289,0.9965254500022267,0
291,216.56666666666666,0.7666666666666515,0.7222222222222285,0.74166666666666,1.033707865168528,0.03531745421818905,1.0739484610498535,58.333333333333336,0.9999999999828572,0.9737827715355978,1.7344919456263597e-07,0.9978467089176701,0
292,217.2888888888889,0.7222222222222285,0.7027777777777828,0.7416666666666458,0.9737827715356164,0.0337486943126417,1.026244929648329,61.111111111111114,1.0476190476010885,0.9475655430711944,6.98470969950904e-08,0.9995907231736003,0
293,217.99166666666667,0.7027777777777828,0.7222222222222285,0.7402777777777629,0.9493433395872679,0.0359790619141128,1.094066914731889,61.111111111111114,1.0476190476010885,0.975609756097589,3.440500222495757e-06,0.9981474330379507,0
294,218.7138888888889,0.7222222222222285,0.6999999999999886,0.7402777777777629,0.975609756097589,0.035431526523573044,1.0774172211722197,61.111111111111114,1.0476190476010885,0.9455909943714857,9.257292958864127e-07,0.9982783047895724,0
295,219.4138888888889,0.6999999999999886,0.7249999999999943,0.7333333333333343,0.9545454545454378,0.03633892314507036,1.1050097310739386,61.111111111111114,1.0476190476010885,0.9886363636363547,8.545677701476961e-06,0.9976169834054837,0
296,220.13888888888889,0.7249999999999943,0.7277777777777885,0.7263888888888914,0.9980879541108874,0.037088706544329116,1.1278094697748091,61.111111111111114,1.0476190476010885,1.0019120458891126,1.2652667464863043e-05,0.9977295080439395,0
297,220.86666666666667,0.7277777777777885,0.7361111111111143,0.7263888888888914,1.0019120458891126,0.03395042689551204,1.032379301496842,58.333333333333336,0.9999999999828572,1.0133843212237101,1.3311145607985964e-07,0.9981128096206575,0
298,221.6027777777778,0.7361111111111143,0.7249999999999943,0.7263888888888914,1.0133843212237101,0.031240274954265554,0.949967826181219,52.77777777777778,0.9047619047463946,0.9980879541108874,3.372277179725103e-10,0.9995844268576803,0
299,222.32777777777778,0.7249999999999943,0.7722222222222115,0.7249999999999943,1.0,0.03852443043674522,1.171467584406375,61.111111111111114,1.0476190476010885,1.0651340996168517,0.0002560098364483565,0.9965517779220207,0
300,223.1,0.7722222222222115,0.7527777777777942,0.7249999999999943,1.0651340996168517,0.039624714935088144,1.2049255125008589,69.44444444444444,1.1904761904557823,1.0383141762452415,0.0164379570633173,0.9924408921781243,0
301,223.8527777777778,0.7527777777777942,0.7277777777777601,0.7249999999999943,1.0383141762452415,0.03697301014695048,1.124291323558885,61.111111111111114,1.0476190476010885,1.0038314176245045,6.255726475501433e-06,0.9973035685178098,0
302,224.58055555555555,0.7277777777777601,0.7416666666666742,0.7263888888888772,1.001912045889093,0.04094877784973611,1.2451881917057213,69.44444444444444,1.1904761904557823,1.0210325047801416,0.15428204834461212,0.9926728770363025,0
303,225.32222222222222,0.7416666666666742,0.6083333333333201,0.7277777777777743,1.0190839694656642,0.039470273516305464,1.2002291908747493,63.888888888888886,1.0952380952193197,0.8358778625954056,0.001774381147697568,0.9953074331385211,0
304,225.93055555555554,0.6083333333333201,0.8388888888889028,0.7277777777777743,0.8358778625954056,0.03769592954086032,1.1462741699372265,66.66666666666667,1.1428571428375511,1.1526717557252155,0.16390596330165863,0.99590620563342,0
305,226.76944444444445,0.8388888888889028,0.8194444444444571,0.7319444444444514,1.1461100569260043,0.03844921478921521,1.169180394383768,66.66666666666667,1.1428571428375511,1.1195445920303673,8.88466092874296e-05,0.99601147329928,0
306,227.5888888888889,0.8194444444444571,0.75,0.7388888888888943,1.1090225563909866,0.03436916420100126,1.0451124470411408,58.333333333333336,0.9999999999828572,1.015037593984955,1.1736335459033853e-08,0.9992174554871966,0
307,228.3388888888889,0.75,0.73888888888888,0.7458333333333371,1.005586592178766,0.03426983940275732,1.0420921355102144,58.333333333333336,0.9999999999828572,0.9906890130353648,6.188404455542695e-08,0.9983827263092069,0
308,229.07777777777778,0.73888888888888,0.7638888888888857,0.7458333333333371,0.9906890130353648,0.034252856933045604,1.0415757252078452,58.333333333333336,0.9999999999828572,1.024208566107998,7.906263022050553e-08,0.9990891310946427,0
309,229.84166666666667,0.7638888888888857,0.73888888888888,0.7513888888888971,1.0166358595193932,0.038294351240370776,1.1644712364437106,61.111111111111114,1.0476190476010885,0.983364140480569,2.120445242326241e-05,0.9967728838543287,0
310,230.58055555555555,0.73888888888888,0.7083333333333428,0.7458333333333371,0.9906890130353648,0.035299244473810866,1.0733947312472962,58.333333333333336,0.9999999999828572,0.9497206703910693,2.1561370999734208e-07,0.9986046071339477,0
311,231.2888888888889,0.7083333333333428,0.6999999999999886,0.7402777777777771,0.9568480300187754,0.03769016286113351,1.1460988142397373,61.111111111111114,1.0476190476010885,0.9455909943714677,3.294196358183399e-05,0.9973621264899513,0
312,231.98888888888888,0.6999999999999886,0.7222222222222285,0.7402777777777771,0.9455909943714677,0.035609761834992176,1.082837077802337,58.333333333333336,0.9999999999828572,0.9756097560975704,3.735356585821137e-06,0.9958474145860051,0
313,232.7111111111111,0.7222222222222285,0.7111111111111086,0.73888888888888,0.9774436090225767,0.03785552037047487,1.1511270770806283,63.888888888888886,1.0952380952193197,0.962406015037602,9.979947208194062e-05,0.9968362163960658,0
314,233.42222222222222,0.7111111111111086,0.75,0.73888888888888,0.962406015037602,0.03474618943189135,1.056577193735223,58.333333333333336,0.9999999999828572,1.0150375939849745,4.81698918974871e-07,0.9980970477187594,0
315,234.17222222222222,0.75,0.7138888888889028,0.73888888888888,1.0150375939849745,0.03366259738511029,1.0236268569454596,58.333333333333336,0.9999999999828572,0.966165413533865,3.597951803158139e-08,0.9979117578424747,0
316,234.88611111111112,0.7138888888889028,0.7138888888888744,0.7305555555555543,0.9771863117870929,0.03463477995593866,1.0531894060847715,58.333333333333336,0.9999999999828572,0.9771863117870541,2.1467072031100543e-07,0.9988518815548986,0
317,235.6,0.7138888888888744,0.7388888888889085,0.7180555555555657,0.9941972920695983,0.03146490449098874,0.9567984585303072,58.333333333333336,0.9999999999828572,1.0290135396518503,6.963980947460868e-09,0.9995992158177383,0
318,236.3388888888889,0.7388888888889085,0.7416666666666458,0.7180555555555657,1.0290135396518503,0.03740496804729543,1.1374264866838324,63.888888888888886,1.0952380952193197,1.0328820116053723,5.656936627929099e-05,0.9972876286072705,0
319,237.08055555555555,0.7416666666666458,0.7333333333333485,0.7180555555555657,1.0328820116053723,0.03348982332920386,1.018373068540901,55.55555555555556,0.9523809523646259,1.0212765957446877,5.192912411189354e-08,0.9972531565876162,0
320,237.8138888888889,0.7333333333333485,0.7111111111111086,0.7180555555555657,1.0212765957446877,0.03445422373717216,1.0476989742977207,58.333333333333336,0.9999999999828572,0.9903288201160367,1.6685696380136505e-07,0.9985450139135625,0
321,238.525,0.7111111111111086,0.74444444444444,0.7180555555555657,0.9903288201160367,0.03578122733099725,1.088051074950041,58.333333333333336,0.9999999999828572,1.0367504835589734,2.2889648789714556e-06,0.9981923811213813,0
322,239.26944444444445,0.74444444444444,0.7416666666666742,0.7277777777777885,1.0229007633587575,0.02962668197359831,0.9009009911924176,52.77777777777778,0.9047619047463946,1.0190839694656442,5.7759807353674475e-11,0.9988782199932489,0
323,240.01111111111112,0.7416666666666742,0.7666666666666515,0.7361111111111285,1.0075471698113072,0.03718219386295703,1.1306522726945172,61.111111111111114,1.0476190476010885,1.041509433962219,1.2063483154634014e-05,0.997612243044832,0
324,240.77777777777777,0.7666666666666515,0.7277777777777885,0.7402777777777771,1.035647279549699,0.03529294238722869,1.0732030946660036,61.111111111111114,1.0476190476010885,0.983114446529096,2.1095553393024602e-07,0.9989671367374289,0
325,241.50555555555556,0.7277777777777885,0.7305555555555543,0.7361111111111285,0.9886792452830101,0.032051855651422906,0.9746467239110849,58.333333333333336,0.9999999999828572,0.9924528301886542,6.09538863827197e-09,0.9994792942635602,0
326,242.23611111111111,0.7305555555555543,0.7416666666666742,0.7361111111111285,0.9924528301886542,0.037933177851656556,1.1534885194396625,63.888888888888886,1.0952380952193197,1.0075471698113072,0.00012159904144937173,0.9966709176671262,0
327,242.9777777777778,0.7416666666666742,0.75,0.7402777777777771,1.001876172607891,0.03469716811149872,1.055086532169725,58.333333333333336,0.9999999999828572,1.0131332082551603,1.347977161003655e-07,0.9987528291936348,0
328,243.7277777777778,0.75,0.7305555555555543,0.74166666666666,1.011235955056189,0.034349841929069355,1.0445248870183528,58.333333333333336,0.9999999999828572,0.9850187265917674,7.413617453266852e-08,0.9982056584323646,0
329,244.45833333333334,0.7305555555555543,0.7111111111111086,0.7375000000000114,0.9905838041431092,0.033659173370004646,1.0235227380095193,58.333333333333336,0.9999999999828572,0.9642184557438612,3.6677111125982265e-08,0.9989383701066845,0
330,245.16944444444445,0.7111111111111086,0.7361111111111143,0.7361111111111143,0.9660377358490491,0.03059101761551299,0.9302249275149971,55.55555555555556,0.9523809523646259,1.0,1.4314467389198171e-09,0.9986865322079961,0
331,245.90555555555557,0.7361111111111143,0.7194444444444343,0.7388888888888943,0.9962406015037565,0.034845184670900926,1.0595874838860584,61.111111111111114,1.0476190476010885,0.9736842105262951,3.1709271297586383e-07,0.9985632094471038,0
332,246.625,0.7194444444444343,0.75555555555556,0.7333333333333343,0.981060606060591,0.03316851049321857,1.008602448507245,55.55555555555556,0.9523809523646259,1.030303030303035,2.873251858659387e-08,0.9987545693427351,0
333,247.38055555555556,0.75555555555556,0.7138888888888744,0.7333333333333343,1.030303030303035,0.036599772710805556,1.1129417577697518,61.111111111111114,1.0476190476010885,0.9734848484848274,2.9658301627932815e-06,0.9972139807197905,0
334,248.09444444444443,0.7138888888888744,0.7083333333333428,0.7305555555555543,0.9771863117870541,0.035745241617366204,1.0869568057670165,58.333333333333336,0.9999999999828572,0.9695817490494443,6.590996690647444e-07,0.9991181375778677,0
335,248.80277777777778,0.7083333333333428,0.7194444444444343,0.7305555555555543,0.9695817490494443,0.03235869142914356,0.983977119279968,58.333333333333336,0.9999999999828572,0.9847908745247027,2.2920499276324335e-08,0.9984739556504738,0
336,249.5222222222222,0.7194444444444343,0.76111111111112,0.7249999999999943,0.9923371647509517,0.03751147074768729,1.140665066975517,61.111111111111114,1.0476190476010885,1.0498084291187944,3.727774310391396e-05,0.9979538891363177,0
337,250.28333333333333,0.76111111111112,0.7194444444444343,0.7249999999999943,1.0498084291187944,0.03392976141303881,1.0317508965455149,58.333333333333336,0.9999999999828572,0.9923371647509517,2.9546479041187013e-08,0.9994042002348615,0
338,251.00277777777777,0.7194444444444343,0.6944444444444571,0.7194444444444343,1.0,0.03569741206145171,1.0855023838925029,58.333333333333336,0.9999999999828572,0.9652509652509964,1.214855842590623e-06,0.9975470689288743,0
339,251.69722222222222,0.6944444444444571,0.7138888888888744,0.7194444444444343,0.9652509652509964,0.03239013183428521,0.984933172751661,55.55555555555556,0.9523809523646259,0.9922779922779861,1.811411642904659e-08,0.9986770046509497,0
340,252.4111111111111,0.7138888888888744,0.7138888888889028,0.7194444444444343,0.9922779922779861,0.03609458700354476,1.097579851741494,61.111111111111114,1.0476190476010885,0.9922779922780255,5.710772256861674e-06,0.9975312495447282,0
341,253.125,0.7138888888889028,0.7472222222222342,0.7166666666666686,0.9961240310077687,0.03319541567955065,1.0094205930789655,55.55555555555556,0.9523809523646259,1.0426356589147427,4.6157133226643055e-08,0.9986686824326734,0
342,253.87222222222223,0.7472222222222342,0.7333333333333201,0.7166666666666686,1.0426356589147427,0.040266195867133835,1.2244319428201906,63.888888888888886,1.0952380952193197,1.023255813953467,0.004363247659057379,0.9948927386075367,0
343,254.60555555555555,0.7333333333333201,0.7194444444444343,0.7166666666666686,1.023255813953467,0.03408181865358337,1.0363747190460115,58.333333333333336,0.9999999999828572,1.0038759689922314,1.4225479105789418e-07,0.9982458048160141,0
344,255.325,0.7194444444444343,0.7083333333333712,0.7194444444444343,1.0,0.031571894877463064,0.9600518685918416,55.55555555555556,0.9523809523646259,0.9845559845560511,2.1124444415931976e-09,0.9997034949717767,0
345,256.03333333333336,0.7083333333333712,0.7666666666666515,0.7194444444444343,0.9845559845560511,0.036762884287271216,1.1179017253099515,58.333333333333336,0.9999999999828572,1.0656370656370595,1.4943182577553671e-05,0.997428385191371,0
346,256.8,0.7666666666666515,0.7333333333333485,0.7194444444444343,1.0656370656370595,0.03500089551605844,1.0643224067797805,58.333333333333336,0.9999999999828572,1.0193050193050548,2.4393864350713557e-07,0.997875021304616,0
347,257.53333333333336,0.7333333333333485,0.6999999999999886,0.7194444444444343,1.0193050193050548,0.03671128282624239,1.1163326057092728,58.333333333333336,0.9999999999828572,0.9729729729729708,2.421601720925537e-06,0.99797259857669,0
348,258.23333333333335,0.6999999999999886,0.7416666666666742,0.7166666666666686,0.9767441860464932,0.03488689171409351,1.0608557297390833,58.333333333333336,0.9999999999828572,1.0348837209302404,9.029336069943383e-07,0.9986140229067129,0
349,258.975,0.7416666666666742,0.7361111111110858,0.7263888888888772,1.0210325047801416,0.03327378667746868,1.0118037323642897,58.333333333333336,0.9999999999828572,1.0133843212236908,3.211297894267773e-08,0.9987467828014827,0
350,259.7111111111111,0.7361111111110858,0.7472222222222058,0.7333333333333343,1.0037878787878431,0.036851425579807875,1.120594127323745,61.111111111111114,1.0476190476010885,1.0189393939393703,6.911449872859521e-06,0.9978583712620388,0
351,260.4583333333333,0.7472222222222058,0.7527777777777942,0.7347222222222172,1.0170132325141623,0.03378541337374054,1.027361498779124,55.55555555555556,0.9523809523646259,1.0245746691871749,2.6436437039478733e-08,0.9985375601905804,0
352,261.2111111111111,0.7527777777777942,0.73888888888888,0.7347222222222172,1.0245746691871749,0.03408221817885665,1.0363868679837502,58.333333333333336,0.9999999999828572,1.0056710775047208,6.01568572733413e-08,0.9983009873701811,0
353,261.95,0.73888888888888,0.7194444444444343,0.737499999999983,1.0018832391713859,0.03374703058391114,1.026194338263719,58.333333333333336,0.9999999999828572,0.9755178907721369,4.1695514596540306e-08,0.9985328087801202,0
354,262.6694444444444,0.7194444444444343,0.75,0.737499999999983,0.9755178907721369,0.03274708736074985,0.9957876311716143,55.55555555555556,0.9523809523646259,1.0169491525423964,2.4004856769010985e-08,0.9977276521832943,0
355,263.4194444444444,0.75,0.716666666666697,0.7402777777777771,1.0131332082551603,0.03699113179228506,1.1248423744075255,61.111111111111114,1.0476190476010885,0.968105065666083,3.1717545425635763e-06,0.998199290904114,0
356,264.1361111111111,0.716666666666697,0.7138888888889028,0.737499999999983,0.9717514124294421,0.03612524286370342,1.098512048429176,61.111111111111114,1.0476190476010885,0.9679849340866702,2.8906993065902498e-06,0.9980747900397433,0
357,264.85,0.7138888888889028,0.7055555555555202,0.737499999999983,0.9679849340866702,0.03596841153306023,1.0937430533269776,61.111111111111114,1.0476190476010885,0.9566854990583545,2.0061897885170765e-06,0.9985629114621963,0
358,265.55555555555554,0.7055555555555202,0.7277777777778169,0.737499999999983,0.9566854990583545,0.034013629491489644,1.0343011934391426,58.333333333333336,0.9999999999828572,0.9868173258004526,1.4650751722911082e-07,0.9986671058998544,0
359,266.28333333333336,0.7277777777778169,0.7111111111111086,0.7319444444444514,0.9943074003795507,0.03335109766312793,1.0141546383372417,58.333333333333336,0.9999999999828572,0.9715370018975206,2.1456790122442726e-08,0.9996958523060648,0
360,266.99444444444447,0.7111111111111086,0.7361111111110858,0.7236111111111256,0.9827255278310708,0.035273095916723965,1.0725995945857278,58.333333333333336,0.9999999999828572,1.0172744721688507,1.0699310450945632e-06,0.9980254857382003,0
361,267.73055555555555,0.7361111111110858,0.6999999999999886,0.7236111111111256,1.0172744721688507,0.03287267078381172,0.9996064263513984,58.333333333333336,0.9999999999828572,0.9673704414586981,1.3775604656984797e-08,0.9994104710344789,0
362,268.43055555555554,0.6999999999999886,0.7083333333333712,0.7180555555555657,0.9748549323017113,0.03539351490919228,1.0762613475207938,61.111111111111114,1.0476190476010885,0.9864603481625147,1.9371973394299857e-06,0.9988534961654549,0
363,269.1388888888889,0.7083333333333712,0.7222222222221717,0.7152777777777999,0.9902912621359446,0.03180588173605889,0.9671670424416445,55.55555555555556,0.9523809523646259,1.0097087378639757,4.7630286381661335e-09,0.9998128646336244,0
364,269.8611111111111,0.7222222222221717,0.7361111111111427,0.7152777777777999,1.0097087378639757,0.03631485832777348,1.1042779576753872,61.111111111111114,1.0476190476010885,1.0291262135922454,5.369648533815052e-06,0.9985647724129761,0
365,270.59722222222223,0.7361111111111427,0.7305555555555543,0.7152777777777999,1.0291262135922454,0.034397188975914005,1.0459646365478612,58.333333333333336,0.9999999999828572,1.0213592233009376,2.656857986949035e-07,0.9978420332612965,0
366,271.3277777777778,0.7305555555555543,0.7111111111111086,0.7180555555555372,1.0174081237911268,0.03209726423188615,0.9760275277143737,58.333333333333336,0.9999999999828572,0.9903288201160759,8.068535173322289e-09,0.9994926000478048,0
367,272.0388888888889,0.7111111111111086,0.7333333333333485,0.7166666666666401,0.9922480620155371,0.030541038355640836,0.9287051365104555,52.77777777777778,0.9047619047463946,1.0232558139535475,1.9429560182970818e-09,0.9966526454073079,0
368,272.77222222222224,0.7333333333333485,0.7305555555555543,0.7249999999999943,1.011494252873592,0.034819476517048975,1.0588057391970114,61.111111111111114,1.0476190476010885,1.0076628352490482,4.692631989655638e-07,0.9986974110900914,0
369,273.5027777777778,0.7305555555555543,0.7472222222222058,0.726388888888863,1.0057361376673382,0.03590688559723822,1.0918721459936662,61.111111111111114,1.0476190476010885,1.028680688336534,2.834945007634815e-06,0.9980743696097301,0
370,274.25,0.7472222222222058,0.7138888888889028,0.7305555555555543,1.022813688212907,0.032978112064144464,1.0028127305217074,58.333333333333336,0.9999999999828572,0.9771863117870929,9.300085146435322e-09,0.9997901404465999,0
371,274.9638888888889,0.7138888888889028,0.7166666666666401,0.726388888888863,0.9827915869981421,0.035495322564204616,1.079357158836868,61.111111111111114,1.0476190476010885,0.9866156787762893,1.5934469956846442e-06,0.9984626747696836,0
372,275.68055555555554,0.7166666666666401,0.7222222222222285,0.726388888888863,0.9866156787762893,0.029266533609563616,0.8899494435832617,52.77777777777778,0.9047619047463946,0.9942638623327401,1.5277679121794563e-10,0.9971276517413854,0
373,276.40277777777777,0.7222222222222285,0.75,0.7263888888888914,0.9942638623327013,0.03862816916993005,1.1746221167848083,63.888888888888886,1.0952380952193197,1.0325047801147191,0.0005613837856799364,0.9964998178798817,0
374,277.15277777777777,0.75,0.7305555555555543,0.7305555555555543,1.0266159695817507,0.03327537877548682,1.0118521455711382,58.333333333333336,0.9999999999828572,1.0,2.990000780300761e-08,0.9981042775662391,0
375,277.8833333333333,0.7305555555555543,0.7138888888889028,0.7305555555555543,1.0,0.03668468117229354,1.1155236910818693,61.111111111111114,1.0476190476010885,0.9771863117870929,4.512573013926158e-06,0.9980167594747203,0
376,278.59722222222223,0.7138888888889028,0.5749999999999886,0.7263888888888914,0.9827915869981037,0.034907279151846965,1.061475679786015,61.111111111111114,1.0476190476010885,0.7915869980879358,4.935662332172797e-07,0.9992079980942695,0
377,279.1722222222222,0.5749999999999886,0.830555555555577,0.7263888888888914,0.7915869980879358,0.033833799559493255,1.0288328468951056,61.111111111111114,1.0476190476010885,1.143403441682626,0.0013033716240897775,0.9979542255967468,0
378,280.0027777777778,0.830555555555577,0.6222222222222058,0.7263888888888914,1.143403441682626,0.03513764531290526,1.0684807538952101,58.333333333333336,0.9999999999828572,0.856596558317374,5.633080490952125e-08,0.997926012041146,0
379,280.625,0.6222222222222058,0.8416666666666401,0.7194444444444343,0.8648648648648541,0.03937393253221193,1.1972996124582507,144.44444444444446,2.4761904761480276,1.1698841698841493,0.9968714118003845,0.8462969252764708,1
380,281.46666666666664,0.8416666666666401,0.7222222222222285,0.7194444444444343,1.1698841698841493,0.03270195587887346,0.9944152535023006,55.55555555555556,0.9523809523646259,1.0038610038610267,4.053592461694677e-10,0.9982439059337476,0
381,282.18888888888887,0.7222222222222285,0.7027777777777828,0.7222222222222285,1.0,0.027951954680794602,0.8499751575331377,52.77777777777778,0.9047619047463946,0.9730769230769216,1.761658527388299e-11,0.9967762850703078,0
382,282.89166666666665,0.7027777777777828,0.73888888888888,0.7222222222222285,0.9730769230769216,0.03547604439561723,1.0787709399277026,61.111111111111114,1.0476190476010885,1.023076923076902,2.230320660601137e-06,0.9991710687530011,0
383,283.63055555555553,0.73888888888888,0.7222222222222285,0.7263888888888914,1.0172084130018963,0.034653959109812185,1.0537726141115864,58.333333333333336,0.9999999999828572,0.9942638623327013,1.3771590090527752e-07,0.9988016438006517,0
384,284.35277777777776,0.7222222222222285,0.716666666666697,0.7222222222222285,1.0,0.036626249632348964,1.1137468794800882,61.111111111111114,1.0476190476010885,0.9923076923077256,5.751369826612063e-06,0.9982674465591992,0
385,285.06944444444446,0.716666666666697,0.7333333333333485,0.7194444444444628,0.9961389961390129,0.031489934543756495,0.9575595832275705,52.77777777777778,0.9047619047463946,1.0193050193050144,5.968663341349156e-09,0.9962902668959841,0
386,285.8027777777778,0.7333333333333485,0.7277777777777601,0.7222222222222285,1.0153846153846275,0.03259292252444588,0.9910997199854399,55.55555555555556,0.9523809523646259,1.0076923076922744,7.803558688124212e-09,0.9989803248800262,0
387,286.53055555555557,0.7277777777777601,0.7305555555555543,0.7249999999999943,1.0038314176245045,0.03223093268763153,0.9800921760735619,55.55555555555556,0.9523809523646259,1.0076628352490482,1.0905509384429024e-08,0.9974407482240439,0
388,287.2611111111111,0.7305555555555543,0.7416666666666742,0.7249999999999943,1.0076628352490482,0.03038162488792525,0.9238576226645793,55.55555555555556,0.9523809523646259,1.0229885057471448,1.5310913648036717e-09,0.9971978677748142,0
389,288.0027777777778,0.7416666666666742,0.7111111111111086,0.7291666666666572,1.0171428571428807,0.03595815858895579,1.0934312773571082,61.111111111111114,1.0476190476010885,0.9752380952381045,1.1572298035389394e-06,0.9985143017697762,0
390,288.7138888888889,0.7111111111111086,0.7083333333333144,0.7249999999999943,0.9808429118773988,0.0335319774842875,1.019654910366171,55.55555555555556,0.9523809523646259,0.977011494252855,4.867442982003922e-08,0.9980969346981843,0
391,289.4222222222222,0.7083333333333144,0.73888888888888,0.7249999999999943,0.977011494252855,0.0362325121203487,1.101773938495783,61.111111111111114,1.0476190476010885,1.019157088122601,8.14944814919727e-06,0.9978028708694796,0
392,290.1611111111111,0.73888888888888,0.7583333333333258,0.7291666666666572,1.0133333333333343,0.03549532616237499,1.0793572682515928,61.111111111111114,1.0476190476010885,1.0400000000000031,9.208916367242637e-07,0.9991481833246727,0
393,290.9194444444444,0.7583333333333258,0.7277777777778169,0.7291666666666572,1.0400000000000031,0.031025690159345927,0.9434426386961612,55.55555555555556,0.9523809523646259,0.9980952380953048,1.2026799556252854e-09,0.9965051818304521,0
394,291.64722222222224,0.7277777777778169,0.7111111111111086,0.7291666666666856,0.9980952380952659,0.03381895831368889,1.0283815478577176,58.333333333333336,0.9999999999828572,0.9752380952380665,7.442136507052055e-08,0.9982843822495762,0
395,292.35833333333335,0.7111111111111086,0.7333333333332916,0.7291666666666856,0.9752380952380665,0.03164963068447533,0.9624156927166929,55.55555555555556,0.9523809523646259,1.0057142857142025,7.362279230704871e-09,0.9979461201905331,0
396,293.09166666666664,0.7333333333332916,0.7111111111111654,0.7291666666666856,1.0057142857142025,0.03842720496364888,1.1685111100647765,63.888888888888886,1.0952380952193197,0.9752380952381444,0.00028866148204542696,0.9958835761994942,0
397,293.8027777777778,0.7111111111111654,0.7416666666666174,0.7291666666666856,0.9752380952381444,0.033857654560739234,1.0295582401162078,55.55555555555556,0.9523809523646259,1.0171428571427632,8.544372320784532e-08,0.9983823330274428,0
398,294.5444444444444,0.7416666666666174,0.5694444444444571,0.7305555555555543,1.0152091254752196,0.036271029934572555,1.1029452048915191,63.888888888888886,1.0952380952193197,0.7794676806083837,1.1224869922443759e-05,0.9968963386094338,0
399,295.1138888888889,0.5694444444444571,0.7888888888888914,0.7194444444444912,0.7915057915057576,0.03365552512688337,1.0234118006508575,58.333333333333336,0.9999999999828572,1.0965250965250288,0.0001773877302184701,0.9987644935951423,0
400,295.90277777777777,0.7888888888888914,0.75,0.7305555555555543,1.0798479087452524,0.0339659979807997,1.032852793809687,58.333333333333336,0.9999999999828572,1.0266159695817507,1.7460891399423417e-08,0.9994562990228921,0
401,296.65277777777777,0.75,0.7833333333333599,0.7361111111110858,1.018867924528337,0.03467729073917491,1.0544820924135354,58.333333333333336,0.9999999999828572,1.064150943396299,2.563593568538636e-07,0.9979841860712801,0
402,297.43611111111113,0.7833333333333599,0.7638888888888573,0.7374999999999545,1.0621468926554687,0.0328138739739859,0.9978185074646923,58.333333333333336,0.9999999999828572,1.0357815442561416,4.7572177308552455e-09,0.9994016714500225,0
403,298.2,0.7638888888888573,0.7194444444444343,0.7374999999999545,1.0357815442561416,0.03622430040975762,1.1015242332396398,61.111111111111114,1.0476190476010885,0.9755178907721745,7.579919838462956e-07,0.998706268354921,0
404,298.9194444444444,0.7194444444444343,0.7250000000000227,0.7374999999999545,0.9755178907721745,0.029094703404382593,0.8847243562008024,50.0,0.8571428571281633,0.9830508474577185,4.0613217650031785e-11,0.9958241260155081,0
405,299.64444444444445,0.7250000000000227,0.7250000000000227,0.7374999999999545,0.9830508474577185,0.032369173192617354,0.9842958532884337,55.55555555555556,0.9523809523646259,0.9830508474577185,5.195307295480234e-09,0.9988823859148185,0
406,300.36944444444447,0.7250000000000227,0.7305555555555543,0.7333333333333201,0.9886363636364125,0.03567072529374215,1.0846908810889595,61.111111111111114,1.0476190476010885,0.9962121212121375,1.0763571935967775e-06,0.9990736988977862,0
407,301.1,0.7305555555555543,0.7277777777777601,0.7361111111110858,0.9924528301887116,0.029399070624034733,0.8939796865856039,52.77777777777778,0.9047619047463946,0.9886792452830288,7.184869366128055e-11,0.9977735520979614,0
408,301.8277777777778,0.7277777777777601,0.7027777777777828,0.7291666666666572,0.9980952380952268,0.03684306752138735,1.1203399718593496,61.111111111111114,1.0476190476010885,0.9638095238095432,8.538370821042918e-06,0.9972096177603018,0
409,302.53055555555557,0.7027777777777828,0.7027777777777828,0.7291666666666572,0.9638095238095432,0.031161239497440894,0.9475644817413613,55.55555555555556,0.9523809523646259,0.9638095238095432,3.3689100398248684e-09,0.9978540698795548,0
410,303.23333333333335,0.7027777777777828,0.7277777777777601,0.7263888888888914,0.9674952198852809,0.03950234009343592,1.201204285255778,63.888888888888886,1.0952380952193197,1.0019120458890736,0.002873256104066968,0.995885336240283,0
411,303.9611111111111,0.7277777777777601,0.7416666666666742,0.7263888888888914,1.0019120458890736,0.03309030415281226,1.0062243161989302,58.333333333333336,0.9999999999828572,1.0210325047801216,2.725071190923245e-08,0.9995332220254046,0
412,304.7027777777778,0.7416666666666742,0.7222222222222285,0.7263888888888914,1.0210325047801216,0.03357833695417604,1.0210646292273973,58.333333333333336,0.9999999999828572,0.9942638623327013,2.5810546588900252e-08,0.9997218258412046,0
413,305.425,0.7222222222222285,0.7055555555555202,0.7250000000000227,0.9961685823754564,0.03407100384737787,1.036045857729757,58.333333333333336,0.9999999999828572,0.9731800766282732,9.978528936471776e-08,0.998699088618442,0
414,306.13055555555553,0.7055555555555202,0.7194444444444912,0.7250000000000227,0.9731800766282732,0.03553565282853245,1.0805835390012204,61.111111111111114,1.0476190476010885,0.9923371647509912,2.996246166730998e-06,0.9978187585132234,0
415,306.85,0.7194444444444912,0.7277777777777601,0.7236111111111256,0.9942418426104093,0.03815307223677066,1.1601751632455224,63.888888888888886,1.0952380952193197,1.0057581573895906,0.0002267288218718022,0.9970427727709794,0
416,307.5777777777778,0.7277777777777601,0.7222222222222285,0.7249999999999943,1.0038314176245045,0.033179549784877256,1.0089381360744938,58.333333333333336,0.9999999999828572,0.9961685823754954,2.548581790051685e-08,0.9995244737488207,0
417,308.3,0.7222222222222285,0.7249999999999659,0.7222222222222285,1.0,0.03587341225385374,1.0908542740544298,61.111111111111114,1.0476190476010885,1.0038461538460979,2.188947973991162e-06,0.9986543756155684,0
418,309.025,0.7249999999999659,0.5222222222222399,0.7222222222222285,1.0038461538460979,0.02994179001618582,0.9104829331781171,55.55555555555556,0.9523809523646259,0.7230769230769413,1.3584620928153157e-10,0.9975566542646314,0
419,309.5472222222222,0.5222222222222399,0.9333333333333371,0.7222222222222285,0.7230769230769413,0.03201602227050861,0.9735570869273606,58.333333333333336,0.9999999999828572,1.2923076923076862,0.9974687099456787,0.6479536767629875,1
420,310.48055555555555,0.9333333333333371,0.7805555555555657,0.7236111111110972,1.289827255278341,0.03493797129065339,1.062408979650548,58.333333333333336,0.9999999999828572,1.078694817658384,1.2036621699351713e-09,0.9982166118484532,0
421,311.2611111111111,0.7805555555555657,0.7416666666666742,0.7236111111110972,1.078694817658384,0.03265892098495098,0.9931066297885426,58.333333333333336,0.9999999999828572,1.0249520153551166,5.5789097785918784e-09,0.9993772766536168,0
422,312.0027777777778,0.7416666666666742,0.7138888888888459,0.7236111111110972,1.0249520153551166,0.035602384634317384,1.082612748685561,61.111111111111114,1.0476190476010885,0.9865642994241438,1.5330125506807235e-06,0.9972388042844886,0
423,312.71666666666664,0.7138888888888459,0.7277777777778169,0.7236111111110972,0.9865642994241438,0.03582538269465105,1.08939377039321,61.111111111111114,1.0476190476010885,1.0057581573897088,3.2817279134178534e-06,0.998134771660345,0
424,313.44444444444446,0.7277777777778169,0.7194444444444343,0.726388888888863,1.001912045889191,0.03433442365974382,1.0440560415995432,61.111111111111114,1.0476190476010885,0.9904397705545147,2.2265412269462104e-07,0.9990941401078357,0
425,314.1638888888889,0.7194444444444343,0.7361111111110858,0.726388888888863,0.9904397705545147,0.03526582721128157,1.0723785646390205,58.333333333333336,0.9999999999828572,1.0133843212237108,6.280404249991989e-07,0.998528114522212,0
426,314.9,0.7361111111110858,0.7388888888889369,0.7263888888888914,1.013384321223671,0.0341768734152953,1.039265185454641,58.333333333333336,0.9999999999828572,1.0172084130019745,9.518600307956149e-08,0.9989943290829667,0
427,315.6388888888889,0.7388888888889369,0.7166666666666401,0.7319444444444514,1.0094876660342116,0.03218735324687275,0.9787669935434973,55.55555555555556,0.9523809523646259,0.9791271347248122,2.11208206479796e-09,0.9996223411548348,0
428,316.35555555555555,0.7166666666666401,0.7194444444444343,0.7319444444444514,0.9791271347248122,0.030216619223143015,0.9188400588655973,50.0,0.8571428571281633,0.9829222011384968,1.004010208305317e-10,0.9976983619689503,0
429,317.075,0.7194444444444343,0.7333333333333485,0.7319444444444514,0.9829222011384968,0.036460501290841774,1.108706732045239,63.888888888888886,1.0952380952193197,1.0018975332068423,1.3796378880215343e-05,0.997809741390588,0
430,317.80833333333334,0.7333333333333485,0.7250000000000227,0.7305555555555827,1.0038022813688048,0.03705744014430001,1.1268587075260248,63.888888888888886,1.0952380952193197,0.9923954372623517,2.169510116800666e-05,0.997523177372279,0
431,318.53333333333336,0.7250000000000227,0.7138888888888459,0.7263888888889198,0.9980879541108875,0.035046107337736616,1.0656972274566212,58.333333333333336,0.9999999999828572,0.982791586997987,3.872804654747597e-07,0.9981432362330946,0
432,319.2472222222222,0.7138888888888459,0.716666666666697,0.7222222222222285,0.9884615384614703,0.03103793460847475,0.9438149732143023,55.55555555555556,0.9523809523646259,0.9923076923077256,3.1851576931529735e-09,0.9975864489641924,0
433,319.9638888888889,0.716666666666697,0.7083333333333144,0.7222222222222285,0.9923076923077256,0.02959948370521305,0.9000739344545475,52.77777777777778,0.9047619047463946,0.980769230769196,1.5929176033768755e-10,0.9974729731068386,0
434,320.6722222222222,0.7083333333333144,0.7333333333333485,0.7194444444444343,0.984555984555972,0.0327413560226944,0.9956133501589916,58.333333333333336,0.9999999999828572,1.0193050193050548,4.1164970099316633e-08,0.9990119429563658,0
435,321.40555555555557,0.7333333333333485,0.7527777777777942,0.7222222222222285,1.0153846153846275,0.0316033919306321,0.9610096446413131,55.55555555555556,0.9523809523646259,1.042307692307706,6.648031014577782e-09,0.9976305846250186,0
436,322.15833333333336,0.7527777777777942,0.7249999999999659,0.7222222222222285,1.042307692307706,0.03824368014444454,1.1629304077884657,61.111111111111114,1.0476190476010885,1.0038461538460979,4.151743996771984e-05,0.9968744516687289,0
437,322.8833333333333,0.7249999999999659,0.7222222222222285,0.7222222222222001,1.0038461538461374,0.033475139006836296,1.0179265412994192,55.55555555555556,0.9523809523646259,1.0000000000000393,3.1263539312931243e-08,0.9985933360801547,0
438,323.60555555555555,0.7222222222222285,0.7444444444444684,0.7236111111110972,0.9980806142034828,0.033212206604022104,1.0099311787906171,58.333333333333336,0.9999999999828572,1.0287907869482296,4.343179327293001e-08,0.9993789523331877,0
439,324.35,0.7444444444444684,0.7527777777777374,0.7249999999999943,1.0268199233716886,0.03626349491706963,1.1027160768122057,63.888888888888886,1.0952380952193197,1.038314176245163,7.861631274863612e-06,0.9978468069064992,0
440,325.10277777777776,0.7527777777777374,0.7305555555555543,0.7249999999999943,1.038314176245163,0.03189162706774316,0.9697744236655467,55.55555555555556,0.9523809523646259,1.0076628352490482,3.866005293673425e-09,0.9972994460313953,0
441,325.8333333333333,0.7305555555555543,0.7027777777777828,0.7277777777777601,1.0038167938931524,0.03693675648344816,1.1231889064399951,61.111111111111114,1.0476190476010885,0.9656488549618625,6.776316695322748e-06,0.9978098412929962,0
442,326.5361111111111,0.7027777777777828,0.7250000000000227,0.7277777777777601,0.9656488549618625,0.032852436272690265,0.9989911265637996,58.333333333333336,0.9999999999828572,0.9961832061069257,5.196845975774522e-08,0.9985088213152542,0
443,327.2611111111111,0.7250000000000227,0.7027777777777828,0.7277777777777885,0.9961832061068868,0.03549614197637439,1.0793820758774129,61.111111111111114,1.0476190476010885,0.9656488549618247,1.5201342193904566e-06,0.9975911905553032,0
444,327.9638888888889,0.7027777777777828,0.7416666666666742,0.7277777777777885,0.9656488549618247,0.03509464611603165,1.0671732156727918,58.333333333333336,0.9999999999828572,1.0190839694656442,8.529178217031586e-07,0.9985162842917441,0
445,328.7055555555556,0.7416666666666742,0.7138888888888459,0.7277777777777885,1.0190839694656442,0.034654936871739046,1.053802346320203,58.333333333333336,0.9999999999828572,0.9809160305342777,1.5381233708922082e-07,0.9981848480280752,0
446,329.4194444444444,0.7138888888888459,0.7194444444444912,0.7249999999999943,0.9846743295018642,0.035993339913153476,1.0945010863174705,61.111111111111114,1.0476190476010885,0.9923371647510301,2.7880191737494897e-06,0.9986359029769619,0
447,330.1388888888889,0.7194444444444912,0.7249999999999659,0.7236111111111256,0.9942418426104093,0.031050720008331027,0.944203757196713,52.77777777777778,0.9047619047463946,1.0019193857964779,1.0085442481155837e-09,0.9981008696599574,0
448,330.8638888888889,0.7249999999999659,0.7555555555555884,0.7249999999999943,0.9999999999999608,0.03931327676183128,1.1954551654929726,66.66666666666667,1.1428571428375511,1.0421455938697852,0.003322759410366416,0.9961389289045925,0
449,331.61944444444447,0.7555555555555884,0.7249999999999659,0.7249999999999943,1.0421455938697852,0.032761819984436204,0.9962356271805406,55.55555555555556,0.9523809523646259,0.9999999999999608,4.915648332826095e-09,0.998973273112423,0
450,332.34444444444443,0.7249999999999659,0.7083333333333712,0.7249999999999659,1.0,0.03590858781548899,1.091923907784295,61.111111111111114,1.0476190476010885,0.9770114942529718,1.6544782965866034e-06,0.9986594897564225,0
451,333.0527777777778,0.7083333333333712,0.73888888888888,0.7222222222222285,0.9807692307692747,0.03714445446917534,1.1295046768450991,61.111111111111114,1.0476190476010885,1.023076923076902,2.748631413851399e-05,0.9978615749708029,0
452,333.7916666666667,0.73888888888888,0.7333333333332916,0.7249999999999659,1.019157088122641,0.036757647888469476,1.1177424946247547,63.888888888888886,1.0952380952193197,1.0114942528735533,2.6085077479365282e-05,0.9965642399527648,0
453,334.525,0.7333333333332916,0.75,0.7249999999999659,1.0114942528735533,0.04172761033227626,1.2688712675263127,77.77777777777777,1.3333333333104762,1.0344827586207384,0.7390407919883728,0.9874288802587523,1
454,335.275,0.75,0.7555555555555884,0.7291666666666288,1.028571428571482,0.03975785146775579,1.2089739859124644,69.44444444444444,1.1904761904557823,1.0361904761905751,0.031276848167181015,0.9929311220713568,0
455,336.03055555555557,0.7555555555555884,0.7305555555555543,0.7291666666666288,1.0361904761905751,0.03606274788927312,1.0966116741497012,58.333333333333336,0.9999999999828572,1.0019047619048123,1.383818357680866e-06,0.9963766928533868,0
456,336.7611111111111,0.7305555555555543,0.7277777777777601,0.731944444444423,0.9981024667931965,0.037397707137730565,1.1372056937975494,63.888888888888886,1.0952380952193197,0.9943074003795116,0.00014207808999344707,0.9949043322323555,0
457,337.4888888888889,0.7277777777777601,0.7722222222222399,0.731944444444423,0.9943074003795116,0.03589729997790537,1.0915806623247946,61.111111111111114,1.0476190476010885,1.0550284629981577,3.874436970363604e-06,0.9980068919919174,0
458,338.2611111111111,0.7722222222222399,0.7249999999999659,0.7361111111110858,1.0490566037736448,0.0374612268402581,1.1391372284533132,61.111111111111114,1.0476190476010885,0.984905660377346,5.824983873026213e-06,0.9971846976677664,0
459,338.9861111111111,0.7249999999999659,0.7083333333333712,0.731944444444423,0.9905123339658268,0.03677201360095264,1.1181793334387264,63.888888888888886,1.0952380952193197,0.9677419354839512,1.401450572302565e-05,0.9978197009316714,0
460,339.69444444444446,0.7083333333333712,0.7277777777777601,0.731944444444423,0.9677419354839512,0.03164334858189493,0.9622246638175912,55.55555555555556,0.9523809523646259,0.9943074003795116,3.678407578533438e-09,0.999329902465689,0
461,340.4222222222222,0.7277777777777601,0.7305555555555543,0.731944444444423,0.9943074003795116,0.03517171940211495,1.0695168935739747,61.111111111111114,1.0476190476010885,0.9981024667931965,1.0610784784148564e-06,0.9977445215947142,0
462,341.15277777777777,0.7305555555555543,0.7472222222222058,0.7305555555555543,1.0,0.031535308545493246,0.9589393355459515,55.55555555555556,0.9523809523646259,1.022813688212907,3.278151972097021e-09,0.9985732910115257,0
463,341.9,0.7472222222222058,0.7361111111111427,0.7305555555555543,1.022813688212907,0.035942706177237965,1.0929613937216305,61.111111111111114,1.0476190476010885,1.0076045627376875,2.0927645891788416e-06,0.9972350184325431,0
464,342.6361111111111,0.7361111111111427,0.7222222222222285,0.7305555555555543,1.0076045627376875,0.033212745126472806,1.0099475544147944,58.333333333333336,0.9999999999828572,0.9885931558935465,2.245746344442523e-08,0.9990911727640006,0
465,343.35833333333335,0.7222222222222285,0.6999999999999886,0.7291666666666572,0.990476190476212,0.030406653582188855,0.9246187060518593,55.55555555555556,0.9523809523646259,0.9599999999999969,9.89997861466918e-10,0.9968657244092991,0
466,344.05833333333334,0.6999999999999886,0.7361111111110858,0.7277777777777601,0.96183206106871,0.035608386976758284,1.0827952705170405,61.111111111111114,1.0476190476010885,1.0114503816793792,2.976055384351639e-06,0.9986665411354045,0
467,344.7944444444444,0.7361111111110858,0.7250000000000227,0.7291666666666572,1.009523809523788,0.03357315904272231,1.0209071770508382,55.55555555555556,0.9523809523646259,0.9942857142857584,2.3968119933215348e-08,0.9984509741755663,0
468,345.51944444444445,0.7250000000000227,0.7027777777777828,0.7263888888888914,0.9980879541109265,0.03692121823487054,1.1227164126400668,63.888888888888886,1.0952380952193197,0.9674952198852809,1.9641491235233843e-05,0.9977079531051336,0
469,346.22222222222223,0.7027777777777828,0.7027777777777828,0.7263888888888914,0.9674952198852809,0.029700629904177267,0.9031496319283115,55.55555555555556,0.9523809523646259,0.9674952198852809,8.536415463389346e-10,0.9970506833245282,0
470,346.925,0.7027777777777828,0.7222222222222285,0.7263888888888914,0.9674952198852809,0.03731111716583715,1.1345726283879425,63.888888888888886,1.0952380952193197,0.9942638623327013,7.969755097292364e-05,0.997623914069514,0
471,347.64722222222224,0.7222222222222285,0.7416666666666742,0.7236111111111256,0.9980806142034436,0.0331160800838475,1.0070081218859541,55.55555555555556,0.9523809523646259,1.0249520153550762,3.606147913615132e-08,0.9979595104426708,0
472,348.3888888888889,0.7416666666666742,0.73888888888888,0.7236111111111256,1.0249520153550762,0.037694538746849936,1.1462318780699288,66.66666666666667,1.1428571428375511,1.0211132437619634,0.00019727114704437554,0.9967437961971013,0
473,349.1277777777778,0.73888888888888,0.7222222222222285,0.7236111111111256,1.0211132437619634,0.032227009740144016,0.9799728853854232,55.55555555555556,0.9523809523646259,0.9980806142034436,2.9883973073907555e-09,0.999650042757715,0
474,349.85,0.7222222222222285,0.5305555555555088,0.7222222222222285,1.0,0.03281153883196035,0.9977474994534925,55.55555555555556,0.9523809523646259,0.7346153846153135,5.293331550859648e-09,0.9996636947160236,0
475,350.38055555555553,0.5305555555555088,0.8138888888889255,0.7222222222222285,0.7346153846153135,0.036057655155241196,1.0964568120851161,63.888888888888886,1.0952380952193197,1.1269230769231178,0.14709438383579254,0.9970986555018195,0
476,351.19444444444446,0.8138888888889255,0.7861111111110972,0.7236111111111256,1.12476007677546,0.0377856045830795,1.149001047502945,63.888888888888886,1.0952380952193197,1.0863723608444888,1.8036935216514394e-05,0.9972376303343103,0
477,351.98055555555555,0.7861111111110972,0.7527777777777942,0.7236111111111256,1.0863723608444888,0.03484515809627689,1.0595866757933683,58.333333333333336,0.9999999999828572,1.040307101727449,1.3283955979659368e-07,0.9978860199023447,0
478,352.73333333333335,0.7527777777777942,0.7472222222222058,0.7305555555555543,1.0304182509505946,0.029451147538927747,0.8955632639935353,52.77777777777778,0.9047619047463946,1.022813688212907,1.4965531591748515e-10,0.995430814139461,0
479,353.48055555555555,0.7472222222222058,0.7555555555555316,0.7402777777777771,1.0093808630393784,0.03236837308679992,0.9842715233238218,55.55555555555556,0.9523809523646259,1.0206378986866476,6.795216833666018e-09,0.9976347245115469,0
480,354.2361111111111,0.7555555555555316,0.7666666666667084,0.74444444444444,1.0149253731343022,0.03464896212035975,1.0536206634896879,58.333333333333336,0.9999999999828572,1.0298507462687188,1.4120107039161667e-07,0.9979320695764985,0
481,355.0027777777778,0.7666666666667084,0.7638888888888573,0.75,1.0222222222222779,0.033271792419102234,1.0117430900911986,58.333333333333336,0.9999999999828572,1.0185185185184764,1.0845023545869026e-08,0.9989726256597606,0
482,355.76666666666665,0.7638888888888573,0.7333333333333485,0.7541666666666629,1.0128913443830203,0.03028529914279111,0.9209285076409655,55.55555555555556,0.9523809523646259,0.9723756906077597,1.7541254559994002e-10,0.9971846438882379,0
483,356.5,0.7333333333333485,0.7277777777777601,0.7541666666666629,0.9723756906077597,0.03689345714089084,1.1218722412574873,61.111111111111114,1.0476190476010885,0.9650092081031122,4.968900611856952e-06,0.9977111653742734,0
484,357.22777777777776,0.7277777777777601,0.7694444444444457,0.7541666666666629,0.9650092081031122,0.03485373690561869,1.0598475439474926,58.333333333333336,0.9999999999828572,1.0202578268876679,2.2765094342958037e-07,0.9988324222628682,0
485,357.9972222222222,0.7694444444444457,0.73888888888888,0.7597222222221944,1.012797074954335,0.034770007428201764,1.0573014616941998,61.111111111111114,1.0476190476010885,0.9725776965265321,8.338565748999827e-08,0.999139714168717,0
486,358.7361111111111,0.73888888888888,0.7388888888889369,0.7541666666666629,0.979742173112332,0.03610721835126995,1.0979639512399075,63.888888888888886,1.0952380952193197,0.9797421731124074,4.166740382061107e-06,0.9975898001913112,0
487,359.475,0.7388888888889369,0.7305555555555543,0.75,0.9851851851852492,0.03127884766818579,0.9511407619907265,52.77777777777778,0.9047619047463946,0.9740740740740724,4.2652351095462393e-10,0.9981097613462541,0
488,360.2055555555556,0.7305555555555543,0.7249999999999659,0.7430555555555713,0.9831775700934353,0.03312539291299301,1.007291310432531,55.55555555555556,0.9523809523646259,0.9757009345793726,9.927647148799679e-09,0.9989181994905987,0
489,360.93055555555554,0.7249999999999659,0.7361111111111427,0.7388888888889085,0.9812030075187248,0.03427822228833253,1.0423470459294941,58.333333333333336,0.9999999999828572,0.9962406015037757,1.4068008624690265e-07,0.9983567863588216,0
490,361.6666666666667,0.7361111111111427,0.7472222222222058,0.7375000000000114,0.9981167608286526,0.030721347287297487,0.9341880486838499,55.55555555555556,0.9523809523646259,1.0131826741995855,1.3005336807481171e-09,0.9976408664285711,0
491,362.4138888888889,0.7472222222222058,0.7027777777777828,0.7375000000000114,1.0131826741995855,0.03696965090203728,1.1241891741830399,61.111111111111114,1.0476190476010885,0.9529190207156231,4.331843229010701e-06,0.9976365715605655,0
492,363.1166666666667,0.7027777777777828,0.7111111111111086,0.7347222222222456,0.9565217391304113,0.0330739776794162,1.0057278537169592,55.55555555555556,0.9523809523646259,0.9678638941398524,2.2144236666576944e-08,0.9987865103294443,0
493,363.8277777777778,0.7111111111111086,0.7277777777777601,0.7333333333333485,0.9696969696969462,0.036010089598518966,1.0950104180125073,61.111111111111114,1.0476190476010885,0.9924242424241978,4.706140316557139e-06,0.997463549357215,0
494,364.55555555555554,0.7277777777777601,0.7555555555555884,0.7333333333333485,0.9924242424241978,0.035225382335147465,1.0711486993091688,61.111111111111114,1.0476190476010885,1.0303030303030538,1.1226991318835644e-06,0.9983903177904541,0
495,365.31111111111113,0.7555555555555884,0.7416666666666742,0.7333333333333485,1.0303030303030538,0.03260301137721971,0.9914065061949802,55.55555555555556,0.9523809523646259,1.0113636363636258,7.243604382978219e-09,0.9974763527331862,0
496,366.0527777777778,0.7416666666666742,0.7194444444444343,0.7333333333333485,1.0113636363636258,0.03250488467084356,0.9884226267610463,55.55555555555556,0.9523809523646259,0.981060606060572,6.6253336150623454e-09,0.9977000216285993,0
497,366.77222222222224,0.7194444444444343,0.7444444444444116,0.7291666666666572,0.9866666666666656,0.03234483263695278,0.9835556951180409,55.55555555555556,0.9523809523646259,1.020952380952349,7.862483109022378e-09,0.9993593169623594,0
498,367.51666666666665,0.7444444444444116,0.7138888888889028,0.7319444444444514,1.0170777988614255,0.03406194779287093,1.035770477297724,58.333333333333336,0.9999999999828572,0.9753320683112052,5.38357767254638e-08,0.9986565141741766,0
499,368.23055555555555,0.7138888888889028,0.7361111111110858,0.7319444444444514,0.9753320683112052,0.03556208272482279,1.0813872307472718,61.111111111111114,1.0476190476010885,1.0056925996204493,2.0801096525246976e-06,0.9982474795198392,0
500,368.96666666666664,0.7361111111110858,0.5416666666666856,0.731944444444423,1.0056925996204884,0.03371593221085057,1.0252486854518483,58.333333333333336,0.9999999999828572,0.7400379506641842,6.473133140616483e-08,0.9983538462394214,0
501,369.5083333333333,0.5416666666666856,0.7888888888888914,0.7236111111110972,0.7485604606526317,0.033892594963600836,1.030620723036122,61.111111111111114,1.0476190476010885,1.0902111324376444,0.003330859122797847,0.9974606255544501,0
502,370.2972222222222,0.7888888888888914,0.841666666666697,0.731944444444423,1.077798861480111,0.03519824060915763,1.070323361936975,61.111111111111114,1.0476190476010885,1.1499051233397335,9.395284337188059e-07,0.998614118802613,0
503,371.1388888888889,0.841666666666697,0.794444444444423,0.73888888888888,1.139097744360957,0.03855524296876549,1.1724045452399556,63.888888888888886,1.0952380952193197,1.075187969924796,2.1372386981965974e-05,0.9962393378411456,0
504,371.93333333333334,0.794444444444423,0.7527777777777942,0.7430555555555429,1.0691588785046622,0.03565738532517185,1.084285233540639,61.111111111111114,1.0476190476010885,1.013084112149572,3.848772962555813e-07,0.997427386535278,0
505,372.68611111111113,0.7527777777777942,0.7222222222222285,0.7430555555555429,1.013084112149572,0.03477317930210655,1.0573979134111793,58.333333333333336,0.9999999999828572,0.9719626168224549,7.998239226481019e-08,0.9987990147566443,0
506,373.40833333333336,0.7222222222222285,0.6944444444444002,0.7402777777777487,0.9756097560976078,0.03555086342912176,1.0810460695390562,61.111111111111114,1.0476190476010885,0.9380863039399395,1.1081926913902862e-06,0.9981743608980982,0
507,374.10277777777776,0.6944444444444002,0.7805555555555657,0.7402777777777487,0.9380863039399395,0.033994707652533866,1.033725809955915,58.333333333333336,0.9999999999828572,1.0544090056285729,4.6378150386772177e-07,0.9982800730321815,0
508,374.8833333333333,0.7805555555555657,0.76111111111112,0.74444444444444,1.048507462686587,0.03572043942151561,1.086202609841686,61.111111111111114,1.0476190476010885,1.0223880597015105,3.571498723431432e-07,0.9985261221362483,0
509,375.64444444444445,0.76111111111112,0.7305555555555543,0.7569444444444571,1.0055045871559583,0.03599371902513938,1.0945126145191157,63.888888888888886,1.0952380952193197,0.9651376146788813,1.4836846276011784e-06,0.998158442015689,0
510,376.375,0.7305555555555543,0.7444444444444684,0.7569444444444571,0.9651376146788813,0.03500498452438078,1.0644467471177863,58.333333333333336,0.9999999999828572,0.9834862385321254,2.2261144749791129e-07,0.9983844666357451,0
511,377.11944444444447,0.7444444444444684,0.7416666666666174,0.7569444444444571,0.9834862385321254,0.030171958372173197,0.9174819923449501,52.77777777777778,0.9047619047463946,0.9798165137613865,7.469942026050447e-11,0.9985475352020677,0
512,377.8611111111111,0.7416666666666174,0.7805555555555657,0.7486111111111313,0.990723562152041,0.03702828762528277,1.1259722250875999,61.111111111111114,1.0476190476010885,1.0426716141001708,9.09683876670897e-06,0.997661398170917,0
513,378.64166666666665,0.7805555555555657,0.75,0.7486111111111313,1.0426716141001708,0.0360826432320034,1.0972166603578022,63.888888888888886,1.0952380952193197,1.0018552875695463,1.0277815363224363e-06,0.9985793841907772,0
514,379.39166666666665,0.75,0.7277777777778169,0.7472222222222342,1.003717472118943,0.034282045895998155,1.0424633158492564,58.333333333333336,0.9999999999828572,0.973977695167323,6.363690374655562e-08,0.9981360742932661,0
