beat_index,peak_time_s,rr_prev_s,rr_next_s,rr_baseline_s,prematurity_index,aa_ratio,morph_index,qrs_width_ms,width_index,pause_index,pvc_score,morphology_score,is_pvc_candidate
0,0.4444444444444444,,0.7583333333333333,0.8694444444445253,,0.023325380535706767,0.8964314423629199,36.111111111111114,0.8666666666458669,0.8722044728433693,1.8891317234960837e-20,0.983438023423246,0
1,1.2027777777777777,0.7583333333333333,0.8138888888888889,0.8694444444445253,0.8722044728433693,0.02566688473277443,0.9864191697426737,36.111111111111114,0.8666666666458669,0.9361022364216381,6.610147843932524e-17,0.9814880602824728,0
2,2.0166666666666666,0.8138888888888889,0.9305555555555558,0.8694444444445253,0.9361022364216381,0.02458967013521402,0.9450201008637227,38.888888888888886,0.9333333333109334,1.070287539936003,8.353989104326834e-20,0.9956418920548332,0
3,2.9472222222222224,0.9305555555555558,0.8472222222222219,0.8694444444445253,1.070287539936003,0.02482119851236661,0.9539181043394269,38.888888888888886,0.9333333333109334,0.9744408945685991,9.868612058991407e-24,0.9957429052181483,0
4,3.7944444444444443,0.8472222222222219,0.7944444444444443,0.8694444444445253,0.9744408945685991,0.02681311656378918,1.0304706805845185,38.888888888888886,0.9333333333109334,0.9137380191692439,1.2209499135939693e-18,0.984890653373409,0
5,4.588888888888889,0.7944444444444443,0.7888888888888896,0.8138888888888889,0.9761092150170647,0.025416853335033553,0.9768100657810145,38.888888888888886,0.9333333333109334,0.9692832764505128,6.983485246176007e-19,0.9880460253637335,0
6,5.377777777777778,0.7888888888888896,0.7972222222222216,0.8041666666666666,0.9810017271157178,0.025433807389816158,0.977461637049462,38.888888888888886,0.9333333333109334,0.9913644214162343,1.1680862999105655e-19,0.994524778594922,0
7,6.175,0.7972222222222216,0.7666666666666666,0.7972222222222216,1.0,0.024666359065710363,0.9479673783356966,36.111111111111114,0.8666666666458669,0.9616724738675965,1.5210212613261558e-19,0.983156256512264,0
8,6.941666666666666,0.7666666666666666,0.8166666666666673,0.795833333333333,0.9633507853403145,0.024466500491378076,0.9402864957115941,38.888888888888886,0.9333333333109334,1.0261780104712055,5.3323051121365865e-20,0.9972973501166282,0
9,7.758333333333334,0.8166666666666673,0.8361111111111112,0.7972222222222216,1.0243902439024406,0.024912812955786182,0.9574389929924615,36.111111111111114,0.8666666666458669,1.048780487804879,3.229410692869907e-20,0.9893640888182189,0
10,8.594444444444445,0.8361111111111112,0.8555555555555543,0.8055555555555552,1.0379310344827593,0.02448347563596166,0.9409388774946087,38.888888888888886,0.9333333333109334,1.0620689655172402,4.1910119515925665e-21,0.9954226134966744,0
11,9.45,0.8555555555555543,0.8111111111111118,0.8152777777777781,1.049403747870526,0.02452152701137792,0.942401252322581,41.666666666666664,0.9999999999760001,0.99488926746167,1.923842168781305e-21,0.9958131267713974,0
12,10.261111111111111,0.8111111111111118,0.8138888888888882,0.8138888888888896,0.9965870307167236,0.02555119600557449,0.9819730681054372,33.333333333333336,0.7999999999808002,0.9999999999999983,5.0946855258359385e-20,0.9853692051877304,0
13,11.075,0.8138888888888882,0.8000000000000007,0.8125,1.0017094017094008,0.024729249359588056,0.9503843522738111,36.111111111111114,0.8666666666458669,0.9846153846153854,6.0645045492944994e-21,0.9907712598486687,0
14,11.875,0.8000000000000007,0.7444444444444436,0.8055555555555562,0.993103448275862,0.024840350977881426,0.9546541640259975,38.888888888888886,0.9333333333109334,0.9241379310344809,4.7748516183483355e-21,0.9960980070969835,0
15,12.619444444444444,0.7444444444444436,0.7694444444444457,0.8055555555555562,0.9241379310344809,0.02417097081389093,0.9289288205540417,36.111111111111114,0.8666666666458669,0.9551724137931042,2.434681063341219e-16,0.9697652819215326,0
16,13.38888888888889,0.7694444444444457,0.7916666666666661,0.8055555555555562,0.9551724137931042,0.023473793601012816,0.9021351923186449,36.111111111111114,0.8666666666458669,0.9827586206896536,2.2940509312869257e-21,0.9948159015284719,0
17,14.180555555555555,0.7916666666666661,0.9361111111111118,0.8055555555555562,0.9827586206896536,0.03381048674913872,1.2993907369324917,61.111111111111114,1.466666666631467,1.1620689655172411,0.5126534104347229,0.9379738348514608,1
18,15.116666666666667,0.9361111111111118,0.4555555555555557,0.8125,1.152136752136753,0.027180483507273943,1.04458917603716,41.666666666666664,0.9999999999760001,0.5606837606837609,4.405775287103933e-18,0.9726302572195273,0
19,15.572222222222223,0.4555555555555557,0.48888888888888715,0.8055555555555562,0.56551724137931,0.02951413535659767,1.1342751252142707,30.555555555555557,0.7333333333157335,0.6068965517241353,0.9524097442626953,0.7548371099171755,1
20,16.06111111111111,0.48888888888888715,0.844444444444445,0.7958333333333334,0.6143106457242561,0.02965811908380177,1.1398086486676942,41.666666666666664,0.9999999999760001,1.0610820244328103,0.0012487052008509636,0.9842081286424615,0
21,16.905555555555555,0.844444444444445,0.5916666666666686,0.7958333333333334,1.0610820244328103,0.02917223660374453,1.121135412801303,41.666666666666664,0.9999999999760001,0.7434554973822013,2.9799238632222114e-08,0.9224730777086059,0
22,17.497222222222224,0.5916666666666686,0.9333333333333336,0.7805555555555559,0.7580071174377245,0.04681698417713408,1.7992511028381666,83.33333333333333,1.9999999999520002,1.1957295373665477,0.999743640422821,0.8517628742368811,1
23,18.430555555555557,0.9333333333333336,0.5222222222222221,0.7805555555555559,1.1957295373665477,0.024228077538720846,0.9311235227424814,33.333333333333336,0.7999999999808002,0.6690391459074729,1.7736404109422605e-19,0.9562478265050555,0
24,18.95277777777778,0.5222222222222221,1.0388888888888879,0.7569444444444446,0.6899082568807337,0.04818999180365408,1.8520179678902708,83.33333333333333,1.9999999999520002,1.3724770642201818,0.9997778534889221,0.8492438164214778,1
25,19.991666666666667,1.0388888888888879,0.6055555555555543,0.7805555555555559,1.3309608540925248,0.024753533070783172,0.9513176138863811,38.888888888888886,0.9333333333109334,0.7758007117437703,1.3818090674470004e-25,0.9919877376310415,0
26,20.59722222222222,0.6055555555555543,1.1388888888888893,0.6986111111111102,0.8667992047713711,0.04973810652422466,1.9115144768445373,91.66666666666667,2.1999999999472006,1.6302186878727662,0.9999293088912964,0.8298344700728438,1
27,21.73611111111111,1.1388888888888893,0.5583333333333336,0.7249999999999996,1.570881226053641,0.02487917556707399,0.9561462546881737,36.111111111111114,0.8666666666458669,0.7701149425287364,3.0126799711552115e-28,0.9950664425125182,0
28,22.294444444444444,0.5583333333333336,1.0222222222222221,0.5986111111111114,0.9327146171693734,0.04808671821257976,1.8480489996643061,86.11111111111111,2.066666666617067,1.7076566125290014,0.9999164342880249,0.8501212364090506,1
29,23.316666666666666,1.0222222222222221,0.5222222222222221,0.7249999999999996,1.4099616858237554,0.02430731863971236,0.9341688841824591,36.111111111111114,0.8666666666458669,0.7203065134099619,1.9944718990744002e-24,0.9824021643760146,0
30,23.83888888888889,0.5222222222222221,0.969444444444445,0.7249999999999996,0.7203065134099619,0.04667215760403863,1.7936851874776993,77.77777777777777,1.8666666666218668,1.337164750957856,0.999848484992981,0.8630474051307315,1
31,24.808333333333334,0.969444444444445,0.5527777777777771,0.7694444444444439,1.2599277978339365,0.024811208558430126,0.9535341745337497,38.888888888888886,0.9333333333109334,0.7184115523465701,1.4526444626527718e-24,0.9939876663166016,0
32,25.36111111111111,0.5527777777777771,1.0388888888888879,0.7694444444444439,0.7184115523465701,0.04679981717702307,1.7985913477423388,80.55555555555556,1.9333333332869336,1.350180505415162,0.999811589717865,0.8625247870445047,1
33,26.4,1.0388888888888879,0.5722222222222229,0.7874999999999996,1.3192239858906518,0.02494513361879588,0.9586811274354797,38.888888888888886,0.9333333333109334,0.7266313932980611,1.1438301317917921e-26,0.9988963245256799,0
34,26.97222222222222,0.5722222222222229,1.0777777777777793,0.7874999999999996,0.7266313932980611,0.04741884802495584,1.8223816869837517,86.11111111111111,2.066666666617067,1.3686067019400379,0.9997853636741638,0.8489624019597792,1
35,28.05,1.0777777777777793,0.5777777777777757,0.7874999999999996,1.3686067019400379,0.02586534469323714,0.9940463014131105,38.888888888888886,0.9333333333109334,0.7336860670193981,5.720932190379837e-25,0.9892368155115983,0
36,28.627777777777776,0.5777777777777757,0.972222222222225,0.7736111111111104,0.7468581687612189,0.04725257646271681,1.8159916066104131,80.55555555555556,1.9333333332869336,1.2567324955116745,0.9998229146003723,0.8483477883162894,1
37,29.6,0.972222222222225,0.5222222222222221,0.7736111111111104,1.2567324955116745,0.02491159907824761,0.9573923417495765,38.888888888888886,0.9333333333109334,0.6750448833034117,4.165090521827863e-24,0.9908808369688966,0
38,30.122222222222224,0.5222222222222221,0.9861111111111107,0.7736111111111104,0.6750448833034117,0.047514885805413076,1.8260725715086503,83.33333333333333,1.9999999999520002,1.2746858168761228,0.9996600151062012,0.8445070771727432,1
39,31.108333333333334,0.9861111111111107,0.5388888888888879,0.7736111111111104,1.2746858168761228,0.027354959069088133,1.0512945491518557,36.111111111111114,0.8666666666458669,0.6965888689407533,2.6737019927965818e-21,0.9817725003986345,0
40,31.647222222222222,0.5388888888888879,1.0666666666666664,0.7736111111111104,0.6965888689407533,0.04770314006918254,1.833307482036412,83.33333333333333,1.9999999999520002,1.378815080789947,0.9997748732566833,0.8455327368348112,1
41,32.71388888888889,1.0666666666666664,0.5944444444444414,0.7750000000000004,1.3763440860215044,0.023686013034843793,0.910291122416991,36.111111111111114,0.8666666666458669,0.7670250896057306,3.9584918890403876e-28,0.9944543422022365,0
42,33.30833333333333,0.5944444444444414,1.1444444444444457,0.7833333333333332,0.7588652482269467,0.04865102506491765,1.8697362087883824,97.22222222222223,2.333333333277334,1.4609929078014203,0.9998527765274048,0.8292055287220671,1
43,34.452777777777776,1.1444444444444457,0.8611111111111143,0.7833333333333332,1.4609929078014203,0.028798079973047785,1.106755978879027,36.111111111111114,0.8666666666458669,1.0992907801418481,6.218271689833782e-22,0.9801511967204686,0
44,35.31388888888889,0.8611111111111143,0.8333333333333357,0.9166666666666696,0.9393939393939398,0.026039587335529014,1.0007427230604111,36.111111111111114,0.8666666666458669,0.9090909090909087,2.092251092787308e-20,0.9878876994581477,0
45,36.147222222222226,0.8333333333333357,0.7611111111111057,0.847222222222225,0.9836065573770487,0.026226919833438868,1.00794220866133,36.111111111111114,0.8666666666458669,0.8983606557376956,4.0474707344407427e-19,0.9814295820386818,0
46,36.90833333333333,0.7611111111111057,0.7972222222222243,0.847222222222225,0.8983606557376956,0.0245026469726433,0.9416756624301101,36.111111111111114,0.8666666666458669,0.9409836065573765,6.378237191970957e-19,0.9868092939087673,0
47,37.705555555555556,0.7972222222222243,0.8944444444444457,0.81527777777778,0.9778534923339011,0.02522346000213243,0.9693776526595849,38.888888888888886,0.9333333333109334,1.097103918228278,9.06281412989636e-19,0.9928188568779097,0
48,38.6,0.8944444444444457,0.9472222222222229,0.847222222222225,1.0557377049180308,0.026030473891766413,1.000392478933654,38.888888888888886,0.9333333333109334,1.118032786885243,1.5580418588879373e-19,0.9884259808968447,0
49,39.547222222222224,0.9472222222222229,0.9194444444444443,0.847222222222225,1.118032786885243,0.029645118435870997,1.1393090131072625,50.0,1.1999999999712,1.0852459016393405,1.8274734142945635e-14,0.9785837142410643,0
50,40.46666666666667,0.9194444444444443,0.9166666666666643,0.87777777777778,1.047468354430377,0.027029470299648427,1.0387854984799874,41.666666666666664,0.9999999999760001,1.0443037974683491,1.0682631775634319e-19,0.9906127810615821,0
51,41.38333333333333,0.9166666666666643,0.81111111111111,0.87777777777778,1.0443037974683491,0.025764534750987236,0.9901720151266653,41.666666666666664,0.9999999999760001,0.9240506329113888,1.7747477101300235e-22,0.9979720212419254,0
52,42.19444444444444,0.81111111111111,0.7666666666666657,0.87777777777778,0.9240506329113888,0.025481015529208638,0.9792759208688444,38.888888888888886,0.9333333333109334,0.8734177215189841,2.2449659206469297e-20,0.9955491564042505,0
53,42.96111111111111,0.7666666666666657,0.8055555555555571,0.847222222222225,0.9049180327868812,0.024237063012530365,0.9314688487805733,36.111111111111114,0.8666666666458669,0.9508196721311463,5.101806516934254e-19,0.9854749016802324,0
54,43.766666666666666,0.8055555555555571,0.9638888888888886,0.8222222222222229,0.9797297297297309,0.02917694849935918,1.1213164984378539,55.55555555555556,1.3333333333013335,1.172297297297296,0.004408675245940685,0.9278187110627375,0
55,44.730555555555554,0.9638888888888886,1.0388888888888914,0.8527777777777779,1.1302931596091201,0.03730271987683883,1.4336028058391277,61.111111111111114,1.466666666631467,1.2182410423452796,3.642174124252051e-05,0.9535282818909337,0
56,45.769444444444446,1.0388888888888914,0.9638888888888886,0.905555555555555,1.1472392638036846,0.027090113670150174,1.0411161195819845,41.666666666666664,0.9999999999760001,1.0644171779141107,3.331698388312973e-14,0.9381333680681285,0
57,46.733333333333334,0.9638888888888886,0.5194444444444457,0.9180555555555543,1.049924357034797,0.0227839772389012,0.875624453275968,36.111111111111114,0.8666666666458669,0.5658093797276875,2.5458220822393557e-27,0.9904321507062819,0
58,47.25277777777778,0.5194444444444457,0.28333333333333144,0.9180555555555543,0.5658093797276875,0.03236321218079784,1.2437696752822032,61.111111111111114,1.466666666631467,0.30862329803328126,0.9939548373222351,0.5737784883572359,1
59,47.53611111111111,0.28333333333333144,0.7805555555555586,0.8638888888888872,0.32797427652732963,0.029395824139085838,1.1297282371067223,38.888888888888886,0.9333333333109334,0.9035369774919667,0.4383307993412018,0.9543280470332866,0
60,48.31666666666667,0.7805555555555586,0.7944444444444443,0.8083333333333336,0.9656357388316186,0.023397791905547465,0.8992143263810566,38.888888888888886,0.9333333333109334,0.9828178694158071,2.8497153642727824e-21,0.9965162121985868,0
61,49.111111111111114,0.7944444444444443,0.8777777777777729,0.8000000000000007,0.9930555555555545,0.025270765299098746,0.9711956703989313,38.888888888888886,0.9333333333109334,1.0972222222222152,6.825565093506212e-19,0.9935175576063562,0
62,49.98888888888889,0.8777777777777729,1.0138888888888928,0.8000000000000007,1.0972222222222152,0.026401626274944245,1.014656454849469,38.888888888888886,0.9333333333109334,1.267361111111115,9.077557797134506e-18,0.991428695023074,0
63,51.00277777777778,1.0138888888888928,0.9166666666666643,0.841666666666665,1.2046204620462118,0.02853080868941371,1.0964843187051012,44.44444444444444,1.0666666666410667,1.0891089108910885,1.3913672557148232e-17,0.9774458551685685,0
64,51.919444444444444,0.9166666666666643,1.2055555555555557,0.8972222222222186,1.0216718266253886,0.046097505621819794,1.7716003985719593,152.77777777777777,3.666666666578667,1.3436532507739993,0.9993841648101807,0.2878819696231252,1
65,53.125,1.2055555555555557,0.7861111111111114,0.8972222222222186,1.3436532507739993,0.025968682211379976,0.99801772645791,41.666666666666664,0.9999999999760001,0.8761609907120782,3.5377460111522606e-28,0.9954220128478077,0
66,53.91111111111111,0.7861111111111114,0.7944444444444443,0.8361111111111086,0.940199335548176,0.02529696892914952,0.972202717544233,36.111111111111114,0.8666666666458669,0.9501661129568133,2.934911259593272e-19,0.9876293102943325,0
67,54.705555555555556,0.7944444444444443,0.62222222222222,0.7944444444444443,1.0,0.024127875086288858,0.9272725832551533,38.888888888888886,0.9333333333109334,0.7832167832167806,5.263928213972065e-22,0.9952704953132354,0
68,55.327777777777776,0.62222222222222,0.6638888888888914,0.7944444444444443,0.7832167832167806,0.046763373859781854,1.7971907731455374,127.77777777777777,3.066666666593067,0.8356643356643391,0.9989662170410156,0.3976684972174341,1
69,55.99166666666667,0.6638888888888914,0.01666666666666572,0.7944444444444443,0.8356643356643391,0.048061601342371925,1.8470837184268325,100.0,2.3999999999424,0.02097902097901979,0.9991586208343506,0.8248207759496798,1
70,56.00833333333333,0.01666666666666572,1.62777777777778,0.7944444444444443,0.02097902097901979,0.051491901576299175,1.9789156078028698,102.77777777777777,2.466666666607467,2.0489510489510523,0.8788114786148071,0.8130200392298705,1
71,57.63611111111111,1.62777777777778,1.0361111111111114,0.8361111111111086,1.9468438538206065,0.025327828250530537,0.973388690306117,38.888888888888886,0.9333333333109334,1.2392026578073132,2.465396501800424e-35,0.9916473346861152,0
72,58.672222222222224,1.0361111111111114,0.8777777777777729,0.8555555555555543,1.2110389610389631,0.03126226174973798,1.2014584006012063,41.666666666666664,0.9999999999760001,1.0259740259740218,6.177968493865743e-19,0.9866281549294662,0
73,59.55,0.8777777777777729,0.75277777777778,0.8361111111111086,1.0498338870431867,0.026170211030515655,1.0057627992441371,36.111111111111114,0.8666666666458669,0.9003322259136266,2.171101216300841e-22,0.9951006712351504,0
74,60.30277777777778,0.75277777777778,0.8055555555555571,0.7902777777777779,0.9525483304042206,0.023400511600178645,0.8993188485678343,33.333333333333336,0.7999999999808002,1.0193321616871724,6.135101264180989e-21,0.9909670175662066,0
75,61.108333333333334,0.8055555555555571,0.8555555555555543,0.7902777777777779,1.0193321616871724,0.02388988100631567,0.9181260925448469,36.111111111111114,0.8666666666458669,1.0826010544815448,2.5664233720350598e-21,0.9953586228290524,0
76,61.96388888888889,0.8555555555555543,0.6777777777777771,0.8000000000000007,1.069444444444442,0.02961657039957048,1.1382118667040848,38.888888888888886,0.9333333333109334,0.8472222222222207,1.1128435846441409e-11,0.9509619995808076,0
77,62.641666666666666,0.6777777777777771,0.21388888888888857,0.7791666666666686,0.8698752228163964,0.040963930921256685,1.5743089646226207,41.666666666666664,0.9999999999760001,0.27450980392156754,0.9975904226303101,0.5505827998200413,1
78,62.855555555555554,0.21388888888888857,0.68611111111111,0.7791666666666686,0.27450980392156754,0.026319842926419992,1.011513390796703,38.888888888888886,0.9333333333109334,0.8805704099821712,0.0003764424182008952,0.9749094224215133,0
79,63.541666666666664,0.68611111111111,1.1361111111111128,0.7791666666666686,0.8805704099821712,0.0490107670405125,1.8835616646075197,119.44444444444444,2.866666666597867,1.458110516934045,0.9995871186256409,0.3809074391536475,1
80,64.67777777777778,1.1361111111111128,0.88333333333334,0.8305555555555557,1.3678929765886305,0.02706559276221807,1.040173742121862,41.666666666666664,0.9999999999760001,1.06354515050168,3.366745536373832e-24,0.9903685807000504,0
81,65.56111111111112,0.88333333333334,0.8055555555555429,0.8305555555555557,1.06354515050168,0.02589535073351285,0.9951994812260947,36.111111111111114,0.8666666666458669,0.969899665551824,1.5821773978089078e-21,0.989184864812434,0
82,66.36666666666666,0.8055555555555429,0.51111111111112,0.80555555555555,0.9999999999999912,0.02280614798824939,0.8764765104068706,36.111111111111114,0.8666666666458669,0.634482758620705,3.15517284437833e-24,0.9935991858750144,0
83,66.87777777777778,0.51111111111112,1.1027777777777743,0.7791666666666615,0.655971479500907,0.04704610996100393,1.8080567708358468,83.33333333333333,1.9999999999520002,1.4153297682709498,0.9996846914291382,0.8565318580792929,1
84,67.98055555555555,1.1027777777777743,0.6111111111111143,0.80555555555555,1.3689655172413844,0.025080812191395293,0.9638954705990069,36.111111111111114,0.8666666666458669,0.7586206896551816,9.642603526742128e-27,0.9882106481892076,0
85,68.59166666666667,0.6111111111111143,1.1583333333333314,0.7458333333333265,0.8193668528864178,0.04648348361950721,1.7864341464140414,119.44444444444444,2.866666666597867,1.5530726256983358,0.9994176626205444,0.3536589040355846,1
86,69.75,1.1583333333333314,0.8638888888888943,0.7458333333333265,1.5530726256983358,0.0245607628455641,0.943909147783407,38.888888888888886,0.9333333333109334,1.158286778398528,6.818823531209029e-27,0.9947729019851136,0
87,70.6138888888889,0.8638888888888943,0.87222222222222,0.8347222222222186,1.0349417637271323,0.028719093559987783,1.103720405501004,41.666666666666664,0.9999999999760001,1.0449251247920153,2.4713147089143754e-16,0.9846296566179625,0
88,71.48611111111111,0.87222222222222,0.7944444444444372,0.8680555555555571,1.0047999999999957,0.024480535454245028,0.940825881638742,36.111111111111114,0.8666666666458669,0.91519999999999,7.251058610586462e-23,0.9914458916571883,0
89,72.28055555555555,0.7944444444444372,0.7833333333333314,0.8680555555555571,0.91519999999999,0.023323895740696748,0.896374379331069,33.333333333333336,0.7999999999808002,0.9023999999999962,6.301764861328312e-19,0.970490707888545,0
90,73.06388888888888,0.7833333333333314,0.7833333333333456,0.8347222222222186,0.9384359400998354,0.02536608239076664,0.9748588577083468,38.888888888888886,0.9333333333109334,0.9384359400998524,2.568219612506677e-18,0.9865943892479081,0
91,73.84722222222223,0.7833333333333456,0.8388888888888886,0.79999999999999,0.9791666666666943,0.02630338589746746,1.0108809210207719,38.888888888888886,0.9333333333109334,1.0486111111111238,4.073821089841502e-18,0.9922408550647808,0
92,74.68611111111112,0.8388888888888886,0.9361111111111029,0.8166666666666629,1.027210884353746,0.026165080796024847,1.005565636179757,38.888888888888886,0.9333333333109334,1.1462585034013557,2.2544868806498098e-17,0.9851717971823588,0
93,75.62222222222222,0.9361111111111029,0.9222222222222314,0.8513888888888914,1.0995106035888942,0.027501176714691437,1.056913925639473,41.666666666666664,0.9999999999760001,1.0831973898858152,8.347239827516284e-19,0.9866045779710415,0
94,76.54444444444445,0.9222222222222314,0.9277777777777771,0.8513888888888914,1.0831973898858152,0.025373612111887555,0.9751482368571533,38.888888888888886,0.9333333333109334,1.0897226753670433,1.0471646112588171e-21,0.9929635359745721,0
95,77.47222222222223,0.9277777777777771,0.7777777777777715,0.8680555555555571,1.0687999999999973,0.025203358258609514,0.9686051107105833,41.666666666666664,0.9999999999760001,0.8959999999999911,4.904421769595397e-23,0.9958327666576304,0
96,78.25,0.7777777777777715,0.7805555555555515,0.8513888888888914,0.9135399673735625,0.02377467801981327,0.9136986586945492,33.333333333333336,0.7999999999808002,0.916802610114185,7.332062710597548e-21,0.987219361619297,0
97,79.03055555555555,0.7805555555555515,0.7916666666666714,0.8166666666666629,0.9557823129251695,0.024861922037360214,0.9554831741222,36.111111111111114,0.8666666666458669,0.9693877551020511,1.388131981733127e-19,0.9881376708860382,0
98,79.82222222222222,0.7916666666666714,0.8333333333333286,0.7930555555555543,0.9982486865148937,0.023155381129266416,0.8898980950126858,36.111111111111114,0.8666666666458669,1.050788091068297,1.1228309375972661e-21,0.9945508423218321,0
99,80.65555555555555,0.8333333333333286,0.88055555555556,0.8125,1.0256410256410198,0.02564673924696342,0.9856449467080262,36.111111111111114,0.8666666666458669,1.0837606837606892,3.701988670344255e-19,0.9857480475151363,0
100,81.53611111111111,0.88055555555556,0.8499999999999943,0.8361111111111086,1.0531561461794106,0.027451350470735814,1.0549990239010731,38.888888888888886,0.9333333333109334,1.0166112956810593,1.2406556098521516e-17,0.9788741207423755,0
101,82.3861111111111,0.8499999999999943,0.63055555555556,0.8444444444444414,1.006578947368418,0.025204059757756424,0.9686320704376119,36.111111111111114,0.8666666666458669,0.7467105263157974,2.312350989675115e-22,0.9900302950709529,0
102,83.01666666666667,0.63055555555556,1.0,0.8416666666666615,0.749174917491759,0.046154899013182475,1.7738061178108198,108.33333333333333,2.5999999999376002,1.1881188118811954,0.9982811212539673,0.367631380417286,1
103,84.01666666666667,1.0,0.7972222222222172,0.8416666666666615,1.1881188118811954,0.027135114031719643,1.0428455549910582,36.111111111111114,0.8666666666458669,0.9471947194719471,1.6525047671136903e-16,0.9486832157348559,0
104,84.81388888888888,0.7972222222222172,0.8194444444444571,0.8152777777777729,0.9778534923339008,0.02383244387263354,0.9159186922191355,36.111111111111114,0.8666666666458669,1.005110732538352,3.9142840898798496e-21,0.9914380966360454,0
105,85.63333333333334,0.8194444444444571,0.8305555555555486,0.8083333333333371,1.0137457044673648,0.028982329655450587,1.1138369869808418,33.333333333333336,0.7999999999808002,1.0274914089346945,4.204979475730397e-08,0.899960820010197,0
106,86.46388888888889,0.8305555555555486,0.8472222222222285,0.8250000000000028,1.006734006733995,0.026627785322246977,1.0233481064461776,38.888888888888886,0.9333333333109334,1.026936026936031,2.9223126371195993e-17,0.9802172407905723,0
107,87.31111111111112,0.8472222222222285,0.8416666666666544,0.8319444444444386,1.0183639398998479,0.02396796997576056,0.9211271757385363,38.888888888888886,0.9333333333109334,1.0116861435726134,2.7571107680387216e-22,0.9965144755962521,0
108,88.15277777777777,0.8416666666666544,0.5722222222222229,0.8374999999999915,1.0049751243781049,0.02595896831639234,0.9976444060363461,38.888888888888886,0.9333333333109334,0.6832504145937058,3.0121044894488664e-21,0.9914422830615275,0
109,88.725,0.5722222222222229,1.0750000000000028,0.8361111111111015,0.6843853820598093,0.04790497654323342,1.8410643784899512,83.33333333333333,1.9999999999520002,1.285714285714304,0.9996622800827026,0.864115873637388,1
110,89.8,1.0750000000000028,0.5472222222222314,0.8361111111111015,1.285714285714304,0.025348719648479037,0.9741915799296016,33.333333333333336,0.7999999999808002,0.6544850498339055,1.6237348837522074e-24,0.9733054492071885,0
111,90.34722222222223,0.5472222222222314,1.0138888888888857,0.8250000000000028,0.6632996632996722,0.04589076405957539,1.7636549917840438,105.55555555555556,2.533333333272534,1.2289562289562208,0.9980902075767517,0.3919679224376638,1
112,91.36111111111111,1.0138888888888857,0.8111111111111029,0.8361111111111015,1.2126245847176182,0.026642820468068276,1.0239259309937383,33.333333333333336,0.7999999999808002,0.9700996677740877,4.3510213976997834e-20,0.9648111034595397,0
113,92.17222222222222,0.8111111111111029,0.8277777777777828,0.8250000000000028,0.9831649831649698,0.023908618993022917,0.9188462231521586,36.111111111111114,0.8666666666458669,1.0033670033670061,7.761947020912936e-21,0.9878021110767405,0
114,93.0,0.8277777777777828,0.5527777777777771,0.8291666666666657,0.9983249581239604,0.026853453021793892,1.032020874767787,38.888888888888886,0.9333333333109334,0.6666666666666666,1.2626611163674151e-18,0.9815835393816772,0
115,93.55277777777778,0.5527777777777771,1.2138888888888886,0.8291666666666657,0.6666666666666666,0.04734282581097228,1.8194600324869008,94.44444444444444,2.266666666612267,1.463986599664993,0.9996964931488037,0.8351034032983967,1
116,94.76666666666667,1.2138888888888886,0.6027777777777743,0.8347222222222186,1.454242928452585,0.027598980327198205,1.0606726738962715,41.666666666666664,0.9999999999760001,0.7221297836938426,4.5198866304078024e-24,0.9804246033855215,0
117,95.36944444444444,0.6027777777777743,1.0805555555555628,0.8194444444444429,0.7355932203389802,0.04836792516269172,1.8588562296473476,97.22222222222223,2.333333333277334,1.3186440677966216,0.999752938747406,0.8304908749171878,1
118,96.45,1.0805555555555628,0.5194444444444457,0.8194444444444429,1.3186440677966216,0.024826004078626538,0.9541027898877361,36.111111111111114,0.8666666666458669,0.6338983050847485,3.786831865685808e-26,0.9842999201294425,0
119,96.96944444444445,0.5194444444444457,1.061111111111103,0.8194444444444429,0.6338983050847485,0.0470815774269626,1.8094198419170502,80.55555555555556,1.9333333332869336,1.2949152542372806,0.9995309114456177,0.8583925855111354,1
120,98.03055555555555,1.061111111111103,0.5805555555555628,0.8194444444444429,1.2949152542372806,0.023849926741321748,0.9165905866463591,38.888888888888886,0.9333333333109334,0.7084745762711967,6.462951447939619e-28,0.9966784398225219,0
121,98.61111111111111,0.5805555555555628,1.2138888888888886,0.8194444444444429,0.7084745762711967,0.048478488016089887,1.8631053358084135,100.0,2.3999999999424,1.4813559322033922,0.9997949004173279,0.8225326534239841,1
122,99.825,1.2138888888888886,0.6861111111111029,0.8194444444444429,1.4813559322033922,0.027821598070852945,1.0692282275659963,44.44444444444444,1.0666666666410667,0.8372881355932119,9.50334106088149e-24,0.9844394168252913,0
123,100.5111111111111,0.6861111111111029,1.7277777777777885,0.7569444444444429,0.9064220183486149,0.04848374472866698,1.8633073596266472,94.44444444444444,2.266666666612267,2.2825688073394685,0.9997913241386414,0.8230571669187765,1
124,102.2388888888889,1.7277777777777885,1.0472222222222172,0.8736111111111029,1.9777424483307144,0.04754139741639706,1.8270914548506545,83.33333333333333,1.9999999999520002,1.198728139904616,8.553880434192251e-06,0.8582966911238773,0
125,103.28611111111111,1.0472222222222172,0.6444444444444457,1.05416666666666,0.993412384716734,0.026397107043628645,1.01448277360811,38.888888888888886,0.9333333333109334,0.6113306982872251,8.43414679729184e-25,0.9917019152472911,0
126,103.93055555555556,0.6444444444444457,1.2944444444444372,0.86666666666666,0.7435897435897507,0.049457239909678444,1.900720326498144,102.77777777777777,2.466666666607467,1.4935897435897467,0.999841570854187,0.8130543737484399,1
127,105.225,1.2944444444444372,0.7250000000000085,1.05416666666666,1.2279314888010548,0.028771235391744886,1.1057242989585152,44.44444444444444,1.0666666666410667,0.687747035573135,6.542980288994222e-27,0.9908238791395368,0
128,105.95,0.7250000000000085,1.24444444444444,0.8861111111111128,0.8181818181818262,0.04869317827559238,1.8713562236639183,127.77777777777777,3.066666666593067,1.4043887147335345,0.9998829364776611,0.6499899499802879,1
129,107.19444444444444,1.24444444444444,0.5861111111111086,1.05416666666666,1.1805006587615317,0.025653293084419927,0.9858968210967486,38.888888888888886,0.9333333333109334,0.5559947299077744,1.5662507723294113e-30,0.9947306776131508,0
130,107.78055555555555,0.5861111111111086,1.0277777777777857,0.8861111111111128,0.6614420062695884,0.04890155084957753,1.8793643128250122,94.44444444444444,2.266666666612267,1.159874608150477,0.9993394017219543,0.8302575513945005,1
131,108.80833333333334,1.0277777777777857,0.5583333333333229,1.0375000000000014,0.990629183400274,0.026601308489588096,1.0223305596904766,36.111111111111114,0.8666666666458669,0.5381526104417563,9.885756373044575e-24,0.9823769816268623,0
132,109.36666666666666,0.5583333333333229,1.2944444444444514,0.8763888888888971,0.6370839936608379,0.04754278671831045,1.8271448479310457,108.33333333333333,2.5999999999376002,1.4770206022186945,0.9996665716171265,0.8297577121803388,1
133,110.66111111111111,1.2944444444444514,0.74722222222222,1.0375000000000014,1.247657295850072,0.03059883475861239,1.1759618470231497,47.22222222222222,1.1333333333061335,0.720214190093705,4.5691227527184477e-23,0.9815395827746187,0
134,111.40833333333333,0.74722222222222,1.2833333333333314,0.8875000000000028,0.841940532081372,0.04851238112221597,1.8644079017392994,111.11111111111111,2.666666666602667,1.4460093896713548,0.9999150037765503,0.7879137297297342,1
135,112.69166666666666,1.2833333333333314,0.6611111111111114,0.8875000000000028,1.4460093896713548,0.02937602379748747,1.128967278512665,41.666666666666664,0.9999999999760001,0.7449139280125175,2.582642596398854e-25,0.9869939402511287,0
136,113.35277777777777,0.6611111111111114,1.1444444444444457,0.8875000000000028,0.7449139280125175,0.04477729392707407,1.7208625650805136,127.77777777777777,3.066666666593067,1.289514866979653,0.9998008608818054,0.7290776223219643,1
137,114.49722222222222,1.1444444444444457,0.9583333333333286,0.8875000000000028,1.289514866979653,0.027875136711977135,1.0712858026272751,52.77777777777778,1.266666666636267,1.0798122065727611,3.82779993345673e-20,0.9830691458999934,0
138,115.45555555555555,0.9583333333333286,1.2055555555555628,0.9930555555555571,0.9650349650349588,0.03203708124862813,1.2312359452761046,44.44444444444444,1.0666666666410667,1.2139860139860195,1.3525949457693365e-11,0.9774076256597993,0
139,116.66111111111111,1.2055555555555628,1.1416666666666657,0.9930555555555571,1.2139860139860195,0.03193761301928671,1.2274132231489643,52.77777777777778,1.266666666636267,1.149650349650347,3.71506644891717e-12,0.9444593165752463,0
140,117.80277777777778,1.1416666666666657,0.9805555555555543,1.0847222222222257,1.052496798975668,0.02933535645002821,1.1274043677218133,41.666666666666664,0.9999999999760001,0.9039692701664492,1.2518345604966341e-21,0.9826579808283371,0
141,118.78333333333333,0.9805555555555543,0.8944444444444457,1.06111111111111,0.9240837696335076,0.027698902423924573,1.0645128388682952,38.888888888888886,0.9333333333109334,0.8429319371727769,2.0079576725177466e-20,0.9869032925044653,0
142,119.67777777777778,0.8944444444444457,0.8472222222222285,1.06111111111111,0.8429319371727769,0.02517011021613694,0.967327335601028,36.111111111111114,0.8666666666458669,0.7984293193717346,2.2703710687170696e-21,0.9900725680375927,0
143,120.525,0.8472222222222285,0.87222222222222,0.9694444444444414,0.873925501432674,0.026937055866498423,1.0352338649502795,38.888888888888886,0.9333333333109334,0.8997134670487111,6.072659613093735e-19,0.9935346140709971,0
144,121.39722222222223,0.87222222222222,1.0361111111111114,0.9694444444444414,0.8997134670487111,0.028089952789958218,1.0795415258868613,41.666666666666664,0.9999999999760001,1.0687679083094592,6.672422632656946e-16,0.9879387539433517,0
145,122.43333333333334,1.0361111111111114,1.0888888888888886,0.9694444444444414,1.0687679083094592,0.031471257719765035,1.209490447862883,47.22222222222222,1.1333333333061335,1.1232091690544443,1.4665464074256965e-14,0.9774473064874609,0
146,123.52222222222223,1.0888888888888886,0.9416666666666629,1.0083333333333329,1.0798898071625347,0.028061665216414268,1.078454389481342,44.44444444444444,1.0666666666410667,0.9338842975206578,7.174435225576025e-22,0.9872408240342124,0
147,124.46388888888889,0.9416666666666629,0.8499999999999943,0.9694444444444414,0.9713467048710592,0.025746022136675695,0.9894605459386793,38.888888888888886,0.9333333333109334,0.8767908309455555,1.5517699274909352e-22,0.9933901155611924,0
148,125.31388888888888,0.8499999999999943,0.8416666666666686,0.9611111111111086,0.8843930635838114,0.025408180543721688,0.9764767566282182,38.888888888888886,0.9333333333109334,0.8757225433526055,1.5205098310630508e-20,0.9949614664876845,0
149,126.15555555555555,0.8416666666666686,0.88333333333334,0.9180555555555543,0.9167927382753437,0.02581004860974229,0.9919211850486238,38.888888888888886,0.9333333333109334,0.9621785173978905,3.742225514148705e-20,0.9958616240215439,0
150,127.03888888888889,0.88333333333334,0.8916666666666657,0.8888888888888928,0.993750000000003,0.028764588051724653,1.1054688311176757,41.666666666666664,0.9999999999760001,1.0031249999999945,3.062498575123656e-17,0.987741557865158,0
151,127.93055555555556,0.8916666666666657,0.9527777777777686,0.8875000000000028,1.0046948356807468,0.0246168706541694,0.9460654600338706,38.888888888888886,0.9333333333109334,1.073552425665088,4.904349509936479e-22,0.9970465960889461,0
152,128.88333333333333,0.9527777777777686,0.6805555555555713,0.8875000000000028,1.073552425665088,0.028263583243434386,1.086214420145092,44.44444444444444,1.0666666666410667,0.7668231611893737,8.91315751154597e-19,0.9840830298441887,0
153,129.5638888888889,0.6805555555555713,1.1833333333333371,0.8875000000000028,0.7668231611893737,0.04131657968025306,1.5878618168554357,105.55555555555556,2.533333333272534,1.3333333333333333,0.9998449087142944,0.8585375005007907,1
154,130.74722222222223,1.1833333333333371,0.5749999999999886,0.9166666666666643,1.2909090909090983,0.025298287853110814,0.9722534058880814,38.888888888888886,0.9333333333109334,0.6272727272727165,5.040342831512328e-29,0.9941657746573194,0
155,131.32222222222222,0.5749999999999886,1.0333333333333314,0.8875000000000028,0.6478873239436471,0.048279666257388894,1.855464299656715,86.11111111111111,2.066666666617067,1.1643192488262852,0.9993122816085815,0.8403995929842734,1
156,132.35555555555555,1.0333333333333314,0.6416666666666799,0.8875000000000028,1.1643192488262852,0.024804147112550367,0.9532627919466373,41.666666666666664,0.9999999999760001,0.7230046948356934,4.522141441393957e-26,0.9963062952776855,0
157,132.99722222222223,0.6416666666666799,1.049999999999983,0.8666666666666671,0.7403846153846303,0.05034695676500173,1.934913559174075,116.66666666666667,2.7999999999328007,1.2115384615384412,0.9981042146682739,0.31255511207992603,1
158,134.04722222222222,1.049999999999983,0.86388888888888,0.8875000000000028,1.1830985915492729,0.02570626609461595,0.9879326580625649,44.44444444444444,1.0666666666410667,0.973395931142397,7.697133704068998e-22,0.9794929678572589,0
159,134.9111111111111,0.86388888888888,0.9194444444444514,0.8875000000000028,0.973395931142397,0.03957430357366153,1.5209033772777651,30.555555555555557,0.7333333333157335,1.0359937402190968,0.0004963017418049276,0.6367202778161504,0
160,135.83055555555555,0.9194444444444514,0.8944444444444457,0.9055555555555586,1.0153374233128878,0.027492256040920184,1.056571089969831,44.44444444444444,1.0666666666410667,0.9877300613496913,1.3547215994791725e-16,0.9753433229652533,0
161,136.725,0.8944444444444457,0.8305555555555486,0.9069444444444485,0.9862174578866738,0.02471285413962552,0.9497542579155914,33.333333333333336,0.7999999999808002,0.9157733537519024,7.334797142308759e-23,0.9859679866364413,0
162,137.55555555555554,0.8305555555555486,0.75,0.8791666666666629,0.9447077409162679,0.025711212491535462,0.9881227559569282,38.888888888888886,0.9333333333109334,0.8530805687203828,5.00049259540345e-20,0.9901376502951255,0
163,138.30555555555554,0.75,0.7916666666666856,0.8791666666666629,0.8530805687203828,0.02630617526484081,1.0109881208417544,41.666666666666664,0.9999999999760001,0.9004739336493145,2.1354022208103072e-16,0.9911574859765624,0
164,139.09722222222223,0.7916666666666856,0.8305555555555486,0.8472222222222143,0.9344262295082278,0.024999733333947692,0.9607794812578844,36.111111111111114,0.8666666666458669,0.9803278688524599,2.020605296395425e-20,0.9945252956552494,0
165,139.92777777777778,0.8305555555555486,0.8249999999999886,0.8472222222222143,0.9803278688524599,0.025303766551599768,0.9724639609776846,38.888888888888886,0.9333333333109334,0.9737704918032744,2.953271955005564e-20,0.9917601209933917,0
166,140.75277777777777,0.8249999999999886,0.9000000000000057,0.8305555555555486,0.9933110367892923,0.026266923058159773,1.009479596159932,44.44444444444444,1.0666666666410667,1.0836120401337952,1.105387426025845e-17,0.9942462042129772,0
167,141.65277777777777,0.9000000000000057,0.8888888888888857,0.8472222222222143,1.0622950819672297,0.02748009823209429,1.0561038460556285,38.888888888888886,0.9333333333109334,1.0491803278688585,2.0822356480916529e-19,0.9888977106496688,0
168,142.54166666666666,0.8888888888888857,0.8333333333333428,0.8472222222222143,1.0491803278688585,0.025385442147777024,0.975602883936517,38.888888888888886,0.9333333333109334,0.9836065573770695,1.6525753702343798e-22,0.9972403952674,0
169,143.375,0.8333333333333428,0.7527777777777658,0.8319444444444457,1.0016694490818128,0.027540888630428917,1.0584401176708977,33.333333333333336,0.7999999999808002,0.9048414023372129,4.941531345491754e-15,0.9598862458604513,0
170,144.12777777777777,0.7527777777777658,0.5500000000000114,0.8305555555555486,0.9063545150501604,0.023816206315381425,0.9152946570894328,36.111111111111114,0.8666666666458669,0.662207357859551,7.146986703093776e-21,0.9863743198379666,0
171,144.67777777777778,0.5500000000000114,1.0999999999999943,0.8277777777777686,0.6644295302013634,0.04880528968529008,1.87566484330452,88.88888888888889,2.1333333332821334,1.3288590604026924,0.9995701909065247,0.8379867348467157,1
172,145.77777777777777,1.0999999999999943,0.5805555555555486,0.8277777777777686,1.3288590604026924,0.025514829326905502,0.9805754388507597,36.111111111111114,0.8666666666458669,0.701342281879194,8.608824421609324e-27,0.9897720735508626,0
173,146.35833333333332,0.5805555555555486,1.1805555555555713,0.8277777777777686,0.701342281879194,0.04766446357762121,1.8318210830015587,86.11111111111111,2.066666666617067,1.4261744966443302,0.9997487664222717,0.8439058367340794,1
174,147.5388888888889,1.1805555555555713,0.5694444444444287,0.8319444444444457,1.419031719532571,0.023802637476850096,0.9147731850612612,36.111111111111114,0.8666666666458669,0.684474123539212,1.5573513697908613e-28,0.9811384327796535,0
175,148.10833333333332,0.5694444444444287,1.1277777777777942,0.8291666666666657,0.6867671691792112,0.04822903307515893,1.8535183859980568,91.66666666666667,2.1999999999472006,1.360134003350105,0.9996556043624878,0.8338548802008328,1
176,149.23611111111111,1.1277777777777942,0.7888888888888914,0.8611111111111143,1.309677419354853,0.02592246818530501,0.996241647993151,41.666666666666664,0.9999999999760001,0.9161290322580641,2.4282871999652692e-26,0.9947229686217316,0
177,150.025,0.7888888888888914,0.7944444444444514,0.8111111111111171,0.9726027397260233,0.024995608304854637,0.9606209498343984,33.333333333333336,0.7999999999808002,0.9794520547945219,3.7021582423698286e-19,0.980061714407644,0
178,150.81944444444446,0.7944444444444514,0.6222222222222058,0.7916666666666714,1.0035087719298272,0.02467744388586143,0.9483933855899466,36.111111111111114,0.8666666666458669,0.7859649122806763,2.4408136938072167e-20,0.9839008022813763,0
179,151.44166666666666,0.6222222222222058,1.1611111111111256,0.7708333333333286,0.8072072072071909,0.04827629372630215,1.855334687927471,105.55555555555556,2.533333333272534,1.5063063063063344,0.9999141693115234,0.8070706636709991,1
180,152.6027777777778,1.1611111111111256,0.8972222222222115,0.7916666666666714,1.4666666666666763,0.02552411132681188,0.980932160857989,38.888888888888886,0.9333333333109334,1.133333333333313,6.079263736262408e-27,0.9967081972606,0
181,153.5,0.8972222222222115,0.8444444444444343,0.8458333333333314,1.0607553366173952,0.02708431571377726,1.0408932949045404,36.111111111111114,0.8666666666458669,0.9983579638751956,3.4814380852306097e-20,0.9853586643510805,0
182,154.34444444444443,0.8444444444444343,0.8666666666666742,0.8194444444444429,1.030508474576261,0.02341094562961621,0.8997198449007368,36.111111111111114,0.8666666666458669,1.057627118644079,4.568601725867767e-22,0.9908813602813115,0
183,155.2111111111111,0.8666666666666742,0.8472222222222285,0.8555555555555543,1.0129870129870233,0.025048614914635052,0.9626580780856391,33.333333333333336,0.7999999999808002,0.990259740259749,2.9479915296274712e-21,0.9824997053826934,0
184,156.05833333333334,0.8472222222222285,0.5722222222222229,0.8458333333333314,1.0016420361248044,0.023748320812513567,0.9126857093315084,33.333333333333336,0.7999999999808002,0.6765188834154374,7.359601453523804e-23,0.9806914133436947,0
185,156.63055555555556,0.5722222222222229,0.99444444444444,0.8458333333333314,0.6765188834154374,0.04675432783254623,1.79684311994305,91.66666666666667,2.1999999999472006,1.1756978653530352,0.9994400143623352,0.8349478850636096,1
186,157.625,0.99444444444444,0.7833333333333314,0.8458333333333314,1.1756978653530352,0.02451257302654359,0.9420571364558474,36.111111111111114,0.8666666666458669,0.9261083743842363,3.399536906482059e-25,0.9899357313268767,0
187,158.40833333333333,0.7833333333333314,0.8027777777777771,0.8458333333333314,0.9261083743842363,0.020847529809220763,0.8012037011775798,33.333333333333336,0.7999999999808002,0.9490968801313643,1.8983547671312108e-22,0.9821986255899893,0
188,159.2111111111111,0.8027777777777771,0.8055555555555713,0.8458333333333314,0.9490968801313643,0.021465174730367784,0.8249407770501205,33.333333333333336,0.7999999999808002,0.9523809523809732,1.7773610090937944e-24,0.9946794735292388,0
189,160.01666666666668,0.8055555555555713,0.6222222222222058,0.8458333333333314,0.9523809523809732,0.02459122352316505,0.9450798000313035,36.111111111111114,0.8666666666458669,0.7356321839080282,7.996885701923602e-22,0.9902443718303483,0
190,160.63888888888889,0.6222222222222058,0.9972222222222342,0.8250000000000028,0.7542087542087317,0.04636914097927415,1.782039777038125,83.33333333333333,1.9999999999520002,1.2087542087542191,0.9996992349624634,0.8494031071203061,1
191,161.63611111111112,0.9972222222222342,0.7027777777777828,0.8250000000000028,1.2087542087542191,0.02306742345176998,0.8865177416853597,36.111111111111114,0.8666666666458669,0.8518518518518551,2.4823095349053312e-26,0.9887891842204897,0
192,162.3388888888889,0.7027777777777828,0.7833333333333314,0.8041666666666742,0.8739205526770274,0.026442490106087905,1.0162269168205613,136.11111111111111,3.266666666588267,0.9740932642486931,0.8654621839523315,0.5574177713729843,1
193,163.12222222222223,0.7833333333333314,0.5638888888888687,0.7930555555555543,0.9877408056042023,0.025101081135640677,0.964674438337486,33.333333333333336,0.7999999999808002,0.7110332749561928,1.9693529029751744e-09,0.855624718455525,0
194,163.6861111111111,0.5638888888888687,1.1166666666666742,0.7833333333333314,0.7198581560283447,0.04934423194788702,1.8963772509357923,97.22222222222223,2.333333333277334,1.42553191489363,0.9997900128364563,0.8385525524463251,1
195,164.80277777777778,1.1166666666666742,0.9222222222222172,0.7930555555555543,1.4080560420315353,0.030649659253195047,1.1779151131195529,44.44444444444444,1.0666666666410667,1.1628721541155822,1.3282553932977218e-16,0.9738273968608158,0
196,165.725,0.9222222222222172,0.9111111111111256,0.7930555555555543,1.1628721541155822,0.030082115459001545,1.1561035031758615,41.666666666666664,0.9999999999760001,1.148861646234696,1.5321054971581538e-12,0.9649610134985449,0
197,166.63611111111112,0.9111111111111256,0.8083333333333371,0.8041666666666742,1.13298791018999,0.0254019770392141,0.9762383460914671,44.44444444444444,1.0666666666410667,1.0051813471502542,1.3824451473335676e-20,0.9909005232082432,0
198,167.44444444444446,0.8083333333333371,0.7666666666666515,0.8069444444444542,1.0017211703958617,0.026765884848513638,1.0286554907064835,36.111111111111114,0.8666666666458669,0.9500860585197631,3.1783415803170124e-17,0.97697816308455,0
199,168.2111111111111,0.7666666666666515,0.5333333333333314,0.7958333333333343,0.963350785340294,0.022602483155229038,0.8686493472125314,36.111111111111114,0.8666666666458669,0.670157068062824,4.914151289194709e-19,0.9650413338728165,0
200,168.74444444444444,0.5333333333333314,0.9749999999999943,0.7958333333333343,0.670157068062824,0.046492749647955946,1.7867902546127719,77.77777777777777,1.8666666666218668,1.2251308900523474,0.9996578693389893,0.8687817161188074,1
201,169.71944444444443,0.9749999999999943,0.6611111111111256,0.7958333333333343,1.2251308900523474,0.025793413251487755,0.9912818617942182,38.888888888888886,0.9333333333109334,0.8307155322862302,1.2874996855316567e-06,0.47476838008886707,0
202,170.38055555555556,0.6611111111111256,1.1999999999999886,0.7958333333333343,0.8307155322862302,0.04777774473510047,1.8361746579083527,97.22222222222223,2.333333333277334,1.507853403141345,0.9999182224273682,0.8313768581226831,1
203,171.58055555555555,1.1999999999999886,0.9916666666666742,0.8597222222222314,1.3957996768981948,0.027541313197496444,1.058456434458019,38.888888888888886,0.9333333333109334,1.153473344103389,3.186980679359408e-09,0.4706958581116042,0
204,172.57222222222222,0.9916666666666742,0.7916666666666572,0.9166666666666714,1.0818181818181845,0.029103901694164432,1.118509193629236,41.666666666666664,0.9999999999760001,0.8636363636363489,8.852101449377052e-18,0.972980240854527,0
205,173.36388888888888,0.7916666666666572,0.6944444444444571,0.8597222222222314,0.9208400646203346,0.02351092015071666,0.9035620246247685,33.333333333333336,0.7999999999808002,0.8077544426494406,1.7778162145987153e-05,0.45556437805033057,0
206,174.05833333333334,0.6944444444444571,1.7222222222222285,0.7999999999999972,0.8680555555555745,0.029811928509401613,1.1457197893253315,122.22222222222223,2.933333333262934,2.1527777777777932,0.9840249419212341,0.4255673234814846,1
207,175.78055555555557,1.7222222222222285,1.0916666666666686,0.7999999999999972,2.1527777777777932,0.02916371616154885,1.1208079586671527,38.888888888888886,0.9333333333109334,1.3645833333333406,2.031477243369384e-11,0.4405113132361139,0
208,176.87222222222223,1.0916666666666686,0.8722222222222058,0.8833333333333258,1.2358490566037863,0.028615909090096054,1.0997548623437166,38.888888888888886,0.9333333333109334,0.9874213836477886,2.893620156326665e-21,0.9775949497926122,0
209,177.74444444444444,0.8722222222222058,0.9444444444444571,0.9236111111111001,0.9443609022556326,0.03006025553284384,1.1552633914741253,41.666666666666664,0.9999999999760001,1.0225563909774695,0.0002447647857479751,0.5293457369489485,0
210,178.6888888888889,0.9444444444444571,0.8527777777777601,0.9597222222222257,0.9840810419681717,0.03318116827067355,1.275205027700757,52.77777777777778,1.266666666636267,0.888567293777113,0.00018768732843454927,0.8680217376699888,0
211,179.54166666666666,0.8527777777777601,0.8055555555555713,0.9083333333333314,0.9388379204892792,0.027843143653705313,1.0700562585549585,33.333333333333336,0.7999999999808002,0.886850152905218,1.642292123691172e-13,0.9497283019723652,0
212,180.34722222222223,0.8055555555555713,0.8277777777777828,0.9083333333333314,0.886850152905218,0.0273345334955645,1.0505095619013003,38.888888888888886,0.9333333333109334,0.9113149847094876,6.846851862787228e-17,0.9864667635194341,0
213,181.175,0.8277777777777828,0.9694444444444343,0.862499999999983,0.9597423510467237,0.028422469056998842,1.0923206544595359,38.888888888888886,0.9333333333109334,1.123993558776178,2.0310189096488116e-16,0.9928797240512115,0
214,182.14444444444445,0.9694444444444343,0.8138888888888971,0.862499999999983,1.123993558776178,0.029897963076962335,1.149026234481648,50.0,1.1999999999712,0.9436392914654066,2.789044443665548e-16,0.9833502437666437,0
215,182.95833333333334,0.8138888888888971,1.11388888888888,0.862499999999983,0.9436392914654066,0.045862816569622995,1.7625809253314046,113.88888888888889,2.7333333332677334,1.2914653784219154,0.999894380569458,0.7932127598943708,1
216,184.07222222222222,1.11388888888888,0.9305555555555429,0.9083333333333314,1.2262996941895952,0.027222438722963895,1.0462015816507797,44.44444444444444,1.0666666666410667,1.0244648318042695,1.037973536054102e-21,0.9799375516330038,0
217,185.00277777777777,0.9305555555555429,0.88611111111112,0.9013888888888744,1.0323574730354417,0.029064084718319592,1.1169789639709253,41.666666666666664,0.9999999999760001,0.9830508474576528,1.316667585532589e-16,0.9767821131033617,0
218,185.88888888888889,0.88611111111112,0.8166666666666629,0.8791666666666629,1.0078988941548328,0.02724907891413874,1.0472254065338564,36.111111111111114,0.8666666666458669,0.9289099526066348,4.0785150813237993e-19,0.9792674264152406,0
219,186.70555555555555,0.8166666666666629,0.88055555555556,0.86944444444444,0.9392971246006394,0.025063947045155643,0.9632473162271574,36.111111111111114,0.8666666666458669,1.012779552715665,8.217573450384915e-20,0.9889551167088888,0
220,187.5861111111111,0.88055555555556,0.9444444444444571,0.86666666666666,1.0160256410256538,0.030007415370908848,1.1532326600781009,100.0,2.3999999999424,1.0897435897436127,0.0006635392201133072,0.9553386223962459,0
221,188.53055555555557,0.9444444444444571,1.0,0.88333333333334,1.0691823899371131,0.03048900571752334,1.1717409424352876,44.44444444444444,1.0666666666410667,1.1320754716981047,9.241016799162432e-15,0.9809370541226476,0
222,189.53055555555557,1.0,0.8722222222222058,0.9083333333333314,1.1009174311926628,0.029322176818169995,1.1268978535246115,47.22222222222222,1.1333333333061335,0.9602446483180267,2.95199109167642e-18,0.9851053493373536,0
223,190.40277777777777,0.8722222222222058,0.88611111111112,0.9083333333333314,0.9602446483180267,0.030065137215398427,1.1554510022926012,47.22222222222222,1.1333333333061335,0.9755351681957304,1.6423037111018904e-14,0.9865008254620777,0
224,191.2888888888889,0.88611111111112,0.8249999999999886,0.88611111111112,1.0,0.032413637298762614,1.2457075927004972,136.11111111111111,3.266666666588267,0.9310344827585986,0.2739191949367523,0.9352611155190995,0
225,192.11388888888888,0.8249999999999886,0.7916666666666856,0.88611111111112,0.9310344827585986,0.03004847663839487,1.1548107098415934,41.666666666666664,0.9999999999760001,0.893416927899699,4.783652798323601e-07,0.9292045014563777,0
226,192.90555555555557,0.7916666666666856,0.61944444444444,0.88333333333334,0.8962264150943543,0.030279838912835536,1.1637023297261102,44.44444444444444,1.0666666666410667,0.7012578616352099,1.2256412247960147e-12,0.9809076153402299,0
227,193.525,0.61944444444444,1.0916666666666686,0.8763888888888829,0.7068145800316955,0.0513535654450523,1.9735991304371645,111.11111111111111,2.666666666602667,1.2456418383518333,0.9981849789619446,0.37034683948575775,1
228,194.61666666666667,1.0916666666666686,0.9694444444444343,0.8763888888888829,1.2456418383518333,0.02854447237908004,1.097009436013127,44.44444444444444,1.0666666666410667,1.1061806656101387,1.8952517291179824e-21,0.9923500248843588,0
229,195.5861111111111,0.9694444444444343,0.9416666666666629,0.88333333333334,1.09748427672954,0.0291837213645219,1.1215767904094018,44.44444444444444,1.0666666666410667,1.0660377358490443,4.592830188513918e-18,0.9887740773150382,0
230,196.52777777777777,0.9416666666666629,0.8611111111111143,0.9138888888888914,1.0303951367781086,0.02658600256247566,1.0217423285875755,36.111111111111114,0.8666666666458669,0.9422492401215814,2.0877205118851526e-22,0.9894494827086675,0
231,197.38888888888889,0.8611111111111143,0.7638888888888857,0.8791666666666629,0.9794628751974802,0.02593202915771409,0.9966090913569985,36.111111111111114,0.8666666666458669,0.8688783570300159,1.30701735839647e-19,0.9790223367534583,0
232,198.15277777777777,0.7638888888888857,0.7694444444444457,0.86666666666666,0.8814102564102595,0.02649839288581501,1.0183753494854069,36.111111111111114,0.8666666666458669,0.8878205128205211,1.0167895984816017e-13,0.9633298100659891,0
233,198.92222222222222,0.7694444444444457,0.8388888888889028,0.8430555555555515,0.9126853377265298,0.02754828994551378,1.0587245619716776,36.111111111111114,0.8666666666458669,0.9950576606260509,3.737312109092228e-12,0.9610186262429692,0
234,199.76111111111112,0.8388888888889028,0.8222222222222229,0.8319444444444457,1.00834724540903,0.026452432342057238,1.0166090127489282,41.666666666666664,0.9999999999760001,0.9883138564273782,3.0367744161261146e-19,0.9935248340712755,0
235,200.58333333333334,0.8222222222222229,0.7361111111111143,0.8305555555555628,0.9899665551839386,0.0273290838036415,1.0503001215801235,41.666666666666664,0.9999999999760001,0.8862876254180563,2.8020164313802276e-13,0.9599750555099547,0
236,201.31944444444446,0.7361111111111143,1.1111111111110858,0.8305555555555628,0.8862876254180563,0.048155260630370095,1.8506831937066617,108.33333333333333,2.5999999999376002,1.337792642140426,0.9999029636383057,0.8308717117946338,1
237,202.43055555555554,1.1111111111110858,0.8416666666666686,0.8500000000000085,1.3071895424836173,0.027303543681838308,1.0493185741112148,38.888888888888886,0.9333333333109334,0.9901960784313648,2.1418046893293603e-25,0.9949295253006475,0
238,203.2722222222222,0.8416666666666686,0.7750000000000057,0.8402777777777857,1.0016528925619763,0.027104539294760414,1.0416705192607612,38.888888888888886,0.9333333333109334,0.922314049586775,3.8085886637301857e-20,0.9953676349973781,0
239,204.04722222222222,0.7750000000000057,0.75555555555556,0.8305555555555628,0.9331103678929753,0.025687338750491624,0.9872052501487908,38.888888888888886,0.9333333333109334,0.9096989966555158,5.407404982121944e-18,0.9864507856618815,0
240,204.80277777777778,0.75555555555556,0.8361111111111086,0.7986111111111143,0.9460869565217409,0.02625237487207849,1.0089204862490502,38.888888888888886,0.9333333333109334,1.0469565217391232,1.712782510228838e-17,0.9932640672482651,0
241,205.63888888888889,0.8361111111111086,0.8888888888888857,0.7986111111111143,1.0469565217391232,0.027511877472486082,1.0573251727670192,41.666666666666664,0.9999999999760001,1.1130434782608611,4.8555151232283e-17,0.9911529752879346,0
242,206.52777777777777,0.8888888888888857,0.9833333333333485,0.8291666666666657,1.0720268006700142,0.02775712696835176,1.0667505006402815,41.666666666666664,0.9999999999760001,1.1859296482412256,4.4654213785597226e-17,0.9902948750249848,0
243,207.51111111111112,0.9833333333333485,0.7472222222222058,0.8375000000000057,1.174129353233841,0.030864846363113978,1.1861850957261493,41.666666666666664,0.9999999999760001,0.8922056384742695,4.12571385197971e-17,0.9803960156688546,0
244,208.25833333333333,0.7472222222222058,1.0416666666666856,0.8291666666666657,0.901172529313214,0.04048218933988351,1.5557948700733175,125.0,2.9999999999280003,1.2562814070352002,0.9978142976760864,0.3396621602880019,1
245,209.3,1.0416666666666856,0.7861111111110972,0.8388888888888886,1.2417218543046589,0.027391095442816416,1.0526833274216645,38.888888888888886,0.9333333333109334,0.9370860927152156,1.2363289219583325e-23,0.9927273398567836,0
246,210.0861111111111,0.7861111111110972,0.7805555555555657,0.8388888888888886,0.9370860927152156,0.02527000489827319,0.9711664469867866,36.111111111111114,0.8666666666458669,0.9304635761589528,2.9085187696800605e-19,0.9869928149967085,0
247,210.86666666666667,0.7805555555555657,0.8138888888888687,0.8111111111111029,0.9623287671233098,0.026586483513132243,1.0217608122856283,36.111111111111114,0.8666666666458669,1.0034246575342318,1.8539588729393352e-18,0.9902246029731825,0
248,211.68055555555554,0.8138888888888687,0.9333333333333371,0.799999999999983,1.0173611111111076,0.0292613039761174,1.124558413466242,41.666666666666664,0.9999999999760001,1.1666666666666963,5.766174755554576e-14,0.9874049307076894,0
249,212.61388888888888,0.9333333333333371,0.955555555555577,0.8249999999999886,1.1313131313131515,0.028667312526692378,1.1017303781017516,41.666666666666664,0.9999999999760001,1.1582491582492003,2.5427763640451586e-18,0.9935742784872139,0
250,213.56944444444446,0.955555555555577,0.9055555555555372,0.8624999999999972,1.1078904991948755,0.030921174648882336,1.1883498812643685,47.22222222222222,1.1333333333061335,1.0499194847020756,1.7966265495862827e-15,0.9839538051313046,0
251,214.475,0.9055555555555372,0.8472222222222285,0.8972222222222115,1.009287925696586,0.028604895542186197,1.099331594194961,52.77777777777778,1.266666666636267,0.9442724458204518,2.8394261751264705e-15,0.9848075380280882,0
252,215.32222222222222,0.8472222222222285,0.7888888888888914,0.8763888888888829,0.9667194928684766,0.02840662058537008,1.0917115725086681,41.666666666666664,0.9999999999760001,0.9001584786053973,5.145043226872886e-17,0.9867655692137238,0
253,216.11111111111111,0.7888888888888914,0.5861111111111086,0.8305555555555486,0.9498327759197435,0.030179528682677564,1.1598472481694937,161.11111111111111,3.866666666573867,0.7056856187290999,0.8028693199157715,0.5333092946718868,1
254,216.69722222222222,0.5861111111111086,1.0500000000000114,0.8305555555555486,0.7056856187290999,0.047465502648434604,1.82417469830693,88.88888888888889,2.1333333332821334,1.2642140468227667,0.9996238946914673,0.8409357294460251,1
255,217.74722222222223,1.0500000000000114,0.5555555555555429,0.8305555555555486,1.2642140468227667,0.02610740978915715,1.0033492477358559,33.333333333333336,0.7999999999808002,0.6688963210702245,2.59146644935801e-24,0.9792200603111032,0
256,218.30277777777778,0.5555555555555429,1.1444444444444457,0.8305555555555486,0.6688963210702245,0.047527227278749376,1.826546873941865,94.44444444444444,2.266666666612267,1.3779264214046953,0.9996398687362671,0.8422707327915181,1
257,219.44722222222222,1.1444444444444457,0.8583333333333201,0.8763888888888829,1.3058637083993765,0.029667502253332593,1.1401692587843684,41.666666666666664,0.9999999999760001,0.9793977812995162,1.405596778543868e-22,0.9882578141063592,0
258,220.30555555555554,0.8583333333333201,0.8416666666666686,0.8819444444444287,0.9732283464566953,0.029989584711756948,1.1525473995106539,36.111111111111114,0.8666666666458669,0.9543307086614365,2.2710124254234076e-13,0.9634634009556736,0
259,221.1472222222222,0.8416666666666686,0.5361111111111256,0.8527777777777743,0.9869706840390942,0.03041283716521737,1.1688136639241478,36.111111111111114,0.8666666666458669,0.6286644951140261,1.415653682163519e-15,0.9746953693234875,0
260,221.68333333333334,0.5361111111111256,0.9527777777777828,0.8444444444444485,0.6348684210526457,0.0457001679769152,1.7563300814347254,94.44444444444444,2.266666666612267,1.128289473684211,0.9992250204086304,0.8512919551886207,1
261,222.63611111111112,0.9527777777777828,0.8083333333333371,0.8444444444444485,1.128289473684211,0.04017942125925557,1.544159011579893,175.0,4.199999999899201,0.9572368421052629,0.9930568933486938,0.4450967521032039,1
262,223.44444444444446,0.8083333333333371,0.788888888888863,0.8250000000000028,0.979797979797981,0.029343300771808592,1.1277096806328408,38.888888888888886,0.9333333333109334,0.9562289562289216,7.878728919274991e-12,0.9609852510996593,0
263,224.23333333333332,0.788888888888863,0.88611111111112,0.8250000000000028,0.9562289562289216,0.028275767572105488,1.086682683259091,38.888888888888886,0.9333333333109334,1.074074074074081,1.2408232231140345e-14,0.9825692752604698,0
264,225.11944444444444,0.88611111111112,0.9638888888889028,0.8499999999999943,1.0424836601307363,0.0338510960310601,1.300951416172446,36.111111111111114,0.8666666666458669,1.1339869281045991,8.975833765134666e-08,0.9289381331695648,0
265,226.08333333333334,0.9638888888889028,0.9361111111111029,0.8499999999999943,1.1339869281045991,0.029910356226060433,1.149502522896511,38.888888888888886,0.9333333333109334,1.1013071895424813,2.8069441027256034e-16,0.9756187810524258,0
266,227.01944444444445,0.9361111111111029,0.7833333333333314,0.87222222222222,1.0732484076433053,0.024084150028207862,0.9255921597858363,38.888888888888886,0.9333333333109334,0.8980891719745224,4.249378731828918e-24,0.9911433091517254,0
267,227.80277777777778,0.7833333333333314,0.7305555555555543,0.8499999999999943,0.9215686274509843,0.026825281027028566,1.0309381802384068,38.888888888888886,0.9333333333109334,0.8594771241830108,1.314563494480244e-18,0.9937542078719526,0
268,228.53333333333333,0.7305555555555543,0.5416666666666572,0.8250000000000028,0.8855218855218809,0.02311637632377395,0.888399078351707,38.888888888888886,0.9333333333109334,0.6565656565656428,1.8684721290178538e-17,0.9680958629571381,0
269,229.075,0.5416666666666572,1.0833333333333428,0.7986111111111001,0.6782608695652149,0.047082758399386505,1.8094652285640862,83.33333333333333,1.9999999999520002,1.3565217391304654,0.999687671661377,0.8302338753675493,1
270,230.15833333333333,1.0833333333333428,0.61388888888888,0.8472222222222285,1.2786885245901656,0.02676637887183846,1.0286744768079517,36.111111111111114,0.8666666666458669,0.7245901639344103,5.831325444621034e-23,0.9749808089917346,0
271,230.7722222222222,0.61388888888888,1.2416666666666742,0.7986111111111001,0.7686956521739126,0.04748977556574167,1.8251075450932288,97.22222222222223,2.333333333277334,1.554782608695683,0.9998892545700073,0.8285258469879391,1
272,232.01388888888889,1.2416666666666742,0.9527777777777828,0.8374999999999915,1.482587064676641,0.028169101795269314,1.0825833479434832,38.888888888888886,0.9333333333109334,1.1376451077943792,2.469286735585055e-25,0.9885220518534283,0
273,232.96666666666667,0.9527777777777828,0.8027777777777771,0.9111111111111114,1.0457317073170784,0.030372580691163595,1.1672665436512233,38.888888888888886,0.9333333333109334,0.8810975609756088,1.0801529314811553e-15,0.9672023897855928,0
274,233.76944444444445,0.8027777777777771,0.75,0.86944444444444,0.9233226837060743,0.024812240663714444,0.9535738399800335,36.111111111111114,0.8666666666458669,0.8626198083067137,3.040969255807524e-20,0.9873581605438244,0
275,234.51944444444445,0.75,0.86388888888888,0.7930555555555543,0.9457092819614726,0.025573776222443508,0.9828408617238853,41.666666666666664,0.9999999999760001,1.0893169877407962,4.849206539786488e-12,0.9641556398195169,0
276,235.38333333333333,0.86388888888888,0.6416666666666799,0.7930555555555543,1.0893169877407962,0.028342163927254457,1.0892344007036454,36.111111111111114,0.8666666666458669,0.80910683012261,8.37637101937984e-17,0.973546521655387,0
277,236.025,0.6416666666666799,1.2055555555555486,0.7763888888888886,0.8264758497316811,0.04544208369763963,1.7464114924381584,127.77777777777777,3.066666666593067,1.5527728085867538,0.9991852641105652,0.28783512775392317,1
278,237.23055555555555,1.2055555555555486,0.8666666666666742,0.8333333333333286,1.4466666666666665,0.026387248564604365,1.0141038965922469,38.888888888888886,0.9333333333109334,1.040000000000015,1.6491305093245883e-22,0.9648494263842973,0
279,238.09722222222223,0.8666666666666742,0.8944444444444457,0.8652777777777771,1.0016051364366065,0.027827086950775917,1.0694391739442892,33.333333333333336,0.7999999999808002,1.0337078651685416,3.689303162556119e-14,0.9550462786297365,0
280,238.99166666666667,0.8944444444444457,0.7777777777777715,0.8652777777777771,1.0337078651685416,0.03109441233158294,1.1950076807175085,41.666666666666664,0.9999999999760001,0.8988764044943753,1.4020507844991759e-12,0.962839616158094,0
281,239.76944444444445,0.7777777777777715,0.7111111111111086,0.8652777777777771,0.8988764044943753,0.02494350383940907,0.9586184924236214,36.111111111111114,0.8666666666458669,0.8218298555377184,4.026642588832912e-15,0.9595080773911716,0
282,240.48055555555555,0.7111111111111086,0.8555555555555543,0.8333333333333286,0.8533333333333352,0.02715946440954171,1.0437813787080477,33.333333333333336,0.7999999999808002,1.026666666666671,0.00333697022870183,0.5988878039167568,0
283,241.3361111111111,0.8555555555555543,0.8194444444444571,0.8291666666666657,1.0318257956448909,0.03224099098548394,1.2390725205140383,55.55555555555556,1.3333333333013335,0.988274706867688,0.0018254703609272838,0.918095755031837,0
284,242.15555555555557,0.8194444444444571,0.9833333333333201,0.8375000000000057,0.9784411276948675,0.03443086648388326,1.3232329160377134,136.11111111111111,3.266666666588267,1.174129353233807,0.998305082321167,0.723403317594367,1
285,243.13888888888889,0.9833333333333201,0.9222222222222172,0.8597222222222172,1.1437802907915906,0.033199526801324125,1.2759105752087845,52.77777777777778,1.266666666636267,1.0726978998384495,5.070137643059525e-10,0.9611742731425507,0
286,244.0611111111111,0.9222222222222172,1.0027777777777942,0.8611111111111143,1.0709677419354742,0.03151085023488286,1.2110120511387445,44.44444444444444,1.0666666666410667,1.164516129032273,6.822731805520774e-14,0.9836811851501108,0
287,245.0638888888889,1.0027777777777942,0.9916666666666458,0.88055555555556,1.138801261829666,0.038438122818741344,1.4772381452632668,75.0,1.7999999999568002,1.1261829652996551,0.2166673243045807,0.9319089373289704,0
288,246.05555555555554,0.9916666666666458,0.8444444444444628,0.88055555555556,1.1261829652996551,0.03499077953407566,1.3447512643627684,47.22222222222222,1.1333333333061335,0.9589905362776185,4.532671980805869e-13,0.9769442581116256,0
289,246.9,0.8444444444444628,0.8527777777777601,0.875,0.965079365079386,0.03413944974252403,1.312033307551779,50.0,1.1999999999712,0.9746031746031544,2.1154825446956238e-07,0.9639737192582736,0
290,247.75277777777777,0.8527777777777601,0.9277777777777771,0.8541666666666572,0.9983739837398278,0.03275038290777388,1.258649261606316,50.0,1.1999999999712,1.0861788617886292,1.6001445724000973e-09,0.9744206890294407,0
291,248.68055555555554,0.9277777777777771,0.9833333333333485,0.8888888888888857,1.043750000000003,0.037496543832138365,1.4410517684636677,63.888888888888886,1.5333333332965335,1.106250000000021,0.0031557143665850163,0.9508708261335755,0
292,249.6638888888889,0.9833333333333485,0.9527777777777828,0.9249999999999972,1.0630630630630826,0.03423744567114863,1.3157994468226115,52.77777777777778,1.266666666636267,1.0300300300300387,3.4696323505251092e-12,0.9814609386698611,0
293,250.61666666666667,0.9527777777777828,0.7833333333333314,0.94027777777778,1.0132939438700177,0.03367585136660957,1.2942164852211882,52.77777777777778,1.266666666636267,0.8330871491875883,1.2941802143839887e-11,0.9783720239422709,0
294,251.4,0.7833333333333314,1.1722222222222172,0.94027777777778,0.8330871491875883,0.046673873237280915,1.7937511219896614,141.66666666666666,3.3999999999184003,1.246676514032488,0.998795747756958,0.25547676050123647,1
295,252.57222222222222,1.1722222222222172,0.8555555555555543,0.94027777777778,1.246676514032488,0.029218340069303333,1.1229072422497244,41.666666666666664,0.9999999999760001,0.9098966026587852,1.5760435877522564e-23,0.9855396319923366,0
296,253.42777777777778,0.8555555555555543,0.22499999999999432,0.94027777777778,0.9098966026587852,0.028636467455896705,1.1005449530125093,41.666666666666664,0.9999999999760001,0.23929098966025927,5.456558452943621e-17,0.9810965561553309,0
297,253.65277777777777,0.22499999999999432,0.6333333333333258,0.8916666666666657,0.2523364485981247,0.03380567276128345,1.29920572772889,36.111111111111114,0.8666666666458669,0.710280373831768,0.8302203416824341,0.7656040141892666,1
298,254.2861111111111,0.6333333333333258,0.9250000000000114,0.8541666666666572,0.7414634146341457,0.02995323736000907,1.1511505130202686,55.55555555555556,1.3333333333013335,1.082926829268318,0.0016050746198743582,0.970049233704501,0
299,255.2111111111111,0.9250000000000114,0.9944444444444684,0.8902777777777828,1.0390015600624094,0.032451054457855455,1.2471455935872726,47.22222222222222,1.1333333333061335,1.1170046801872282,3.5358250615596942e-12,0.9784047764760929,0
300,256.2055555555556,0.9944444444444684,0.9305555555555429,0.9263888888888943,1.0734632683658367,0.036062201260634634,1.3859277040031832,61.111111111111114,1.466666666631467,1.0044977511244184,4.334771119829384e-08,0.964461015625101,0
301,257.1361111111111,0.9305555555555429,0.9111111111110972,0.9277777777777771,1.002994011976035,0.030795365425584725,1.1835148328787444,47.22222222222222,1.1333333333061335,0.9820359281436982,2.2019763941914794e-13,0.9742139692527493,0
302,258.0472222222222,0.9111111111110972,0.8166666666666629,0.9180555555555543,0.9924357034795627,0.027900918659148302,1.072276643829381,41.666666666666664,0.9999999999760001,0.8895612708018126,3.0334760334335594e-18,0.9829523192535139,0
303,258.8638888888889,0.8166666666666629,0.8222222222222513,0.8833333333333258,0.9245283018867961,0.024915389902268426,0.9575380291410222,38.888888888888886,0.9333333333109334,0.930817610062934,2.9890417003848007e-20,0.9933006251489503,0
304,259.68611111111113,0.8222222222222513,0.8083333333333371,0.8833333333333258,0.930817610062934,0.027163729134075172,1.0439452788493104,41.666666666666664,0.9999999999760001,0.9150943396226536,2.7291679493219375e-17,0.987960346196294,0
305,260.49444444444447,0.8083333333333371,0.8611111111110858,0.8388888888889028,0.963576158940386,0.029827293692519307,1.1463102977306832,55.55555555555556,1.3333333333013335,1.0264900662251184,2.5886198740110444e-10,0.9770924261620659,0
306,261.35555555555555,0.8611111111110858,0.8833333333333258,0.8416666666666686,1.0231023102309909,0.026881960346467622,1.033116456558449,41.666666666666664,0.9999999999760001,1.0495049504950382,1.8873544290147855e-18,0.9901505740271732,0
307,262.2388888888889,0.8833333333333258,0.8361111111111086,0.8722222222222058,1.0127388535031951,0.030144241550035686,1.1584911075842377,44.44444444444444,1.0666666666410667,0.9585987261146648,4.374609398685725e-14,0.9753213269212369,0
308,263.075,0.8361111111111086,0.8000000000000114,0.8722222222222058,0.9585987261146648,0.02754672709342179,1.0586644990821195,47.22222222222222,1.1333333333061335,0.9171974522293297,8.560834942957125e-15,0.9779216074688524,0
309,263.875,0.8000000000000114,0.7916666666666856,0.8486111111110972,0.9427168576105035,0.025938787579629696,0.9968688282516068,38.888888888888886,0.9333333333109334,0.9328968903437365,1.7390109598868226e-18,0.9879630936580025,0
310,264.6666666666667,0.7916666666666856,0.8249999999999886,0.8291666666666799,0.9547738693467412,0.02706190784723871,1.0400321249831888,47.22222222222222,1.1333333333061335,0.9949748743718296,7.460628929966198e-15,0.9838706642716002,0
311,265.4916666666667,0.8249999999999886,0.6499999999999773,0.82361111111112,1.001686340640785,0.02638155462923587,1.0138850696073114,44.44444444444444,1.0666666666410667,0.7892074198987835,2.1963961368998033e-18,0.9878153525851041,0
312,266.14166666666665,0.6499999999999773,1.1083333333333485,0.8194444444444571,0.7932203389830109,0.04760109714448925,1.8293858102752285,111.11111111111111,2.666666666602667,1.3525423728813535,0.9990410208702087,0.3598179132968764,1
313,267.25,1.1083333333333485,0.8555555555555543,0.82361111111112,1.3456998313659398,0.02979597602003074,1.1451067098073309,58.333333333333336,1.3999999999664003,1.0387858347386045,8.354986624423133e-14,0.9653119413985244,0
314,268.10555555555555,0.8555555555555543,0.8083333333333371,0.8305555555555486,1.0301003344481676,0.029335104295964927,1.1273946770404415,47.22222222222222,1.1333333333061335,0.9732441471572033,7.928263855804917e-16,0.9891511956239389,0
315,268.9138888888889,0.8083333333333371,0.794444444444423,0.8305555555555486,0.9732441471572033,0.025976688461352353,0.9983254193677714,44.44444444444444,1.0666666666410667,0.9565217391304169,5.818477764204152e-17,0.9843618621174108,0
316,269.7083333333333,0.794444444444423,0.8111111111111313,0.8166666666666629,0.9727891156462367,0.02610668596915069,1.003321430182723,36.111111111111114,0.8666666666458669,0.9931972789115939,1.3999160742877398e-19,0.9923038878872197,0
317,270.51944444444445,0.8111111111111313,0.8055555555555429,0.8097222222222342,1.0017152658662194,0.02614440717091058,1.0047711159123733,44.44444444444444,1.0666666666410667,0.9948542024013418,1.1144863300458671e-17,0.9900019607247572,0
318,271.325,0.8055555555555429,0.8333333333333712,0.80694444444444,0.9982788296041206,0.024838879818911055,0.9545976250488204,38.888888888888886,0.9333333333109334,1.0327022375215673,2.650187162452453e-19,0.9886957486403709,0
319,272.15833333333336,0.8333333333333712,0.8944444444444457,0.8097222222222342,1.029159519725589,0.026309843604242808,1.011129100954648,41.666666666666664,0.9999999999760001,1.1046312178387503,1.8010088862971396e-14,0.9694948132660177,0
320,273.0527777777778,0.8944444444444457,0.827777777777726,0.81805555555556,1.0933786078098429,0.025692042152385144,0.9873860093581407,38.888888888888886,0.9333333333109334,1.0118845500848208,6.342861262111478e-19,0.9760476014819544,0
321,273.88055555555553,0.827777777777726,0.8361111111111086,0.8194444444444287,1.01016949152538,0.028787038158726026,1.1063316244071415,52.77777777777778,1.266666666636267,1.020338983050864,7.986374148810649e-13,0.9815317320283192,0
322,274.71666666666664,0.8361111111111086,0.8388888888889028,0.8305555555555486,1.0066889632107077,0.026242446278607136,1.008538914623561,41.666666666666664,0.9999999999760001,1.0100334448160786,4.2366673615529926e-19,0.9929700284668014,0
323,275.55555555555554,0.8388888888889028,0.8083333333333371,0.8305555555555486,1.0100334448160786,0.028321412179588046,1.0884368780624316,47.22222222222222,1.1333333333061335,0.9732441471572033,2.5204009140703844e-14,0.9774089707122867,0
324,276.3638888888889,0.8083333333333371,0.5722222222222513,0.8194444444444287,0.9864406779661253,0.027622746039481113,1.0615860279874485,44.44444444444444,1.0666666666410667,0.6983050847458117,4.6530357022179775e-18,0.9936252517087774,0
325,276.93611111111113,0.5722222222222513,1.0194444444444457,0.8194444444444287,0.6983050847458117,0.040572456366273546,1.5592639753486104,113.88888888888889,2.7333333332677334,1.244067796610195,0.997890055179596,0.4002245438087461,1
326,277.9555555555556,1.0194444444444457,0.6749999999999545,0.8305555555555486,1.2274247491638914,0.030630428160834243,1.1771760316783382,55.55555555555556,1.3333333333013335,0.8127090301002865,8.846896548675431e-08,0.9264265726155685,0
327,278.63055555555553,0.6749999999999545,1.1000000000000227,0.8305555555555486,0.8127090301002865,0.04772691067205888,1.8342210240808667,105.55555555555556,2.533333333272534,1.324414715719102,0.9998738765716553,0.8220196778021311,1
328,279.73055555555555,1.1000000000000227,0.875,0.8347222222222399,1.317803660565723,0.029361192991759766,1.1283973070796356,50.0,1.1999999999712,1.0482529118136217,6.166159596809884e-12,0.9348774456744564,0
329,280.60555555555555,0.875,0.8583333333333485,0.8375000000000057,1.0447761194029779,0.031264428112700686,1.2015416573726174,47.22222222222222,1.1333333333061335,1.0248756218905584,8.044646893079488e-11,0.9659480592829417,0
330,281.4638888888889,0.8583333333333485,0.19722222222219443,0.8375000000000057,1.0248756218905584,0.028489478827652587,1.0948959464367702,47.22222222222222,1.1333333333061335,0.23548922056381266,4.5753967281569885e-10,0.933854886179153,0
331,281.6611111111111,0.19722222222219443,0.29722222222221717,0.8375000000000057,0.23548922056381266,0.02637865029262037,1.0137734513356456,47.22222222222222,1.1333333333061335,0.35489220563846585,0.2144516408443451,0.7368771715709749,0
332,281.9583333333333,0.29722222222221717,0.28333333333335986,0.82361111111112,0.3608768971332109,0.02104201565832821,0.8086781014330301,69.44444444444444,1.666666666626667,0.34401349072515497,0.20443694293498993,0.6001856111650903,0
333,282.2416666666667,0.28333333333335986,0.7722222222222399,0.7416666666666458,0.38202247191015887,0.027086549745743746,1.0409791523033054,41.666666666666664,0.9999999999760001,1.0411985018727123,0.004604007117450237,0.9712441430252072,0
334,283.0138888888889,0.7722222222222399,0.7722222222221831,0.7236111111110972,1.0671785028791236,0.023870977307200905,0.9173995933463664,36.111111111111114,0.8666666666458669,1.067178502879045,9.710494067983544e-18,0.9777632032812291,0
335,283.7861111111111,0.7722222222221831,0.8527777777778169,0.7722222222222115,0.9999999999999631,0.026120206099410428,1.0038410302746106,36.111111111111114,0.8666666666458669,1.104316546762656,1.0451559388505513e-16,0.9828323116106767,0
336,284.6388888888889,0.8527777777778169,0.8611111111110858,0.7722222222222115,1.104316546762656,0.024415998490130174,0.9383456235465475,38.888888888888886,0.9333333333109334,1.1151079136690476,6.533226928073813e-20,0.9879140432226656,0
337,285.5,0.8611111111110858,0.8777777777777942,0.8125000000000284,1.0598290598289917,0.02870307907565075,1.103104943417932,44.44444444444444,1.0666666666410667,1.0803418803418627,3.4329790072007644e-16,0.9895889308788292,0
338,286.3777777777778,0.8777777777777942,0.8055555555555429,0.8125000000000284,1.0803418803418627,0.02365773421447758,0.9092043224100028,38.888888888888886,0.9333333333109334,0.9914529914529412,4.739712976839405e-23,0.9938668407515807,0
339,287.18333333333334,0.8055555555555429,0.7694444444444457,0.7888888888888914,1.021126760563361,0.02319207499758214,0.8913082986854527,38.888888888888886,0.9333333333109334,0.9753521126760548,1.0938289271115843e-21,0.9930447820127593,0
340,287.9527777777778,0.7694444444444457,0.76111111111112,0.7722222222222115,0.9964028776978572,0.02643385067455251,1.0158948897369897,41.666666666666664,0.9999999999760001,0.9856115107913921,9.078007783387735e-18,0.9937169243968389,0
341,288.7138888888889,0.76111111111112,0.794444444444423,0.7722222222222115,0.9856115107913921,0.026664098201184358,1.0247436680916717,38.888888888888886,0.9333333333109334,1.0287769784172527,4.3706244951276755e-17,0.9892211549050769,0
342,289.5083333333333,0.794444444444423,0.8777777777777942,0.7833333333333314,1.0141843971630955,0.026560885953275742,1.0207770573810508,36.111111111111114,0.8666666666458669,1.1205673758865484,4.7615649418712624e-17,0.9845782751371162,0
343,290.3861111111111,0.8777777777777942,0.6416666666666515,0.799999999999983,1.097222222222266,0.03100550786273166,1.191590940693788,50.0,1.1999999999712,0.8020833333333315,1.4169883148784645e-11,0.9728155540047769,0
344,291.02777777777777,0.6416666666666515,0.25,0.799999999999983,0.8020833333333315,0.03854060977014506,1.4811768816765731,147.22222222222223,3.533333333248534,0.31250000000000666,0.9947773218154907,0.827048000968355,1
345,291.27777777777777,0.25,0.8388888888889028,0.799999999999983,0.31250000000000666,0.03132461671109665,1.2038548008598717,66.66666666666667,1.5999999999616004,1.048611111111151,0.7787693738937378,0.9537221984539506,1
346,292.1166666666667,0.8388888888889028,0.8027777777777487,0.799999999999983,1.048611111111151,0.024526087786957262,0.9425765301760173,36.111111111111114,0.8666666666458669,1.0034722222222072,8.029142353080189e-20,0.979480334252318,0
347,292.9194444444444,0.8027777777777487,0.5611111111111313,0.7986111111110858,1.0052173913043432,0.025502173070541524,0.9800890388055424,38.888888888888886,0.9333333333109334,0.7026086956522214,3.368370896547707e-20,0.9885128601772097,0
348,293.48055555555555,0.5611111111111313,1.0944444444444343,0.7819444444444343,0.7175843694494135,0.04997502270829182,1.9206195423021974,91.66666666666667,2.1999999999472006,1.399644760213149,0.9997841715812683,0.8491489089386457,1
349,294.575,1.0944444444444343,0.8527777777778169,0.7819444444444343,1.399644760213149,0.026111300465992728,1.0034987726296576,38.888888888888886,0.9333333333109334,1.0905861456483767,3.7687640420316586e-24,0.9896762716114632,0
350,295.4277777777778,0.8527777777778169,0.8305555555555202,0.7986111111110858,1.0678260869566045,0.024579506184680213,0.9446294840922973,33.333333333333336,0.7999999999808002,1.0399999999999887,1.525458787066114e-10,0.9004202511468077,0
351,296.2583333333333,0.8305555555555202,0.9027777777777715,0.8166666666666345,1.0170068027210852,0.027885772431122773,1.0716945502161814,41.666666666666664,0.9999999999760001,1.1054421768707843,5.847047259072754e-17,0.9931597667970288,0
352,297.1611111111111,0.9027777777777715,0.8277777777777828,0.8347222222222115,1.0815307820299565,0.02369855605270511,0.9107731705265938,36.111111111111114,0.8666666666458669,0.9916805324459422,1.706723412241887e-17,0.9520478708954767,0
353,297.9888888888889,0.8277777777777828,0.6833333333333371,0.8291666666666515,0.9983249581239775,0.024140374272196542,0.9277529468331208,30.555555555555557,0.7333333333157335,0.824120603015095,6.953127495989975e-08,0.5841038657110371,0
354,298.6722222222222,0.6833333333333371,0.9750000000000227,0.8291666666666515,0.824120603015095,0.04010126244847304,1.5411552442726075,225.0,5.399999999870401,1.1758793969849735,0.9989699125289917,0.7324798651905193,1
355,299.64722222222224,0.9750000000000227,0.8499999999999659,0.8347222222222115,1.1680532445923884,0.027629009564973557,1.0618267452260322,38.888888888888886,0.9333333333109334,1.0183028286189406,3.798789123266033e-07,0.548118013657811,0
356,300.4972222222222,0.8499999999999659,0.8388888888889028,0.840277777777743,1.0115702479338855,0.022701222492876386,0.8724440568735239,36.111111111111114,0.8666666666458669,0.9983471074380743,2.134069434837125e-21,0.9793316244932349,0
357,301.3361111111111,0.8388888888889028,0.8055555555555429,0.8444444444444343,0.9934210526316073,0.026180542226888565,1.006159843538944,38.888888888888886,0.9333333333109334,0.9539473684210491,4.129801959512706e-20,0.9924434738025203,0
358,302.14166666666665,0.8055555555555429,0.88611111111112,0.8444444444444343,0.9539473684210491,0.02615273110286465,1.005091017845647,36.111111111111114,0.8666666666458669,1.0493421052631808,2.3557073178466987e-17,0.9812510806283854,0
359,303.02777777777777,0.88611111111112,0.8916666666666515,0.8444444444444343,1.0493421052631808,0.029257307512890112,1.1244048230332928,38.888888888888886,0.9333333333109334,1.0559210526315737,5.446992274595568e-17,0.9847437484393284,0
360,303.9194444444444,0.8916666666666515,0.6055555555555543,0.8444444444444343,1.0559210526315737,0.0345373717773536,1.3273260837225345,36.111111111111114,0.8666666666458669,0.7171052631579018,5.576112016569823e-09,0.9277918880746573,0
361,304.525,0.6055555555555543,1.036111111111154,0.8444444444444343,0.7171052631579018,0.04952630745768515,1.9033747021292444,86.11111111111111,2.066666666617067,1.2269736842105918,0.9997110962867737,0.8382305839081254,1
362,305.56111111111113,1.036111111111154,0.5166666666666515,0.8444444444444343,1.2269736842105918,0.02438815395337021,0.9372755137487051,30.555555555555557,0.7333333333157335,0.6118421052631473,2.5610361563474164e-20,0.9426121489409054,0
363,306.0777777777778,0.5166666666666515,1.055555555555543,0.8444444444444343,0.6118421052631473,0.04871545043687847,1.872212178216757,83.33333333333333,1.9999999999520002,1.25,0.9993559718132019,0.8663504721478191,1
364,307.1333333333333,1.055555555555543,0.830555555555577,0.8680555555555429,1.216000000000003,0.02682360136629741,1.0308736282072146,38.888888888888886,0.9333333333109334,0.9568000000000386,4.947056546078972e-23,0.9837360005619715,0
365,307.9638888888889,0.830555555555577,0.8805555555555316,0.8444444444444343,0.9835526315789845,0.02615216608706337,1.0050693033904885,36.111111111111114,0.8666666666458669,1.042763157894721,6.297301518820068e-17,0.973769337355755,0
366,308.84444444444443,0.8805555555555316,0.9472222222222513,0.8597222222222172,1.0242326332794611,0.03346039323013039,1.28593608663317,41.666666666666664,0.9999999999760001,1.101777059773869,1.2405268989823526e-07,0.9415999631113214,0
367,309.7916666666667,0.9472222222222513,0.8722222222222058,0.8833333333333258,1.0723270440251993,0.027266745349179507,1.04790435570773,41.666666666666664,0.9999999999760001,0.9874213836477886,1.235793375649375e-20,0.9905945576127495,0
368,310.6638888888889,0.8722222222222058,0.8166666666666629,0.8833333333333258,0.9874213836477886,0.02635419983953569,1.0128337815672757,36.111111111111114,0.8666666666458669,0.9245283018867961,2.3244859675603703e-21,0.9918736136044168,0
369,311.48055555555555,0.8166666666666629,0.7250000000000227,0.8763888888888687,0.9318541996830599,0.02513318437793037,0.9659082169567125,33.333333333333336,0.7999999999808002,0.8272583201268279,1.032951385220699e-17,0.9665377303071736,0
370,312.2055555555556,0.7250000000000227,0.7888888888888914,0.8513888888888914,0.8515497553018186,0.02511630903940995,0.9652596708793156,33.333333333333336,0.7999999999808002,0.9265905383360524,5.753108059391998e-12,0.9495298945997012,0
371,312.99444444444447,0.7888888888888914,0.9055555555555088,0.8513888888888914,0.9265905383360524,0.029891119152544533,1.1487632115900008,36.111111111111114,0.8666666666458669,1.06362153344203,6.340123537285081e-09,0.9505550462267489,0
372,313.9,0.9055555555555088,0.8083333333333371,0.8513888888888914,1.06362153344203,0.02681585157452267,1.0305757913934483,38.888888888888886,0.9333333333109334,0.9494290375203932,2.4537285513064775e-17,0.9682171492982709,0
373,314.7083333333333,0.8083333333333371,0.9055555555555657,0.8513888888888914,0.9494290375203932,0.0250117528493644,0.9612414103365979,33.333333333333336,0.7999999999808002,1.0636215334420969,5.7164637837558985e-05,0.43572822775458536,0
374,315.6138888888889,0.9055555555555657,0.6694444444444798,0.8513888888888914,1.0636215334420969,0.03024518884903436,1.1623706727088237,36.111111111111114,0.8666666666458669,0.7862969004894356,4.187028324054154e-08,0.8427266237293289,0
375,316.28333333333336,0.6694444444444798,0.9749999999999659,0.8444444444444343,0.7927631578947882,0.032427500576684684,1.246240380502374,111.11111111111111,2.666666666602667,1.1546052631578683,0.9877521991729736,0.48349676140430015,1
376,317.2583333333333,0.9749999999999659,0.7305555555555543,0.8444444444444343,1.1546052631578683,0.026577379624302042,1.021410935370108,30.555555555555557,0.7333333333157335,0.8651315789473772,3.487424895386842e-17,0.9442093430186976,0
377,317.9888888888889,0.7305555555555543,0.7583333333333258,0.8125,0.8991452991452976,0.028688356425367177,1.1025391285705,30.555555555555557,0.7333333333157335,0.933333333333324,9.141378765065156e-10,0.9440878229210079,0
378,318.7472222222222,0.7583333333333258,0.8722222222222626,0.7986111111111143,0.9495652173912911,0.025419603329361815,0.976915752433303,33.333333333333336,0.7999999999808002,1.0921739130435246,1.5477250710026593e-16,0.9769702182822994,0
379,319.61944444444447,0.8722222222222626,0.8944444444444457,0.7986111111111143,1.0921739130435246,0.029614402602122746,1.1381285548031344,38.888888888888886,0.9333333333109334,1.1199999999999972,5.4631017591677544e-12,0.9608920843644573,0
380,320.5138888888889,0.8944444444444457,0.8777777777777374,0.8402777777777999,1.0644628099173288,0.02790637794701027,1.072486452937742,44.44444444444444,1.0666666666410667,1.0446280991734782,3.612434160263139e-15,0.9726644442592854,0
381,321.39166666666665,0.8777777777777374,0.3138888888889255,0.875,1.003174603174557,0.0255605831948642,0.9823338327078335,36.111111111111114,0.8666666666458669,0.3587301587302006,3.4555235170108766e-17,0.952887579184718,0
382,321.7055555555556,0.3138888888889255,0.4277777777777487,0.8402777777777999,0.37355371900829826,0.03854081729663811,1.4811848572494992,72.22222222222223,1.7333333332917338,0.5090909090908611,0.9914235472679138,0.6209972732381156,1
383,322.1333333333333,0.4277777777777487,0.9222222222222172,0.8152777777777942,0.5247018739352178,0.02598032914105491,0.9984653364744591,38.888888888888886,0.9333333333109334,1.1311754684837871,0.967438817024231,0.5949560520803989,1
384,323.05555555555554,0.9222222222222172,0.8166666666666629,0.8152777777777942,1.1311754684837871,0.030116743934062832,1.1574343305035657,41.666666666666664,0.9999999999760001,1.001703577512752,2.5760619795453944e-16,0.9807754935182786,0
385,323.8722222222222,0.8166666666666629,0.7722222222222399,0.8444444444444628,0.9671052631578693,0.024546120243748446,0.9433464093258088,38.888888888888886,0.9333333333109334,0.9144736842105274,1.384884522347032e-19,0.9841584780018786,0
386,324.64444444444445,0.7722222222222399,0.7749999999999773,0.7944444444444514,0.9720279720279857,0.02330796258687485,0.8957620429089433,36.111111111111114,0.8666666666458669,0.9755244755244383,1.2535842211678007e-20,0.9879913050489126,0
387,325.4194444444444,0.7749999999999773,0.8500000000000227,0.7958333333333201,0.9738219895287835,0.02499895092312339,0.9607494119665099,36.111111111111114,0.8666666666458669,1.0680628272251773,7.227331783504469e-17,0.97643720284543,0
388,326.26944444444445,0.8500000000000227,0.8500000000000227,0.8333333333333428,1.0200000000000158,0.028373151086504046,1.0904252864779767,38.888888888888886,0.9333333333109334,1.0200000000000158,6.958627786344783e-17,0.9830234223363199,0
389,327.11944444444447,0.8500000000000227,0.8055555555555429,0.8333333333333428,1.0200000000000158,0.03501333029045591,1.3456179257678151,36.111111111111114,0.8666666666458669,0.9666666666666405,1.8297519943644147e-07,0.9279483024970957,0
390,327.925,0.8055555555555429,0.5388888888888914,0.8111111111111029,0.9931506849315014,0.02702291531755669,1.038533580101114,38.888888888888886,0.9333333333109334,0.6643835616438455,1.3220256458824497e-19,0.9915858965532773,0
391,328.4638888888889,0.5388888888888914,1.125,0.7902777777777601,0.6818980667838498,0.04893063838490217,1.8804821930330513,113.88888888888889,2.7333333332677334,1.4235500878734941,0.9989903569221497,0.3567083297494784,1
392,329.5888888888889,1.125,0.7416666666666742,0.8111111111111029,1.386986301369877,0.022553036860850004,0.8667490475401705,36.111111111111114,0.8666666666458669,0.9143835616438543,1.9702308470064494e-29,0.9908632503204711,0
393,330.3305555555556,0.7416666666666742,0.7305555555555543,0.8111111111111029,0.9143835616438543,0.027297984587778174,1.0491049292920476,36.111111111111114,0.8666666666458669,0.9006849315068569,1.2159418843983236e-14,0.9743280693457619,0
394,331.06111111111113,0.7305555555555543,0.7749999999999773,0.7902777777777601,0.9244288224956254,0.022808750281620892,0.8765765206766664,36.111111111111114,0.8666666666458669,0.9806678383128227,1.4460647391560147e-17,0.973201573181388,0
395,331.8361111111111,0.7749999999999773,0.9027777777777715,0.7749999999999773,1.0,0.029826361903657797,1.1462744876039492,50.0,1.1999999999712,1.1648745519713521,3.107782087230504e-11,0.9866182891932075,0
396,332.7388888888889,0.9027777777777715,0.5749999999999886,0.7902777777777601,1.1423550087873637,0.03060350311483305,1.1761412593715976,41.666666666666664,0.9999999999760001,0.727592267135327,3.4675252036028836e-14,0.9722103784288071,0
397,333.31388888888887,0.5749999999999886,0.27777777777777146,0.7902777777777601,0.727592267135327,0.031716790557105884,1.2189266649993187,47.22222222222222,1.1333333333061335,0.35149384885764484,0.197856143116951,0.9565510689948304,0
398,333.59166666666664,0.27777777777777146,0.8527777777778169,0.7583333333333258,0.3663003663003616,0.0292940119806856,1.1258154340609117,36.111111111111114,0.8666666666458669,1.1245421245421874,0.17667299509048462,0.9666930197557992,0
399,334.44444444444446,0.8527777777778169,0.7694444444444457,0.7583333333333258,1.1245421245421874,0.02340411326473844,0.8994572662605833,36.111111111111114,0.8666666666458669,1.0146520146520264,1.0283649325494714e-21,0.986113327939479,0
400,335.2138888888889,0.7694444444444457,0.7333333333332916,0.75555555555556,1.0183823529411722,0.022500772611784375,0.8647404493909485,33.333333333333336,0.7999999999808002,0.9705882352940568,2.251765209976693e-22,0.9911765901512649,0
401,335.9472222222222,0.7333333333332916,0.7472222222222626,0.75555555555556,0.9705882352940568,0.02409100857003175,0.9258557444476292,36.111111111111114,0.8666666666458669,0.9889705882353418,7.60425069168467e-19,0.9862661987388663,0
402,336.69444444444446,0.7472222222222626,0.7583333333333258,0.7444444444444684,1.0037313432836041,0.02426907835737551,0.9326992493613203,41.666666666666664,0.9999999999760001,1.0186567164178675,5.076590639743611e-18,0.9891635746895378,0
403,337.4527777777778,0.7583333333333258,0.8388888888889028,0.7527777777777942,1.007380073800706,0.025267471036602235,0.9710690666559935,38.888888888888886,0.9333333333109334,1.1143911439114333,3.931574148623208e-18,0.9948356304090505,0
404,338.2916666666667,0.8388888888889028,0.9416666666666629,0.7638888888888857,1.098181818181841,0.02830188388014122,1.0876863744805838,50.0,1.1999999999712,1.232727272727273,3.5122843218896027e-13,0.9870713823280237,0
405,339.23333333333335,0.9416666666666629,0.8805555555555316,0.7638888888888857,1.232727272727273,0.02545268132282762,0.9781869922892886,38.888888888888886,0.9333333333109334,1.1527272727272462,2.8080949720365455e-20,0.9854238486884105,0
406,340.1138888888889,0.8805555555555316,0.8222222222222513,0.7638888888888857,1.1527272727272462,0.02694524251876027,1.035548491006818,44.44444444444444,1.0666666666410667,1.0763636363636788,5.2808331135115296e-18,0.9897504395411453,0
407,340.93611111111113,0.8222222222222513,0.7805555555555088,0.7958333333333485,1.033158813263542,0.024118487703101568,0.9269118112009647,38.888888888888886,0.9333333333109334,0.9808027923210395,1.6944340868164148e-20,0.9877959002248371,0
408,341.71666666666664,0.7805555555555088,0.7777777777778283,0.80138888888888,0.9740034662044585,0.025031171378843177,0.9619876952841288,36.111111111111114,0.8666666666458669,0.970537261698514,9.724320391922367e-18,0.9764377835498392,0
409,342.49444444444447,0.7777777777778283,0.5638888888888687,0.7791666666666686,0.9982174688057666,0.024588362005318665,0.944969827352982,36.111111111111114,0.8666666666458669,0.7237076648841078,8.665460086574556e-20,0.9807698797280835,0
410,343.05833333333334,0.5638888888888687,1.055555555555543,0.7791666666666686,0.7237076648841078,0.047034411086744186,1.8076071645063538,88.88888888888889,2.1333333332821334,1.3547237076648646,0.9997542500495911,0.8486830093303879,1
411,344.1138888888889,1.055555555555543,0.6083333333333485,0.80138888888888,1.3171577123050249,0.027483370463460288,1.0562296031072091,41.666666666666664,0.9999999999760001,0.7590987868284502,1.8254804920152065e-18,0.966221142067768,0
412,344.72222222222223,0.6083333333333485,1.0944444444444343,0.80138888888888,0.7590987868284502,0.045965265621610935,1.7665182052099333,97.22222222222223,2.333333333277334,1.3656845753899505,0.9998210072517395,0.8262008198265421,1
413,345.81666666666666,1.0944444444444343,0.5944444444444343,0.830555555555577,1.317725752508315,0.03296488280584872,1.2668928335696366,55.55555555555556,1.3333333333013335,0.7157190635451198,7.839691352692912e-13,0.9710447247364793,0
414,346.4111111111111,0.5944444444444343,1.0305555555555657,0.80138888888888,0.7417677642980892,0.04815153798182011,1.8505401264069037,86.11111111111111,2.066666666617067,1.2859618717504602,0.9997825026512146,0.8428882872389185,1
415,347.44166666666666,1.0305555555555657,0.5305555555555657,0.80138888888888,1.2859618717504602,0.02722613509592827,1.046343639138026,41.666666666666664,0.9999999999760001,0.6620450606585988,6.252205617057147e-17,0.9568686250364022,0
416,347.97222222222223,0.5305555555555657,1.0,0.7791666666666686,0.6809269162210452,0.04707973044414098,1.8093488594320155,83.33333333333333,1.9999999999520002,1.283422459893045,0.9996684789657593,0.8543712571087199,1
417,348.97222222222223,1.0,0.5500000000000114,0.7791666666666686,1.283422459893045,0.02871507793042605,1.103566078475363,44.44444444444444,1.0666666666410667,0.7058823529411894,1.4127606278972822e-17,0.9777955037168944,0
418,349.52222222222224,0.5500000000000114,1.0722222222221944,0.6930555555555884,0.7935871743486762,0.04663361968968719,1.7922041141852472,83.33333333333333,1.9999999999520002,1.54709418837664,0.9999016523361206,0.8525782325428062,1
419,350.59444444444443,1.0722222222221944,0.6000000000000227,0.8041666666666742,1.3333333333332862,0.02353206881089691,0.9043748012446571,38.888888888888886,0.9333333333109334,0.7461139896373269,1.4422409896866204e-25,0.980440181310603,0
420,351.19444444444446,0.6000000000000227,1.1666666666666288,0.8041666666666742,0.7461139896373269,0.045742534188073454,1.7579582822573403,91.66666666666667,2.1999999999472006,1.450777202072478,0.9998289346694946,0.8412081098561779,1
421,352.3611111111111,1.1666666666666288,0.591666666666697,0.8041666666666742,1.450777202072478,0.03264640432273063,1.254653199341759,44.44444444444444,1.0666666666410667,0.7357512953368184,5.301929279699898e-17,0.9732292311198845,0
422,352.9527777777778,0.591666666666697,1.0166666666666515,0.8000000000000114,0.7395833333333607,0.046317469643183035,1.7800539654767629,88.88888888888889,2.1333333332821334,1.2708333333332964,0.9997220635414124,0.8528499753494456,1
423,353.96944444444443,1.0166666666666515,0.5222222222222399,0.8000000000000114,1.2708333333332964,0.02708347943911685,1.0408611555403446,38.888888888888886,0.9333333333109334,0.6527777777777906,9.166756831817755e-23,0.9881918395166893,0
424,354.4916666666667,0.5222222222222399,1.0638888888888687,0.8000000000000114,0.6527777777777906,0.046554107088496326,1.789148318561144,77.77777777777777,1.8666666666218668,1.329861111111067,0.9996770620346069,0.8700249171323642,1
425,355.55555555555554,1.0638888888888687,0.5944444444444343,0.8000000000000114,1.329861111111067,0.02847876753815408,1.0944842945591078,38.888888888888886,0.9333333333109334,0.7430555555555324,8.02959811021066e-21,0.9800332456381533,0
426,356.15,0.5944444444444343,1.4722222222222285,0.8000000000000114,0.7430555555555324,0.04856148155295752,1.8662949093224301,94.44444444444444,2.266666666612267,1.8402777777777595,0.9998236298561096,0.8292993383085058,1
427,357.6222222222222,1.4722222222222285,0.6999999999999886,0.8083333333333371,1.821305841924398,0.031477090935667335,1.2097146276200752,55.55555555555556,1.3333333333013335,0.8659793814432808,1.2106538931119452e-18,0.958462700621094,0
428,358.3222222222222,0.6999999999999886,1.1555555555555657,0.8583333333333201,0.8155339805825236,0.0503740561932931,1.9359550332693531,94.44444444444444,2.266666666612267,1.3462783171521362,0.999860405921936,0.8262659375993333,1
429,359.47777777777776,1.1555555555555657,0.5527777777778056,0.8583333333333201,1.3462783171521362,0.024762652815979853,0.9516681001872639,36.111111111111114,0.8666666666458669,0.6440129449838611,3.3736295761300036e-28,0.9861736314532693,0
430,360.03055555555557,0.5527777777778056,1.0361111111110972,0.8583333333333201,0.6440129449838611,0.045917514487609175,1.7646830532447966,80.55555555555556,1.9333333332869336,1.207119741100326,0.9993767142295837,0.8681644101890271,1
431,361.06666666666666,1.0361111111110972,0.7138888888889028,0.8583333333333201,1.207119741100326,0.02825416659423134,1.085852523351409,44.44444444444444,1.0666666666410667,0.8317152103560161,8.208290831974226e-22,0.9939267168657457,0
432,361.78055555555557,0.7138888888889028,1.6222222222222058,0.8652777777777771,0.8250401284109316,0.048269741960841675,1.855082893168849,116.66666666666667,2.7999999999328007,1.8747993579454076,0.9999376535415649,0.7899475032031444,1
433,363.40277777777777,1.6222222222222058,0.8166666666666629,0.875,1.8539682539682352,0.03291660657717136,1.265037501381643,52.77777777777778,1.266666666636267,0.933333333333329,2.8581307557048374e-21,0.9572317254166554,0
434,364.21944444444443,0.8166666666666629,1.1888888888889255,0.92638888888888,0.8815592203898094,0.04907796091227879,1.8861440318830802,97.22222222222223,2.333333333277334,1.283358320839632,0.9998260140419006,0.8322679614876832,1
435,365.40833333333336,1.1888888888889255,0.5305555555555088,0.92638888888888,1.283358320839632,0.028120178149915118,1.0807031345037335,41.666666666666664,0.9999999999760001,0.5727136431783658,2.8909691671665645e-23,0.9779286734137171,0
436,365.93888888888887,0.5305555555555088,1.0138888888889142,0.92638888888888,0.5727136431783658,0.04686530107144157,1.8011079978709512,83.33333333333333,1.9999999999520002,1.094452773613231,0.9984173774719238,0.8630415538445697,1
437,366.9527777777778,1.0138888888889142,0.5666666666666629,0.9152777777777885,1.1077389984825639,0.025451006131977833,0.9781226120427409,38.888888888888886,0.9333333333109334,0.6191198786039339,3.7208962778472097e-23,0.9780850574452591,0
438,367.51944444444445,0.5666666666666629,1.2583333333333258,0.9152777777777885,0.6191198786039339,0.047199264028505834,1.8139427250402942,94.44444444444444,2.266666666612267,1.374810318664619,0.9993840456008911,0.8322508240394131,1
439,368.77777777777777,1.2583333333333258,0.6888888888888687,0.9152777777777885,1.374810318664619,0.02439091575752947,0.9373816542715668,36.111111111111114,0.8666666666458669,0.7526555386949615,2.8132149445828238e-31,0.9897289061672498,0
440,369.46666666666664,0.6888888888888687,1.3666666666666742,0.9152777777777885,0.7526555386949615,0.045784526260130264,1.75957210431971,113.88888888888889,2.7333333332677334,1.4931714719271532,0.999870777130127,0.7935004369392853,1
441,370.8333333333333,1.3666666666666742,0.6166666666666742,0.9152777777777885,1.4931714719271532,0.02690117455571628,1.0338548891548334,41.666666666666664,0.9999999999760001,0.6737481031866468,6.672684015177174e-29,0.9850793399874846,0
442,371.45,0.6166666666666742,1.1555555555555657,0.9152777777777885,0.6737481031866468,0.0495858863235555,1.9056644126265605,91.66666666666667,2.1999999999472006,1.2625189681335318,0.9994713664054871,0.8423872431783688,1
443,372.60555555555555,1.1555555555555657,0.5749999999999886,0.9152777777777885,1.2625189681335318,0.026616145077146363,1.0229007533284427,36.111111111111114,0.8666666666458669,0.6282245827010424,2.12317386704866e-27,0.9896572583443446,0
444,373.18055555555554,0.5749999999999886,1.1527777777777715,0.8513888888888914,0.6753670473083044,0.04708732617117213,1.8096407752928483,91.66666666666667,2.1999999999472006,1.353996737357248,0.9996155500411987,0.8379035070939791,1
445,374.3333333333333,1.1527777777777715,0.6527777777777715,0.8513888888888914,1.353996737357248,0.02602292540295488,1.0001023785126717,41.666666666666664,0.9999999999760001,0.7667210440456673,1.9024106419807745e-26,0.9928019626121486,0
446,374.9861111111111,0.6527777777777715,1.3722222222222626,0.8513888888888914,0.7667210440456673,0.04863158989969797,1.8689892845028917,97.22222222222223,2.333333333277334,1.6117455138662744,0.9998890161514282,0.8222674275116673,1
447,376.35833333333335,1.3722222222222626,0.6722222222222172,0.9208333333333201,1.4901960784314379,0.03175456850387825,1.2203785315299769,50.0,1.1999999999712,0.7300150829562645,2.1575148999476604e-19,0.9642550637444525,0
448,377.03055555555557,0.6722222222222172,1.1333333333333258,0.9208333333333201,0.7300150829562645,0.04682551788621506,1.7995790668398024,100.0,2.3999999999424,1.2307692307692402,0.9996887445449829,0.8161182835425271,1
449,378.1638888888889,1.1333333333333258,0.5500000000000114,0.9111111111110972,1.243902439024401,0.024988789207455262,0.9603588810845242,36.111111111111114,0.8666666666458669,0.6036585365853875,1.8142110816557072e-28,0.9901970271537677,0
450,378.7138888888889,0.5500000000000114,1.0777777777777828,0.9027777777777715,0.6092307692307861,0.04714930346190695,1.8120226610692498,83.33333333333333,1.9999999999520002,1.1938461538461678,0.9990358352661133,0.8538567247023358,1
451,379.7916666666667,1.0777777777777828,0.6055555555555543,0.875,1.2317460317460376,0.02487507852346294,0.9559887987912356,36.111111111111114,0.8666666666458669,0.6920634920634906,4.0198672319151256e-26,0.9828540654957463,0
452,380.39722222222224,0.6055555555555543,1.147222222222183,0.875,0.6920634920634906,0.04868957454010204,1.8712177263820173,88.88888888888889,2.1333333332821334,1.3111111111110663,0.9996091723442078,0.8423378279785791,1
453,381.5444444444444,1.147222222222183,0.7111111111111086,0.875,1.3111111111110663,0.025375986580856495,0.9752394914731033,38.888888888888886,0.9333333333109334,0.8126984126984098,1.1607941294983591e-24,0.9737538511365657,0
454,382.25555555555553,0.7111111111111086,1.319444444444457,0.8944444444444457,0.7950310559006172,0.045621389988377455,1.7533025181423179,116.66666666666667,2.7999999999328007,1.4751552795031175,0.9999076128005981,0.7877304321954289,1
455,383.575,1.319444444444457,0.5722222222222513,0.8944444444444457,1.4751552795031175,0.031764070066160305,1.220743691668229,41.666666666666664,0.9999999999760001,0.6397515527950627,5.843935708046241e-21,0.9686712383518439,0
456,384.14722222222224,0.5722222222222513,1.0305555555555657,0.8944444444444457,0.6397515527950627,0.047556420199455794,1.827668804277603,77.77777777777777,1.8666666666218668,1.152173913043488,0.9994449019432068,0.8540871461478197,1
457,385.1777777777778,1.0305555555555657,0.5555555555555429,0.8708333333333371,1.1834130781499268,0.026633207789691665,1.023556500487388,36.111111111111114,0.8666666666458669,0.6379585326953575,5.79053565602259e-24,0.9842997099103834,0
458,385.73333333333335,0.5555555555555429,1.1111111111110858,0.8708333333333371,0.6379585326953575,0.0477240377939875,1.8341106148110449,91.66666666666667,2.1999999999472006,1.275917065390715,0.9993588328361511,0.8375414126584377,1
459,386.84444444444443,1.1111111111110858,0.591666666666697,0.8708333333333371,1.275917065390715,0.025376893464363462,0.975274344447483,36.111111111111114,0.8666666666458669,0.679425837320606,3.607014489014578e-27,0.9882217271449604,0
460,387.43611111111113,0.591666666666697,1.2555555555555316,0.8708333333333371,0.679425837320606,0.04789665514940249,1.840744574100783,86.11111111111111,2.066666666617067,1.4417862838915132,0.9996746778488159,0.846669341114755,1
461,388.69166666666666,1.2555555555555316,0.6027777777777601,0.8708333333333371,1.4417862838915132,0.028242974194405263,1.085422381639284,41.666666666666664,0.9999999999760001,0.6921850079744584,1.731213342554633e-26,0.9921801092897429,0
462,389.2944444444444,0.6027777777777601,1.0388888888888914,0.8708333333333371,0.6921850079744584,0.04781671337005082,1.8376722844779163,86.11111111111111,2.066666666617067,1.1929824561403486,0.9995477795600891,0.8471123704551465,1
463,390.3333333333333,1.0388888888888914,0.5361111111111541,0.8708333333333371,1.1929824561403486,0.027557733288282277,1.0590874846415022,38.888888888888886,0.9333333333109334,0.6156299840510833,3.9449710365771464e-20,0.9702061375738207,0
464,390.86944444444447,0.5361111111111541,1.1111111111110858,0.8166666666666629,0.6564625850340693,0.04718645867338115,1.8134505948927575,86.11111111111111,2.066666666617067,1.3605442176870501,0.9995717406272888,0.8423140500480413,1
465,391.98055555555555,1.1111111111110858,0.5944444444444343,0.8166666666666629,1.3605442176870501,0.025975410211920794,0.99827629421074,41.666666666666664,0.9999999999760001,0.7278911564625761,1.6228362725735475e-25,0.9922945135254769,0
466,392.575,0.5944444444444343,1.1638888888888914,0.8166666666666629,0.7278911564625761,0.048149676109736854,1.8504685717038822,88.88888888888889,2.1333333332821334,1.4251700680272206,0.9997864365577698,0.8352722480561496,1
467,393.7388888888889,1.1638888888888914,0.6111111111111427,0.8208333333333258,1.4179357021996777,0.025310788498648724,0.9727338255619582,36.111111111111114,0.8666666666458669,0.744500846023734,2.459102705002697e-28,0.991044211853197,0
468,394.35,0.6111111111111427,1.158333333333303,0.825000000000017,0.7407407407407637,0.0469655173436288,1.8049594684734351,86.11111111111111,2.066666666617067,1.4040404040403383,0.999797523021698,0.8450204557524716,1
469,395.5083333333333,1.158333333333303,0.5500000000000114,0.825000000000017,1.4040404040403383,0.023008935280566998,0.8842699483174274,36.111111111111114,0.8666666666458669,0.6666666666666666,8.482164110109805e-31,0.9932101491528209,0
470,396.05833333333334,0.5500000000000114,1.033333333333303,0.825000000000017,0.6666666666666666,0.04802116603125571,1.845529725161393,83.33333333333333,1.9999999999520002,1.25252525252519,0.9995988011360168,0.8625033665273287,1
471,397.09166666666664,1.033333333333303,0.5944444444444912,0.8222222222222229,1.2567567567567188,0.022725702771269722,0.8733848728759034,36.111111111111114,0.8666666666458669,0.7229729729730293,2.596933807402714e-28,0.9923401993232854,0
472,397.68611111111113,0.5944444444444912,1.1555555555555088,0.8222222222222229,0.7229729729730293,0.0498461077365957,1.9156651350700058,94.44444444444444,2.266666666612267,1.4054054054053475,0.9997658133506775,0.8354171235980274,1
473,398.84166666666664,1.1555555555555088,0.5888888888889028,0.8222222222222229,1.4054054054053475,0.026126743834750867,1.0040922858334234,36.111111111111114,0.8666666666458669,0.7162162162162325,4.987860518304047e-28,0.9943826360176184,0
474,399.43055555555554,0.5888888888889028,1.1111111111111427,0.8222222222222229,0.7162162162162325,0.04809105172489628,1.8482155434293885,83.33333333333333,1.9999999999520002,1.3513513513513886,0.9997825026512146,0.8637652922780856,1
475,400.5416666666667,1.1111111111111427,0.6611111111110972,0.8222222222222229,1.3513513513513886,0.02587811761686369,0.9945371851666343,38.888888888888886,0.9333333333109334,0.8040540540540365,1.6095184516006702e-26,0.9937781132285808,0
476,401.2027777777778,0.6611111111110972,1.1083333333333485,0.8472222222222001,0.780327868852463,0.04898678706271687,1.882640075952181,100.0,2.3999999999424,1.3081967213115275,0.9998173117637634,0.8258186856698039,1
477,402.31111111111113,1.1083333333333485,0.5499999999999545,0.8472222222222001,1.3081967213115275,0.023629510850792318,0.9081196536913947,36.111111111111114,0.8666666666458669,0.6491803278688157,1.1099906146114164e-29,0.9951285084760715,0
478,402.8611111111111,0.5499999999999545,1.0444444444444798,0.8472222222222001,0.6491803278688157,0.04606357465638734,1.770296377647764,80.55555555555556,1.9333333332869336,1.2327868852459756,0.9994563460350037,0.8676510995966333,1
479,403.90555555555557,1.0444444444444798,0.6166666666666742,0.8472222222222001,1.2327868852459756,0.02380834200622512,0.9149924191907035,38.888888888888886,0.9333333333109334,0.7278688524590443,1.2276696948715578e-27,0.9960237747134706,0
480,404.52222222222224,0.6166666666666742,1.11388888888888,0.8472222222222001,0.7278688524590443,0.04842818072139332,1.8611719465255598,91.66666666666667,2.1999999999472006,1.3147540983606796,0.9997088313102722,0.8369440074368362,1
481,405.6361111111111,1.11388888888888,0.5916666666666401,0.8527777777777885,1.3061889250814065,0.028344885800130306,1.0893390066038273,47.22222222222222,1.1333333333061335,0.6938110749185269,4.715477276564843e-22,0.9913800599911138,0
482,406.22777777777776,0.5916666666666401,1.1888888888889255,0.8527777777777885,0.6938110749185269,0.04801333781249306,1.8452288742738463,88.88888888888889,2.1333333332821334,1.394136807817615,0.9996834993362427,0.8478544378324764,1
483,407.4166666666667,1.1888888888889255,0.5583333333333371,0.8527777777777885,1.394136807817615,0.02745273235527999,1.0550521319201778,50.0,1.1999999999712,0.6547231270358268,7.891281233329576e-21,0.9753178708524435,0
484,407.975,0.5583333333333371,1.0138888888888573,0.8527777777777885,0.6547231270358268,0.04754952836708413,1.827403940207154,83.33333333333333,1.9999999999520002,1.1889250814331727,0.9994372725486755,0.8564269307665207,1
485,408.9888888888889,1.0138888888888573,0.5527777777778056,0.8374999999999773,1.2106135986732953,0.025978915897062336,0.9984110232619164,47.22222222222222,1.1333333333061335,0.6600331674959051,8.078479314533716e-21,0.981908572544386,0
486,409.5416666666667,0.5527777777778056,1.772222222222183,0.8152777777777658,0.6780238500852229,0.046223962913513134,1.7764603532559327,83.33333333333333,1.9999999999520002,2.1737649063032207,0.9993380904197693,0.8529064910664272,1
487,411.31388888888887,1.772222222222183,1.069444444444457,0.8152777777777658,2.1737649063032207,0.04800078427542767,1.8447464218945138,94.44444444444444,2.266666666612267,1.311754684838195,0.0010665729641914368,0.8265617271590189,0
488,412.3833333333333,1.069444444444457,0.6055555555555543,1.0291666666666686,1.0391363022942073,0.02516437694645742,0.9671069969360103,38.888888888888886,0.9333333333109334,0.5883940620782703,9.873987061376744e-26,0.9852271191242212,0
489,412.9888888888889,0.6055555555555543,1.0749999999999886,0.8152777777777658,0.7427597955707078,0.04792982837558355,1.842019473901359,83.33333333333333,1.9999999999520002,1.318568994889273,0.9998130202293396,0.8506802683208712,1
490,414.06388888888887,1.0749999999999886,0.5472222222222172,1.0416666666666572,1.0319999999999985,0.024892913866551555,0.9566742393698143,38.888888888888886,0.9333333333109334,0.5253333333333332,3.9831694071968046e-27,0.9914995436724322,0
491,414.6111111111111,0.5472222222222172,1.025000000000034,0.8097222222222058,0.6758147512864568,0.04814209917969198,1.8501773782411042,83.33333333333333,1.9999999999520002,1.2658662092625035,0.9996504783630371,0.8474412932461235,1
492,415.6361111111111,1.025000000000034,0.6111111111110858,1.0194444444444457,1.0054495912806862,0.025611725722252867,0.984299321310385,38.888888888888886,0.9333333333109334,0.599455040871909,4.965255705213079e-26,0.996486077473252,0
493,416.2472222222222,0.6111111111110858,1.1000000000000227,0.8124999999999716,0.7521367521367474,0.04902389483753634,1.8840661867096613,88.88888888888889,2.1333333332821334,1.3538461538462292,0.999815046787262,0.8474515716231534,1
494,417.34722222222223,1.1000000000000227,0.5861111111111086,1.0194444444444457,1.0790190735695033,0.025130722972327366,0.9658136212277569,38.888888888888886,0.9333333333109334,0.5749318801089887,7.141891827514674e-28,0.9936640612173613,0
495,417.93333333333334,0.5861111111111086,1.1416666666666515,0.81805555555556,0.7164685908319115,0.04882110943392478,1.8762728213850794,88.88888888888889,2.1333333332821334,1.395585738539872,0.9997661709785461,0.8491953757889812,1
496,419.075,1.1416666666666515,0.6555555555555657,1.0472222222222456,1.0901856763925342,0.025476415587719438,0.9790991378072503,41.666666666666664,0.9999999999760001,0.6259946949602079,2.2014525192663016e-27,0.9921455135457695,0
497,419.73055555555555,0.6555555555555657,1.1055555555555543,0.8402777777777999,0.7801652892561899,0.04886170970684828,1.8778331543949278,100.0,2.3999999999424,1.3157024793388068,0.9998219609260559,0.827736887853675,1
498,420.8361111111111,1.1055555555555543,0.5777777777777828,0.8402777777777999,1.3157024793388068,0.023499338848976134,0.9031169367940338,36.111111111111114,0.8666666666458669,0.6876033057851119,3.563857378133743e-30,0.9982319912773836,0
499,421.4138888888889,0.5777777777777828,1.0944444444444343,0.8402777777777999,0.6876033057851119,0.04644354240740432,1.7848991421588996,80.55555555555556,1.9333333332869336,1.302479338842929,0.9996726512908936,0.8642184519483158,1
500,422.5083333333333,1.0944444444444343,0.6194444444444684,0.8402777777777999,1.302479338842929,0.029233216267773244,1.1234789581979743,50.0,1.1999999999712,0.7371900826446373,1.2678943696385023e-16,0.9697699068339166,0
501,423.1277777777778,0.6194444444444684,1.158333333333303,0.8402777777777999,0.7371900826446373,0.04740161468233304,1.821719382239765,94.44444444444444,2.266666666612267,1.3785123966941426,0.9997772574424744,0.8320058253681171,1
502,424.2861111111111,1.158333333333303,0.6999999999999886,0.875,1.3238095238094891,0.025704492088635074,0.9878644801934939,38.888888888888886,0.9333333333109334,0.799999999999987,1.3470871736662828e-27,0.9919723461428545,0
503,424.9861111111111,0.6999999999999886,1.1527777777778283,0.8972222222222115,0.7801857585139286,0.04764079598335127,1.8309114997415477,100.0,2.3999999999424,1.2848297213623008,0.999806821346283,0.8171813332953157,1
504,426.1388888888889,1.1527777777778283,0.5666666666666629,0.8972222222222115,1.2848297213623008,0.02587355534152686,0.9943618496751343,36.111111111111114,0.8666666666458669,0.6315789473684243,7.815396029080453e-29,0.995422410996903,0
505,426.7055555555556,0.5666666666666629,1.0166666666666515,0.8972222222222115,0.6315789473684243,0.047022547398124025,1.8071512240990695,86.11111111111111,2.066666666617067,1.1331269349845168,0.9991014003753662,0.8529261950733631,1
506,427.72222222222223,1.0166666666666515,0.5999999999999659,0.8583333333333201,1.1844660194174763,0.026412965398035487,1.0150922353698448,38.888888888888886,0.9333333333109334,0.6990291262135633,1.7459517232915146e-24,0.9930086589234189,0
507,428.3222222222222,0.5999999999999659,1.227777777777817,0.8583333333333201,0.6990291262135633,0.04645732898533253,1.7854289822581215,97.22222222222223,2.333333333277334,1.4304207119741779,0.9997444748878479,0.8285503727158223,1
508,429.55,1.227777777777817,0.6444444444444457,0.8583333333333201,1.4304207119741779,0.029716459630201603,1.142050768579838,50.0,1.1999999999712,0.7508090614886862,1.8336741295728505e-18,0.9678759924047636,0
509,430.19444444444446,0.6444444444444457,1.1499999999999773,0.8583333333333201,0.7508090614886862,0.048233361000516645,1.8536847150474336,97.22222222222223,2.333333333277334,1.3398058252427127,0.9997807145118713,0.8277713580372517,1
510,431.34444444444443,1.1499999999999773,0.8555555555555543,0.8583333333333201,1.3398058252427127,0.024851256526245778,0.9550732815805878,38.888888888888886,0.9333333333109334,0.9967637540453214,1.0505943994772483e-27,0.9927424013776497,0
511,432.2,0.8555555555555543,0.8444444444444343,0.9361111111111029,0.9139465875370987,0.025138089750520794,0.9660967382209135,41.666666666666664,0.9999999999760001,0.9020771513353086,2.3210140304199567e-20,0.9955909729423758,0
512,433.0444444444444,0.8444444444444343,0.8222222222222513,0.8499999999999943,0.9934640522875765,0.025319681330689726,0.9730755912296609,47.22222222222222,1.1333333333061335,0.9673202614379491,2.6241559808949015e-16,0.9753722788445522,0
513,433.8666666666667,0.8222222222222513,0.9472222222221944,0.8499999999999943,0.9673202614379491,0.027831183155923568,1.0695965976177466,41.666666666666664,0.9999999999760001,1.114379084967295,1.0413986161047703e-13,0.9768800026592899,0
