beat_index,peak_time_s,rr_prev_s,rr_next_s,rr_baseline_s,prematurity_index,aa_ratio,morph_index,qrs_width_ms,width_index,pause_index,pvc_score,morphology_score,is_pvc_candidate
0,0.21388888888888888,,0.7611111111111111,0.7944444444443661,,0.018947334015344743,0.8746658042875947,36.111111111111114,0.9999999999723078,0.9580419580420524,0.0,0.9936291792549155,0
1,0.975,0.7611111111111111,0.7416666666666666,0.7944444444443661,0.9580419580420524,0.019574014408970837,0.9035952520968917,33.333333333333336,0.923076923051361,0.9335664335665255,0.0,0.9946196622707981,0
2,1.7166666666666666,0.7416666666666666,0.7583333333333335,0.7944444444443661,0.9335664335665255,0.01939129834995135,0.895160530431611,33.333333333333336,0.923076923051361,0.9545454545455488,0.0,0.9938154654610998,0
3,2.475,0.7583333333333335,0.6916666666666664,0.7944444444443661,0.9545454545455488,0.021121582403719003,0.9750356354099167,38.888888888888886,1.0769230768932543,0.8706293706294561,0.0,0.892740908255844,0
4,3.1666666666666665,0.6916666666666664,0.7277777777777779,0.7944444444443661,0.8706293706294561,0.01906201871845445,0.8799599943833463,36.111111111111114,0.9999999999723078,0.9160839160840065,0.0,0.9940205356363174,0
5,3.8944444444444444,0.7277777777777779,0.7361111111111112,0.7944444444443661,0.9160839160840065,0.018654287699159392,0.8611379068202152,33.333333333333336,0.923076923051361,0.9265734265735179,0.0,0.9964243627518448,0
6,4.6305555555555555,0.7361111111111112,0.7249999999999996,0.7944444444443661,0.9265734265735179,0.028973591960122502,1.3375079625649402,63.888888888888886,1.769230769181775,0.9125874125875021,0.0,0.9410596751758504,0
7,5.355555555555555,0.7249999999999996,0.7583333333333337,0.7944444444443661,0.9125874125875021,0.029294814979907793,1.3523365812364985,75.0,2.076923076865562,0.9545454545455492,0.0,0.9255570465597107,0
8,6.113888888888889,0.7583333333333337,0.7416666666666663,0.7944444444443661,0.9545454545455492,0.027349364829048227,1.262528763444036,66.66666666666667,1.846153846102722,0.933566433566525,0.0,0.9530204483284188,0
9,6.855555555555555,0.7416666666666663,0.7166666666666668,0.7944444444443661,0.933566433566525,0.027264345749995974,1.2586040275894401,63.888888888888886,1.769230769181775,0.9020979020979911,0.0,0.9509837473272165,0
10,7.572222222222222,0.7166666666666668,0.7222222222222223,0.7944444444443661,0.9020979020979911,0.02779127794079035,1.2829287989843463,52.77777777777778,1.4615384614979883,0.9090909090909989,0.0,0.9567341467145473,0
11,8.294444444444444,0.7222222222222223,0.719444444444445,0.7944444444443661,0.9090909090909989,0.026645258438155937,1.2300250992243058,61.111111111111114,1.6923076922608284,0.9055944055944956,0.0,0.9478526142583497,0
12,9.01388888888889,0.719444444444445,0.7194444444444432,0.7944444444443661,0.9055944055944956,0.023764332574245997,1.0970329148985853,55.55555555555556,1.538461538418935,0.9055944055944933,0.0,0.9651603557850021,0
13,9.733333333333333,0.7194444444444432,0.7222222222222232,0.7944444444443661,0.9055944055944933,0.027542810349114228,1.2714587892332756,61.111111111111114,1.6923076922608284,0.909090909091,0.0,0.9523076224269011,0
14,10.455555555555556,0.7222222222222232,0.7333333333333325,0.7944444444443661,0.909090909091,0.02771611494669326,1.279459049592091,55.55555555555556,1.538461538418935,0.9230769230770131,0.0,0.938978394584185,0
15,11.188888888888888,0.7333333333333325,0.7583333333333346,0.7944444444443661,0.9230769230770131,0.02713813926893366,1.2527779576433846,69.44444444444444,1.9230769230236686,0.9545454545455503,0.0,0.9496551276465091,0
16,11.947222222222223,0.7583333333333346,0.75,0.7944444444443661,0.9545454545455503,0.028445887160290367,1.31314752521804,61.111111111111114,1.6923076922608284,0.9440559440560371,0.0,0.9532203575676141,0
17,12.697222222222223,0.75,0.7527777777777764,0.7944444444443661,0.9440559440560371,0.027969936536701018,1.2911762159749656,50.0,1.3846153845770415,0.9475524475525393,0.0,0.9567361084663759,0
18,13.45,0.7527777777777764,0.7611111111111111,0.7944444444443661,0.9475524475525393,0.027964291386919263,1.290915618918399,58.333333333333336,1.6153846153398816,0.9580419580420524,0.0,0.9469627180336816,0
19,14.21111111111111,0.7611111111111111,0.7583333333333346,0.7944444444443661,0.9580419580420524,0.02640580654732005,1.2189712812826081,63.888888888888886,1.769230769181775,0.9545454545455503,0.0,0.9573934868082075,0
20,14.969444444444445,0.7583333333333346,0.7611111111111111,0.7944444444443661,0.9545454545455503,0.02443649741923775,1.1280620614942185,58.333333333333336,1.6153846153398816,0.9580419580420524,0.0,0.9645906190848182,0
21,15.730555555555556,0.7611111111111111,0.7361111111111089,0.7944444444443661,0.9580419580420524,0.020875924486009893,0.9636953286417644,36.111111111111114,0.9999999999723078,0.9265734265735152,0.0,0.9949086405565204,0
22,16.466666666666665,0.7361111111111089,0.7416666666666671,0.7944444444443661,0.9265734265735152,0.019005777779690425,0.8773637438555366,33.333333333333336,0.923076923051361,0.9335664335665262,0.0,0.9935757715435634,0
23,17.208333333333332,0.7416666666666671,0.7361111111111107,0.7944444444443661,0.9335664335665262,0.018588278480653492,0.8580907231822373,36.111111111111114,0.9999999999723078,0.9265734265735174,0.0,0.9928420194176397,0
24,17.944444444444443,0.7361111111111107,0.7583333333333364,0.7944444444443661,0.9265734265735174,0.018792964854567294,0.8675396605219726,33.333333333333336,0.923076923051361,0.9545454545455525,0.0,0.9944012616206424,0
25,18.70277777777778,0.7583333333333364,0.7611111111111093,0.7944444444443661,0.9545454545455525,0.01968186918982941,0.9085741524830635,36.111111111111114,0.9999999999723078,0.9580419580420502,0.0,0.9945114601025391,0
26,19.46388888888889,0.7611111111111093,0.7388888888888907,0.7944444444443661,0.9580419580420502,0.021771581834127536,1.0050415599439078,33.333333333333336,0.923076923051361,0.930069930070024,0.0,0.9872444912952196,0
27,20.20277777777778,0.7388888888888907,0.7027777777777757,0.7944444444443661,0.930069930070024,0.018628899314253915,0.859965902775481,30.555555555555557,0.8461538461304142,0.8846153846154693,0.0,0.909216817274926,0
28,20.905555555555555,0.7027777777777757,0.6972222222222229,0.7944444444443661,0.8846153846154693,0.019447996712600613,0.8977778970188176,36.111111111111114,0.9999999999723078,0.877622377622465,0.0,0.9987681879558035,0
29,21.602777777777778,0.6972222222222229,0.6916666666666664,0.7944444444443661,0.877622377622465,0.0204595695553314,0.9444751354464537,38.888888888888886,1.0769230768932543,0.8706293706294561,0.0,0.9964682003956651,0
30,22.294444444444444,0.6916666666666664,0.6916666666666664,0.7944444444443661,0.8706293706294561,0.017852562665658604,0.8241278730773911,33.333333333333336,0.923076923051361,0.8706293706294561,0.0,0.9944860986533102,0
31,22.98611111111111,0.6916666666666664,0.6944444444444464,0.7944444444443661,0.8706293706294561,0.01876696404899125,0.8663393853010429,33.333333333333336,0.923076923051361,0.8741258741259628,0.0,0.998217978105343,0
32,23.680555555555557,0.6944444444444464,0.716666666666665,0.7944444444443661,0.8741258741259628,0.022434765082754434,1.0356560890951083,33.333333333333336,0.923076923051361,0.9020979020979889,0.0,0.9955462062470493,0
33,24.397222222222222,0.716666666666665,0.7527777777777764,0.7944444444443661,0.9020979020979889,0.019376918484082604,0.8944967126651934,36.111111111111114,0.9999999999723078,0.9475524475525393,0.0,0.9948687924020276,0
34,25.15,0.7527777777777764,0.7694444444444457,0.7944444444443661,0.9475524475525393,0.01813520163025376,0.8371753359600544,36.111111111111114,0.9999999999723078,0.9685314685315656,0.0,0.99296487907256,0
35,25.919444444444444,0.7694444444444457,0.7472222222222236,0.7944444444443661,0.9685314685315656,0.019916380987950132,0.9193999209184578,33.333333333333336,0.923076923051361,0.940559440559535,0.0,0.9957660587255346,0
36,26.666666666666668,0.7472222222222236,0.7555555555555529,0.7944444444443661,0.940559440559535,0.02620124587837952,1.209528146861714,52.77777777777778,1.4615384614979883,0.9510489510490414,0.0,0.9654182698481508,0
37,27.42222222222222,0.7555555555555529,0.7944444444444443,0.7944444444443661,0.9510489510490414,0.027287931380302947,1.259692811071347,58.333333333333336,1.6153846153398816,1.0000000000000984,0.0,0.9568341373325939,0
38,28.216666666666665,0.7944444444444443,0.7805555555555586,0.7944444444443661,1.0000000000000984,0.026031883607382254,1.2017098761299148,58.333333333333336,1.6153846153398816,0.9825174825175832,0.0,0.9595997246066232,0
39,28.997222222222224,0.7805555555555586,0.777777777777775,0.7944444444443661,0.9825174825175832,0.027772654444472362,1.2820690825000942,55.55555555555556,1.538461538418935,0.9790209790210721,0.0,0.9575060613810358,0
40,29.775,0.777777777777775,0.7555555555555564,0.7944444444443661,0.9790209790210721,0.025718369315611046,1.187237115479491,58.333333333333336,1.6153846153398816,0.9510489510490459,0.0,0.9607665511921228,0
41,30.530555555555555,0.7555555555555564,0.75,0.7944444444443661,0.9510489510490459,0.024930477134212883,1.1508656477059023,55.55555555555556,1.538461538418935,0.9440559440560371,0.0,0.9636188946302762,0
42,31.280555555555555,0.75,0.780555555555555,0.7944444444443661,0.9440559440560371,0.018257468179406464,0.8428195268243476,36.111111111111114,0.9999999999723078,0.9825174825175786,0.0,0.9975517746519472,0
43,32.06111111111111,0.780555555555555,0.7361111111111143,0.7944444444443661,0.9825174825175786,0.020207304050474027,0.9328298026243588,27.77777777777778,0.7692307692094675,0.9265734265735219,0.0,0.9295427507970249,0
44,32.797222222222224,0.7361111111111143,0.7583333333333329,0.7944444444443661,0.9265734265735219,0.02127761069471788,0.9822383696060641,33.333333333333336,0.923076923051361,0.9545454545455481,0.0,0.9946869251605833,0
45,33.55555555555556,0.7583333333333329,0.7777777777777786,0.7944444444443661,0.9545454545455481,0.02126308808677699,0.9815679624371884,36.111111111111114,0.9999999999723078,0.9790209790210765,0.0,0.9976670110584065,0
46,34.333333333333336,0.7777777777777786,0.7888888888888843,0.7944444444443661,0.9790209790210765,0.019680686063078365,0.9085195358013478,33.333333333333336,0.923076923051361,0.9930069930070852,0.0,0.9969004952026539,0
47,35.12222222222222,0.7888888888888843,0.7805555555555586,0.7944444444443661,0.9930069930070852,0.02251042101123299,1.0391485938178429,38.888888888888886,1.0769230768932543,0.9825174825175832,0.0,0.9880091624471508,0
48,35.90277777777778,0.7805555555555586,0.7916666666666643,0.7944444444443661,0.9825174825175832,0.021359969777656484,0.9860403120566772,33.333333333333336,0.923076923051361,0.9965034965035917,0.0,0.9905099947739666,0
49,36.69444444444444,0.7916666666666643,0.8055555555555571,0.7944444444443661,0.9965034965035917,0.028497767779104764,1.3155424902904602,55.55555555555556,1.538461538418935,1.0139860139861159,0.0,0.9597095872188843,0
50,37.5,0.8055555555555571,0.7833333333333314,0.7944444444443661,1.0139860139861159,0.026330392147412156,1.2154899262435888,55.55555555555556,1.538461538418935,0.9860139860140809,0.0,0.9519243774205124,0
51,38.28333333333333,0.7833333333333314,0.7666666666666657,0.7944444444443661,0.9860139860140809,0.0257410255428777,1.1882829949276634,61.111111111111114,1.6923076922608284,0.9650349650350589,0.0,0.9567093175253549,0
52,39.05,0.7666666666666657,0.7638888888888928,0.7944444444443661,0.9650349650350589,0.023831026667439848,1.1001117144076555,55.55555555555556,1.538461538418935,0.9615384615385613,0.0,0.9664547324083672,0
53,39.81388888888889,0.7638888888888928,0.7749999999999986,0.7944444444443661,0.9615384615385613,0.02469296999425327,1.1399016053013833,55.55555555555556,1.538461538418935,0.9755244755245699,0.0,0.9628902292466558,0
54,40.58888888888889,0.7749999999999986,0.7333333333333343,0.7944444444443661,0.9755244755245699,0.028535807093358852,1.3172984992028305,61.111111111111114,1.6923076922608284,0.9230769230770153,0.0,0.95573516382616,0
55,41.32222222222222,0.7333333333333343,0.7722222222222186,0.7944444444443661,0.9230769230770153,0.028184918705633857,1.3011004381132807,61.111111111111114,1.6923076922608284,0.9720279720280632,0.0,0.9594736876898724,0
56,42.09444444444444,0.7722222222222186,0.7833333333333385,0.7944444444443661,0.9720279720280632,0.0254429393956073,1.1745224437314845,58.333333333333336,1.6153846153398816,0.9860139860140897,0.0,0.9611667289956196,0
57,42.87777777777778,0.7833333333333385,0.7583333333333329,0.7944444444443661,0.9860139860140897,0.018760533083542235,0.8660425126348276,33.333333333333336,0.923076923051361,0.9545454545455481,0.0,0.995721145901388,0
58,43.63611111111111,0.7583333333333329,0.7666666666666657,0.7944444444443661,0.9545454545455481,0.022099418550553078,1.0201754867018953,36.111111111111114,0.9999999999723078,0.9650349650350589,0.0,0.9983375679531536,0
59,44.40277777777778,0.7666666666666657,0.7916666666666643,0.7944444444443661,0.9650349650350589,0.019317144450298904,0.8917373638674896,33.333333333333336,0.923076923051361,0.9965034965035917,0.0,0.9981072737699086,0
60,45.19444444444444,0.7916666666666643,0.8388888888888886,0.7944444444443661,0.9965034965035917,0.01994674953454972,0.9208018241738215,36.111111111111114,0.9999999999723078,1.0559440559441597,0.0,0.9951608596315227,0
61,46.03333333333333,0.8388888888888886,0.8250000000000028,0.7944444444443661,1.0559440559441597,0.019402617465640582,0.8956830547835926,36.111111111111114,0.9999999999723078,1.0384615384616445,0.0,0.9946172256385759,0
62,46.858333333333334,0.8250000000000028,0.8222222222222229,0.7944444444443661,1.0384615384616445,0.019330931179328745,0.8923738006572572,33.333333333333336,0.923076923051361,1.0349650349651378,0.0,0.9971596106149676,0
63,47.68055555555556,0.8222222222222229,0.7972222222222172,0.7944444444443661,1.0349650349651378,0.01949443602037255,0.8999216748426532,33.333333333333336,0.923076923051361,1.0034965034965961,0.0,0.9974662249475366,0
64,48.477777777777774,0.7972222222222172,0.7722222222222257,0.7944444444443661,1.0034965034965961,0.019995771751301884,0.9230648368282016,36.111111111111114,0.9999999999723078,0.9720279720280722,0.0,0.991664569498343,0
65,49.25,0.7722222222222257,0.8027777777777771,0.7944444444443661,0.9720279720280722,0.02025946794086405,0.9352378443628856,33.333333333333336,0.923076923051361,1.0104895104896092,0.0,0.9966224408438352,0
66,50.05277777777778,0.8027777777777771,0.75,0.7944444444443661,1.0104895104896092,0.022420066426982,1.0349775550299607,50.0,1.3846153845770415,0.9440559440560371,0.0,0.8515662464566438,0
67,50.80277777777778,0.75,0.7555555555555529,0.7944444444443661,0.9440559440560371,0.020445988319720974,0.9438481848496683,36.111111111111114,0.9999999999723078,0.9510489510490414,0.0,0.9210943290786202,0
68,51.55833333333333,0.7555555555555529,0.8333333333333357,0.7944444444443661,0.9510489510490414,0.020622635596650223,0.9520027533195863,36.111111111111114,0.9999999999723078,1.0489510489511553,0.0,0.991188483484044,0
69,52.391666666666666,0.8333333333333357,0.7638888888888928,0.7944444444443661,1.0489510489511553,0.020670672996058535,0.9542203038496676,33.333333333333336,0.923076923051361,0.9615384615385613,0.0,0.9034402199116376,0
70,53.15555555555556,0.7638888888888928,0.7722222222222186,0.7944444444443661,0.9615384615385613,0.019775004426943348,0.9128735545526003,36.111111111111114,0.9999999999723078,0.9720279720280632,0.0,0.9968799709548434,0
71,53.92777777777778,0.7722222222222186,0.7972222222222243,0.7944444444443661,0.9720279720280632,0.021028012770356874,0.9707161803058213,36.111111111111114,0.9999999999723078,1.003496503496605,0.0,0.9913980965236612,0
72,54.725,0.7972222222222243,0.7777777777777786,0.7944444444443661,1.003496503496605,0.020649431473063858,0.9532397313966046,33.333333333333336,0.923076923051361,0.9790209790210765,0.0,0.9029044661801058,0
73,55.50277777777778,0.7777777777777786,0.8333333333333286,0.7944444444443661,0.9790209790210765,0.022456832514968265,1.0366747879965075,33.333333333333336,0.923076923051361,1.0489510489511464,0.0,0.9925775590984403,0
74,56.33611111111111,0.8333333333333286,0.7805555555555586,0.7944444444443661,1.0489510489511464,0.01803859572597207,0.8327157174776315,30.555555555555557,0.8461538461304142,0.9825174825175832,0.0,0.9041887365536969,0
75,57.11666666666667,0.7805555555555586,0.7611111111111128,0.7944444444443661,0.9825174825175832,0.01849473297017852,0.8537723816630125,33.333333333333336,0.923076923051361,0.9580419580420547,0.0,0.9956751836391247,0
76,57.87777777777778,0.7611111111111128,0.7944444444444443,0.7944444444443661,0.9580419580420547,0.02258284888475668,1.0424920818355838,33.333333333333336,0.923076923051361,1.0000000000000984,0.0,0.9978985049286513,0
77,58.672222222222224,0.7944444444444443,0.7638888888888857,0.7944444444443661,1.0000000000000984,0.019686148495597803,0.9087716980807014,33.333333333333336,0.923076923051361,0.9615384615385524,0.0,0.9020642571073114,0
78,59.43611111111111,0.7638888888888857,0.8416666666666686,0.7944444444443661,0.9615384615385524,0.018961345086911486,0.8753125974021791,33.333333333333336,0.923076923051361,1.0594405594406662,0.0,0.9963991186277112,0
79,60.27777777777778,0.8416666666666686,0.8555555555555543,0.7944444444443661,1.0594405594406662,0.01902325008018847,0.878170317685686,30.555555555555557,0.8461538461304142,1.0769230769231815,0.0,0.8954116850727087,0
80,61.13333333333333,0.8555555555555543,0.81666666666667,0.7944444444443661,1.0769230769231815,0.018623973444335876,0.8597385098361795,30.555555555555557,0.8461538461304142,1.0279720279721334,0.0,0.9068968781518418,0
81,61.95,0.81666666666667,0.8444444444444414,0.7944444444443661,1.0279720279721334,0.022120878391048305,1.0211661373460144,36.111111111111114,0.9999999999723078,1.062937062937164,0.0,0.9976851290011073,0
82,62.794444444444444,0.8444444444444414,0.8055555555555571,0.7944444444443661,1.062937062937164,0.018325746744124204,0.8459714702943935,30.555555555555557,0.8461538461304142,1.0139860139861159,0.0,0.8830461614924118,0
83,63.6,0.8055555555555571,0.8749999999999929,0.7944444444443661,1.0139860139861159,0.021764157234317807,1.004698818133433,33.333333333333336,0.923076923051361,1.101398601398701,0.0,0.9964562130098544,0
84,64.475,0.8749999999999929,0.7888888888888914,0.7944444444443661,1.101398601398701,0.018948226288779325,0.874706994307292,33.333333333333336,0.923076923051361,0.993006993007094,0.0,0.9126324354980963,0
85,65.26388888888889,0.7888888888888914,0.7916666666666714,0.7944444444443661,0.993006993007094,0.018377677962112874,0.8483687711765603,33.333333333333336,0.923076923051361,0.9965034965036007,0.0,0.996341759851057,0
86,66.05555555555556,0.7916666666666714,0.8027777777777771,0.7944444444443661,0.9965034965036007,0.021294730904592475,0.9830286898763148,33.333333333333336,0.923076923051361,1.0104895104896092,0.0,0.990952873239403,0
87,66.85833333333333,0.8027777777777771,0.7805555555555515,0.7944444444443661,1.0104895104896092,0.019098705028776333,0.8816535445734706,30.555555555555557,0.8461538461304142,0.9825174825175742,0.0,0.9018139342838953,0
88,67.63888888888889,0.7805555555555515,0.8333333333333428,0.7944444444443661,0.9825174825175742,0.019891807736618302,0.9182655458859224,33.333333333333336,0.923076923051361,1.0489510489511642,0.0,0.9943529292451914,0
89,68.47222222222223,0.8333333333333428,0.8527777777777743,0.7944444444443661,1.0489510489511642,0.01993265738976852,0.9201512884763348,36.111111111111114,0.9999999999723078,1.0734265734266748,0.0,0.9912733688386084,0
90,69.325,0.8527777777777743,0.8277777777777686,0.7944444444443661,1.0734265734266748,0.018163270798284507,0.8384710929996155,27.77777777777778,0.7692307692094675,1.0419580419581331,0.0,0.913485518349609,0
91,70.15277777777777,0.8277777777777686,0.8055555555555571,0.7944444444443661,1.0419580419581331,0.01873809389366681,0.8650066522840228,30.555555555555557,0.8461538461304142,1.0139860139861159,0.0,0.8958632651942235,0
92,70.95833333333333,0.8055555555555571,0.8111111111111171,0.7944444444443661,1.0139860139861159,0.019980978986486198,0.9223819584071704,33.333333333333336,0.923076923051361,1.0209790209791292,0.0,0.9977289083448144,0
93,71.76944444444445,0.8111111111111171,0.7305555555555543,0.7944444444443661,1.0209790209791292,0.018159119813056946,0.8382794710632676,33.333333333333336,0.923076923051361,0.9195804195805086,0.0,0.9059286015985184,0
94,72.5,0.7305555555555543,0.7333333333333343,0.7944444444443661,0.9195804195805086,0.0202822841053934,0.9362911069951197,30.555555555555557,0.8461538461304142,0.9230769230770153,0.0,0.8462654787784081,0
95,73.23333333333333,0.7333333333333343,0.74722222222222,0.7944444444443661,0.9230769230770153,0.019102748261678775,0.8818401923390967,33.333333333333336,0.923076923051361,0.9405594405595304,0.0,0.9003609837449507,0
96,73.98055555555555,0.74722222222222,0.7277777777777743,0.7944444444443661,0.9405594405595304,0.018685694463681703,0.862587737330868,30.555555555555557,0.8461538461304142,0.916083916084002,0.0,0.8838937412864347,0
97,74.70833333333333,0.7277777777777743,0.7638888888888999,0.7944444444443661,0.916083916084002,0.018359005223176343,0.8475067815052458,30.555555555555557,0.8461538461304142,0.9615384615385703,0.0,0.8954388909357036,0
98,75.47222222222223,0.7638888888888999,0.7749999999999915,0.7944444444443661,0.9615384615385703,0.017680041523456917,0.8161637793701579,27.77777777777778,0.7692307692094675,0.975524475524561,0.0,0.9146279465399608,0
99,76.24722222222222,0.7749999999999915,0.8138888888888971,0.7944444444443661,0.975524475524561,0.018422928102833625,0.850457653480297,33.333333333333336,0.923076923051361,1.0244755244756358,0.0,0.9917155048798904,0
100,77.06111111111112,0.8138888888888971,0.8138888888888829,0.7944444444443661,1.0244755244756358,0.019203020012590947,0.8864690373041927,33.333333333333336,0.923076923051361,1.0244755244756178,0.0,0.9962241878114848,0
101,77.875,0.8138888888888829,0.8250000000000028,0.7944444444443661,1.0244755244756178,0.021779406557348575,1.0054027726519286,36.111111111111114,0.9999999999723078,1.0384615384616445,0.0,0.998022714092488,0
102,78.7,0.8250000000000028,0.8388888888888886,0.7944444444443661,1.0384615384616445,0.02197227789820341,1.0143062926055115,33.333333333333336,0.923076923051361,1.0559440559441597,0.0,0.9871297473509897,0
103,79.53888888888889,0.8388888888888886,0.8055555555555571,0.7944444444443661,1.0559440559441597,0.018847415112666153,0.8700532478559551,33.333333333333336,0.923076923051361,1.0139860139861159,0.0,0.992941622744791,0
104,80.34444444444445,0.8055555555555571,0.8027777777777771,0.7944444444443661,1.0139860139861159,0.019251795766813493,0.8887206725085041,33.333333333333336,0.923076923051361,1.0104895104896092,0.0,0.994193457371699,0
105,81.14722222222223,0.8027777777777771,0.8138888888888829,0.7944444444443661,1.0104895104896092,0.018023721030716536,0.8320290569016012,33.333333333333336,0.923076923051361,1.0244755244756178,0.0,0.9966248379513061,0
106,81.96111111111111,0.8138888888888829,0.8027777777777771,0.7944444444443661,1.0244755244756178,0.01890733521287297,0.8728193395181353,33.333333333333336,0.923076923051361,1.0104895104896092,0.0,0.905813274734143,0
107,82.76388888888889,0.8027777777777771,0.8277777777777828,0.7944444444443661,1.0104895104896092,0.018829608955227787,0.8692312621874443,33.333333333333336,0.923076923051361,1.0419580419581511,0.0,0.8799831993430864,0
108,83.59166666666667,0.8277777777777828,0.8055555555555571,0.7944444444443661,1.0419580419581511,0.018696903834366133,0.8631051955240531,33.333333333333336,0.923076923051361,1.0139860139861159,0.0,0.8828711736273889,0
109,84.39722222222223,0.8055555555555571,0.8027777777777771,0.7944444444443661,1.0139860139861159,0.01767887618312917,0.8161099837631237,30.555555555555557,0.8461538461304142,1.0104895104896092,0.0,0.9938345635294715,0
110,85.2,0.8027777777777771,0.8055555555555571,0.7944444444443661,1.0104895104896092,0.018862737802972665,0.8707605892280943,33.333333333333336,0.923076923051361,1.0139860139861159,0.0,0.9964030786396605,0
111,86.00555555555556,0.8055555555555571,0.75,0.7944444444443661,1.0139860139861159,0.018147812024241775,0.8377574695937877,30.555555555555557,0.8461538461304142,0.9440559440560371,0.0,0.9062653559859024,0
112,86.75555555555556,0.75,0.7638888888888857,0.7944444444443661,0.9440559440560371,0.01858347760265964,0.8578691002452912,33.333333333333336,0.923076923051361,0.9615384615385524,0.0,0.8951445159844436,0
113,87.51944444444445,0.7638888888888857,0.7888888888888914,0.7944444444443661,0.9615384615385524,0.01814957670586171,0.8378389325936568,30.555555555555557,0.8461538461304142,0.993006993007094,0.0,0.9034443927695898,0
114,88.30833333333334,0.7888888888888914,0.8055555555555571,0.7944444444443661,0.993006993007094,0.019297559541658557,0.8908332657049758,33.333333333333336,0.923076923051361,1.0139860139861159,0.0,0.9937518768907763,0
115,89.1138888888889,0.8055555555555571,0.8499999999999943,0.7944444444443661,1.0139860139861159,0.017567972431793952,0.8109903337489544,30.555555555555557,0.8461538461304142,1.0699300699301681,0.0,0.9944968279272979,0
116,89.96388888888889,0.8499999999999943,0.8194444444444429,0.7944444444443661,1.0699300699301681,0.018389471896998237,0.8489132146076978,30.555555555555557,0.8461538461304142,1.0314685314686312,0.0,0.900131276851845,0
117,90.78333333333333,0.8194444444444429,0.8305555555555628,0.7944444444443661,1.0314685314686312,0.018171779240321106,0.83886386822019,30.555555555555557,0.8461538461304142,1.0454545454546578,0.0,0.9102264625809302,0
118,91.6138888888889,0.8305555555555628,0.8861111111111057,0.7944444444443661,1.0454545454546578,0.01937596361493927,0.8944526330397132,33.333333333333336,0.923076923051361,1.1153846153847187,0.0,0.9894499021377656,0
119,92.5,0.8861111111111057,0.7916666666666714,0.7944444444443661,1.1153846153847187,0.018446697037501503,0.8515548988416498,30.555555555555557,0.8461538461304142,0.9965034965036007,0.0,0.8906979248203215,0
120,93.29166666666667,0.7916666666666714,0.7944444444444372,0.7944444444443661,0.9965034965036007,0.021582009029724864,0.9962903103327683,33.333333333333336,0.923076923051361,1.0000000000000895,0.0,0.9905226261063892,0
121,94.08611111111111,0.7944444444444372,0.7944444444444514,0.7944444444443661,1.0000000000000895,0.017496326367099403,0.8076829363731891,30.555555555555557,0.8461538461304142,1.0000000000001072,0.0,0.9923961478246057,0
122,94.88055555555556,0.7944444444444514,0.8138888888888829,0.7944444444443661,1.0000000000001072,0.01853967714620759,0.8558471397182973,33.333333333333336,0.923076923051361,1.0244755244756178,0.0,0.9959413750521653,0
123,95.69444444444444,0.8138888888888829,0.75277777777778,0.7944444444443661,1.0244755244756178,0.018969109454393222,0.8756710239081297,27.77777777777778,0.7692307692094675,0.9475524475525438,0.0,0.9097352604836991,0
124,96.44722222222222,0.75277777777778,0.8305555555555486,0.7944444444443661,0.9475524475525438,0.021439568912503627,0.9897148470200281,33.333333333333336,0.923076923051361,1.0454545454546398,0.0,0.9828653411924602,0
125,97.27777777777777,0.8305555555555486,0.8333333333333428,0.7944444444443661,1.0454545454546398,0.019535340297506667,0.9018099390401039,30.555555555555557,0.8461538461304142,1.0489510489511642,0.0,0.8665048744551203,0
126,98.11111111111111,0.8333333333333428,0.86388888888888,0.7944444444443661,1.0489510489511642,0.018001764663378116,0.8310154850881872,27.77777777777778,0.7692307692094675,1.0874125874126834,0.0,0.8815136806727853,0
127,98.975,0.86388888888888,0.88055555555556,0.7944444444443661,1.0874125874126834,0.019232930658327346,0.8878498024814256,27.77777777777778,0.7692307692094675,1.1083916083917231,0.0,0.8690724074620839,0
128,99.85555555555555,0.88055555555556,0.87222222222222,0.7944444444443661,1.1083916083917231,0.020834747916769585,0.9617944946234688,36.111111111111114,0.9999999999723078,1.0979020979022034,0.0,0.9928367293812363,0
129,100.72777777777777,0.87222222222222,0.875,0.7944444444443661,1.0979020979022034,0.0199616973045179,0.9214918580979047,36.111111111111114,0.9999999999723078,1.10139860139871,0.0,0.9948155282810772,0
130,101.60277777777777,0.875,0.875,0.7944444444443661,1.10139860139871,0.01943060228517005,0.8969749180431815,36.111111111111114,0.9999999999723078,1.10139860139871,0.0,0.9910356324057905,0
131,102.47777777777777,0.875,0.8166666666666771,0.7944444444443661,1.10139860139871,0.018325234840656884,0.8459478392939794,33.333333333333336,0.923076923051361,1.0279720279721425,0.0,0.9951215159795661,0
132,103.29444444444445,0.8166666666666771,0.8111111111111029,0.7944444444443661,1.0279720279721425,0.020183292122293004,0.9317213399531491,36.111111111111114,0.9999999999723078,1.0209790209791112,0.0,0.9962316648865943,0
133,104.10555555555555,0.8111111111111029,0.7972222222222172,0.7944444444443661,1.0209790209791112,0.023491376583796814,1.0844324471637579,38.888888888888886,1.0769230768932543,1.0034965034965961,0.0,0.9967620895634759,0
134,104.90277777777777,0.7972222222222172,0.8138888888888971,0.7944444444443661,1.0034965034965961,0.01889890736499767,0.8724302847659315,36.111111111111114,0.9999999999723078,1.0244755244756358,0.0,0.9970666960265979,0
135,105.71666666666667,0.8138888888888971,0.8305555555555486,0.7944444444443661,1.0244755244756358,0.022207507885594776,1.0251652148131214,38.888888888888886,1.0769230768932543,1.0454545454546398,0.0,0.9983079813738069,0
136,106.54722222222222,0.8305555555555486,0.8638888888888943,0.7944444444443661,1.0454545454546398,0.02243118372387391,1.0354907628205443,36.111111111111114,0.9999999999723078,1.0874125874127014,0.0,0.9972285145815767,0
137,107.41111111111111,0.8638888888888943,0.8611111111111143,0.7944444444443661,1.0874125874127014,0.01895369514017289,0.87495945290114,33.333333333333336,0.923076923051361,1.0839160839161948,0.0,0.9978703293158341,0
138,108.27222222222223,0.8611111111111143,0.8083333333333229,0.7944444444443661,1.0839160839161948,0.021738968536613695,1.00353603224923,36.111111111111114,0.9999999999723078,1.0174825174826048,0.0,0.9981055338219839,0
139,109.08055555555555,0.8083333333333229,0.7888888888888914,0.7944444444443661,1.0174825174826048,0.019103994322539633,0.8818977142482038,36.111111111111114,0.9999999999723078,0.993006993007094,0.0,0.9906753449669381,0
140,109.86944444444444,0.7888888888888914,0.7916666666666714,0.7944444444443661,0.993006993007094,0.020104093562190384,0.9280652967222399,36.111111111111114,0.9999999999723078,0.9965034965036007,0.0,0.9937622262604758,0
141,110.66111111111111,0.7916666666666714,0.7972222222222172,0.7944444444443661,0.9965034965036007,0.019270132531167425,0.8895671525847341,33.333333333333336,0.923076923051361,1.0034965034965961,0.0,0.99413880212268,0
142,111.45833333333333,0.7972222222222172,0.7722222222222257,0.7944444444443661,1.0034965034965961,0.020277112462522617,0.9360523684386876,36.111111111111114,0.9999999999723078,0.9720279720280722,0.0,0.9942762240992504,0
143,112.23055555555555,0.7722222222222257,0.7805555555555515,0.7944444444443661,0.9720279720280722,0.019011094167206467,0.8776091642592123,33.333333333333336,0.923076923051361,0.9825174825175742,0.0,0.9971595589594897,0
144,113.0111111111111,0.7805555555555515,0.7861111111111114,0.7944444444443661,0.9825174825175742,0.019591498506587098,0.9044023705174243,38.888888888888886,1.0769230768932543,0.9895104895105875,0.0,0.9981645762870494,0
145,113.79722222222222,0.7861111111111114,0.7666666666666657,0.7944444444443661,0.9895104895105875,0.020702140213252233,0.9556729250370668,36.111111111111114,0.9999999999723078,0.9650349650350589,0.0,0.9938894921031536,0
146,114.56388888888888,0.7666666666666657,0.8055555555555571,0.7944444444443661,0.9650349650350589,0.02285175931670303,1.0549057944480915,38.888888888888886,1.0769230768932543,1.0139860139861159,0.0,0.9911674374436047,0
147,115.36944444444444,0.8055555555555571,0.8277777777777828,0.7944444444443661,1.0139860139861159,0.031171135071368452,1.4389531480088635,72.22222222222223,1.9999999999446156,1.0419580419581511,0.0,0.9225266286592921,0
148,116.19722222222222,0.8277777777777828,0.8555555555555543,0.7944444444443661,1.0419580419581511,0.030562739362800247,1.4108677761391868,72.22222222222223,1.9999999999446156,1.0769230769231815,0.0,0.9281189349610013,0
149,117.05277777777778,0.8555555555555543,0.8333333333333286,0.7944444444443661,1.0769230769231815,0.030146296102238478,1.3916435053713618,72.22222222222223,1.9999999999446156,1.0489510489511464,0.0,0.9293665601806245,0
150,117.8861111111111,0.8333333333333286,0.8527777777777885,0.7944444444443661,1.0489510489511464,0.020614253716649968,0.9516158205824568,38.888888888888886,1.0769230768932543,1.0734265734266928,0.0,0.9949420993140476,0
151,118.7388888888889,0.8527777777777885,0.8861111111111057,0.7944444444443661,1.0734265734266928,0.021287234261569733,0.9826826223349059,36.111111111111114,0.9999999999723078,1.1153846153847187,0.0,0.9959768225674419,0
152,119.625,0.8861111111111057,0.8583333333333343,0.7944444444443661,1.1153846153847187,0.02059487359422921,0.9507211759664588,38.888888888888886,1.0769230768932543,1.080419580419688,0.0,0.9959723495014329,0
153,120.48333333333333,0.8583333333333343,0.8472222222222143,0.7944444444443661,1.080419580419688,0.019744655720490133,0.911472567177939,33.333333333333336,0.923076923051361,1.0664335664336617,0.0,0.9933976528551289,0
154,121.33055555555555,0.8472222222222143,0.7416666666666742,0.7944444444443661,1.0664335664336617,0.01838042707665849,0.8484956785548317,30.555555555555557,0.8461538461304142,0.9335664335665351,0.0,0.8996356727733537,0
155,122.07222222222222,0.7416666666666742,0.7583333333333258,0.7944444444443661,0.9335664335665351,0.021811934687564666,1.0069043687685322,33.333333333333336,0.923076923051361,0.9545454545455391,0.0,0.994889010575297,0
156,122.83055555555555,0.7583333333333258,0.7444444444444542,0.7944444444443661,0.9545454545455391,0.02186145836079736,1.0091905301590618,30.555555555555557,0.8461538461304142,0.9370629370630418,0.0,0.9908913353435355,0
157,123.575,0.7444444444444542,0.7749999999999915,0.7944444444443661,0.9370629370630418,0.02227451022224494,1.028258243765258,33.333333333333336,0.923076923051361,0.975524475524561,0.0,0.9944188367983682,0
158,124.35,0.7749999999999915,0.7638888888888999,0.7944444444443661,0.975524475524561,0.018113416989269902,0.836169691550565,30.555555555555557,0.8461538461304142,0.9615384615385703,0.0,0.9108145240189855,0
159,125.1138888888889,0.7638888888888999,0.7138888888888886,0.7944444444443661,0.9615384615385703,0.018618210630860894,0.8594724810703926,30.555555555555557,0.8461538461304142,0.8986013986014868,0.0,0.9074722906732531,0
160,125.82777777777778,0.7138888888888886,0.74722222222222,0.7944444444443661,0.8986013986014868,0.019354328632227014,0.8934538973052063,33.333333333333336,0.923076923051361,0.9405594405595304,0.0,0.9930325405689344,0
161,126.575,0.74722222222222,0.7555555555555458,0.7944444444443661,0.9405594405595304,0.018950534536933468,0.8748135499697722,36.111111111111114,0.9999999999723078,0.9510489510490325,0.0,0.994977004179611,0
162,127.33055555555555,0.7555555555555458,0.76111111111112,0.7944444444443661,0.9510489510490325,0.01884001386925224,0.86971158424681,33.333333333333336,0.923076923051361,0.9580419580420636,0.0,0.9976935605632657,0
163,128.09166666666667,0.76111111111112,0.7750000000000057,0.7944444444443661,0.9580419580420636,0.019705991980776667,0.9096877329122921,36.111111111111114,0.9999999999723078,0.9755244755245789,0.0,0.9913401962342308,0
164,128.86666666666667,0.7750000000000057,0.75555555555556,0.7944444444443661,0.9755244755245789,0.018772204131001415,0.8665812832135537,33.333333333333336,0.923076923051361,0.9510489510490504,0.0,0.9988279358325616,0
165,129.62222222222223,0.75555555555556,0.794444444444423,0.7944444444443661,0.9510489510490504,0.019017604169245323,0.8779096854916252,33.333333333333336,0.923076923051361,1.0000000000000715,0.0,0.9975133646449343,0
166,130.41666666666666,0.794444444444423,0.9250000000000114,0.7944444444443661,1.0000000000000715,0.02135473831703321,0.9857988121332606,38.888888888888886,1.0769230768932543,1.1643356643357934,0.0,0.9974027024099815,0
167,131.34166666666667,0.9250000000000114,0.8833333333333258,0.7944444444443661,1.1643356643357934,0.019790794091889757,0.913602452875636,27.77777777777778,0.7692307692094675,1.111888111888212,0.0,0.9318407022270714,0
168,132.225,0.8833333333333258,0.9250000000000114,0.7944444444443661,1.111888111888212,0.026707042514132317,1.232877237602311,61.111111111111114,1.6923076922608284,1.1643356643357934,0.0,0.9539126786822549,0
169,133.15,0.9250000000000114,0.8777777777777658,0.7944444444443661,1.1643356643357934,0.027012064370760723,1.246957961958419,61.111111111111114,1.6923076922608284,1.1048951048951987,0.0,0.9492007132559406,0
170,134.02777777777777,0.8777777777777658,0.8305555555555486,0.7944444444443661,1.1048951048951987,0.02774927457181728,1.2809897974089337,66.66666666666667,1.846153846102722,1.0454545454546398,0.0,0.9539314594285994,0
171,134.85833333333332,0.8305555555555486,0.8138888888888971,0.7944444444443661,1.0454545454546398,0.029190570636728187,1.3475243494895002,66.66666666666667,1.846153846102722,1.0244755244756358,0.0,0.939568803338964,0
172,135.67222222222222,0.8138888888888971,0.8222222222222229,0.7944444444443661,1.0244755244756358,0.02816708250844484,1.3002770657197225,61.111111111111114,1.6923076922608284,1.0349650349651378,0.0,0.9425229800380497,0
173,136.49444444444444,0.8222222222222229,0.8055555555555713,0.7944444444443661,1.0349650349651378,0.027868817651796097,1.2865082647622832,66.66666666666667,1.846153846102722,1.0139860139861339,0.0,0.9453756540028484,0
174,137.3,0.8055555555555713,0.7861111111110972,0.7944444444443661,1.0139860139861339,0.026874859264054456,1.2406241624427503,61.111111111111114,1.6923076922608284,0.9895104895105695,0.0,0.9464947768277756,0
175,138.0861111111111,0.7861111111110972,0.7916666666666572,0.7944444444443661,0.9895104895105695,0.027171986121496725,1.2543404299413712,58.333333333333336,1.6153846153398816,0.9965034965035828,0.0,0.9611093839532419,0
176,138.87777777777777,0.7916666666666572,0.7694444444444457,0.7944444444443661,0.9965034965035828,0.02792992518818296,1.2893291720423556,55.55555555555556,1.538461538418935,0.9685314685315656,0.0,0.9574486860274227,0
177,139.6472222222222,0.7694444444444457,0.7777777777777999,0.7944444444443661,0.9685314685315656,0.026075051395469655,1.2037026307863854,61.111111111111114,1.6923076922608284,0.9790209790211034,0.0,0.9611230639500913,0
178,140.425,0.7777777777777999,0.7972222222222172,0.7944444444443661,0.9790209790211034,0.02737520351960436,1.2637215549490952,61.111111111111114,1.6923076922608284,1.0034965034965961,0.0,0.9445635159504586,0
179,141.22222222222223,0.7972222222222172,0.8055555555555429,0.7944444444443661,1.0034965034965961,0.026126947468363287,1.2060983092654851,63.888888888888886,1.769230769181775,1.0139860139860981,0.0,0.9516658387249222,0
180,142.02777777777777,0.8055555555555429,0.8166666666666629,0.7944444444443661,1.0139860139860981,0.027038569117586862,1.2481815006199188,66.66666666666667,1.846153846102722,1.0279720279721245,0.0,0.9545288272960376,0
181,142.84444444444443,0.8166666666666629,0.8194444444444571,0.7944444444443661,1.0279720279721245,0.027910217749347443,1.2884194175182861,69.44444444444444,1.9230769230236686,1.0314685314686491,0.0,0.9508204671797409,0
182,143.6638888888889,0.8194444444444571,0.7972222222222172,0.7944444444443661,1.0314685314686491,0.027774853068854306,1.2821705776002388,66.66666666666667,1.846153846102722,1.0034965034965961,0.0,0.9415361008619718,0
183,144.4611111111111,0.7972222222222172,0.8055555555555713,0.7944444444443661,1.0034965034965961,0.026334032199338542,1.2156579619653036,58.333333333333336,1.6153846153398816,1.0139860139861339,0.0,0.9505711275705738,0
184,145.26666666666668,0.8055555555555713,0.8361111111111086,0.7944444444443661,1.0139860139861339,0.0301651130907159,1.3925121540344163,63.888888888888886,1.769230769181775,1.052447552447653,0.0,0.949317433682123,0
185,146.1027777777778,0.8361111111111086,0.8194444444444287,0.7944444444443661,1.052447552447653,0.026306246782503984,1.2143753037325737,61.111111111111114,1.6923076922608284,1.0314685314686132,0.0,0.9613761461312492,0
186,146.92222222222222,0.8194444444444287,0.7944444444444514,0.7944444444443661,1.0314685314686132,0.025761506106950778,1.1892284392330594,61.111111111111114,1.6923076922608284,1.0000000000001072,0.0,0.9540135975904763,0
187,147.71666666666667,0.7944444444444514,0.7805555555555657,0.7944444444443661,1.0000000000001072,0.026983206421432933,1.2456257924068377,61.111111111111114,1.6923076922608284,0.9825174825175921,0.0,0.9470347251225246,0
188,148.49722222222223,0.7805555555555657,0.7611111111110915,0.7944444444443661,0.9825174825175921,0.021382004916027382,0.9870575201773637,36.111111111111114,0.9999999999723078,0.9580419580420279,0.0,0.9937523174562293,0
189,149.25833333333333,0.7611111111110915,0.7666666666666799,0.7944444444443661,0.9580419580420279,0.026142657751128586,1.2068235430687932,63.888888888888886,1.769230769181775,0.9650349650350769,0.0,0.9548577447962343,0
190,150.025,0.7666666666666799,0.7416666666666742,0.7944444444443661,0.9650349650350769,0.022248868660528567,1.02707455231908,33.333333333333336,0.923076923051361,0.9335664335665351,0.0,0.9913356049650623,0
191,150.76666666666668,0.7416666666666742,0.7555555555555316,0.7944444444443661,0.9335664335665351,0.022350237158710203,1.0317540264297735,36.111111111111114,0.9999999999723078,0.9510489510490145,0.0,0.9978349045288986,0
192,151.5222222222222,0.7555555555555316,0.76111111111112,0.7944444444443661,0.9510489510490145,0.019651205320865568,0.9071586162610227,36.111111111111114,0.9999999999723078,0.9580419580420636,0.0,0.9935590518700583,0
193,152.28333333333333,0.76111111111112,0.7583333333333258,0.7944444444443661,0.9580419580420636,0.022284222871948565,1.0287066088258996,33.333333333333336,0.923076923051361,0.9545454545455391,0.0,0.9938318548768796,0
194,153.04166666666666,0.7583333333333258,0.7888888888888914,0.7944444444443661,0.9545454545455391,0.01973130801612218,0.9108563970841974,36.111111111111114,0.9999999999723078,0.993006993007094,0.0,0.9960754750282872,0
195,153.83055555555555,0.7888888888888914,0.8166666666666629,0.7944444444443661,0.993006993007094,0.02986840485887646,1.378815211550032,61.111111111111114,1.6923076922608284,1.0279720279721245,0.0,0.9529355653438045,0
196,154.6472222222222,0.8166666666666629,0.8083333333333371,0.7944444444443661,1.0279720279721245,0.030695480398222383,1.4169955007264794,69.44444444444444,1.9230769230236686,1.0174825174826225,0.0,0.9451528895273454,0
197,155.45555555555555,0.8083333333333371,0.76111111111112,0.7944444444443661,1.0174825174826225,0.027960593591546665,1.2907449175859032,58.333333333333336,1.6153846153398816,0.9580419580420636,0.0,0.9456881238802922,0
198,156.21666666666667,0.76111111111112,0.7527777777777658,0.7944444444443661,0.9580419580420636,0.02902775986739447,1.3400085157373411,58.333333333333336,1.6153846153398816,0.9475524475525259,0.0,0.9526829151140401,0
199,156.96944444444443,0.7527777777777658,0.7333333333333485,0.7944444444443661,0.9475524475525259,0.026501285513559864,1.2233788769227685,61.111111111111114,1.6923076922608284,0.9230769230770332,0.0,0.9525895602676939,0
200,157.70277777777778,0.7333333333333485,0.7361111111111143,0.7944444444443661,0.9230769230770332,0.026923725842706848,1.2428799903753325,66.66666666666667,1.846153846102722,0.9265734265735219,0.0,0.9396457371054423,0
201,158.4388888888889,0.7361111111111143,0.7249999999999943,0.7944444444443661,0.9265734265735219,0.025910656414351762,1.1961136650636153,58.333333333333336,1.6153846153398816,0.9125874125874954,0.0,0.9626804113663453,0
202,159.1638888888889,0.7249999999999943,0.7472222222222058,0.7944444444443661,0.9125874125874954,0.024017832646180366,1.1087352390422285,55.55555555555556,1.538461538418935,0.9405594405595126,0.0,0.9604358773819845,0
203,159.9111111111111,0.7472222222222058,0.7583333333333542,0.7944444444443661,0.9405594405595126,0.02668644189581952,1.231926251232894,58.333333333333336,1.6153846153398816,0.9545454545455749,0.0,0.9486716222368964,0
204,160.66944444444445,0.7583333333333542,0.7638888888888857,0.7944444444443661,0.9545454545455749,0.0222906782106968,1.029004606636758,36.111111111111114,0.9999999999723078,0.9615384615385524,0.0,0.9987702105497908,0
205,161.43333333333334,0.7638888888888857,0.7666666666666515,0.7944444444443661,0.9615384615385524,0.028851521384881795,1.3318728184445963,58.333333333333336,1.6153846153398816,0.965034965035041,0.0,0.9441809851766203,0
206,162.2,0.7666666666666515,0.75,0.7944444444443661,0.965034965035041,0.028915259024953538,1.3348151392044243,58.333333333333336,1.6153846153398816,0.9440559440560371,0.0,0.9556705480345395,0
207,162.95,0.75,0.7861111111111256,0.7944444444443661,0.9440559440560371,0.026346735106941552,1.2162443663051636,61.111111111111114,1.6923076922608284,0.9895104895106054,0.0,0.9550790332295461,0
208,163.73611111111111,0.7861111111111256,0.8166666666666629,0.7944444444443661,0.9895104895106054,0.029283875654270434,1.3518315891331654,63.888888888888886,1.769230769181775,1.0279720279721245,0.0,0.9500422718496571,0
209,164.55277777777778,0.8166666666666629,0.7861111111111256,0.7944444444443661,1.0279720279721245,0.029965522617896957,1.3832984587834147,66.66666666666667,1.846153846102722,0.9895104895106054,0.0,0.9420527638204136,0
210,165.3388888888889,0.7861111111111256,0.7527777777777658,0.7944444444443661,0.9895104895106054,0.01841638773666818,0.8501557305486698,33.333333333333336,0.923076923051361,0.9475524475525259,0.0,0.9952086946170455,0
211,166.09166666666667,0.7527777777777658,0.7055555555555486,0.7944444444443661,0.9475524475525259,0.01806816020959076,0.8340805027725836,30.555555555555557,0.8461538461304142,0.888111888111967,0.0,0.994741915975583,0
212,166.79722222222222,0.7055555555555486,0.6916666666666629,0.7944444444443661,0.888111888111967,0.019092431659359567,0.8813639470130926,33.333333333333336,0.923076923051361,0.8706293706294517,0.0,0.9953328518027338,0
213,167.48888888888888,0.6916666666666629,0.6722222222222172,0.7944444444443661,0.8706293706294517,0.01903128544506256,0.878541254244605,33.333333333333336,0.923076923051361,0.8461538461539232,0.0,0.9947761130347873,0
214,168.1611111111111,0.6722222222222172,0.6611111111111256,0.7944444444443661,0.8461538461539232,0.018906334924943754,0.8727731632251846,33.333333333333336,0.923076923051361,0.8321678321679324,0.0,0.9966160569768093,0
215,168.82222222222222,0.6611111111111256,0.6694444444444514,0.7944444444443661,0.8321678321679324,0.02040375729279635,0.9418986738999483,36.111111111111114,0.9999999999723078,0.8426573426574345,0.0,0.9939137708734124,0
216,169.49166666666667,0.6694444444444514,0.6861111111111029,0.7944444444443661,0.8426573426574345,0.02166719089012293,1.0002225606628383,33.333333333333336,0.923076923051361,0.8636363636364385,0.0,0.9942926260623548,0
217,170.17777777777778,0.6861111111111029,0.6722222222222172,0.7944444444443661,0.8636363636364385,0.018721182110473696,0.8642259536149349,33.333333333333336,0.923076923051361,0.8461538461539232,0.0,0.9973465450385393,0
218,170.85,0.6722222222222172,0.6861111111111029,0.7944444444443661,0.8461538461539232,0.018562101708582378,0.8568823248197716,33.333333333333336,0.923076923051361,0.8636363636364385,0.0,0.9968912133032779,0
219,171.5361111111111,0.6861111111111029,0.6833333333333371,0.7944444444443661,0.8636363636364385,0.02127745552216005,0.9822312063750793,36.111111111111114,0.9999999999723078,0.8601398601399497,0.0,0.9977965542487239,0
220,172.21944444444443,0.6833333333333371,0.7416666666666742,0.7944444444443661,0.8601398601399497,0.018806848158430495,0.8681805554958957,36.111111111111114,0.9999999999723078,0.9335664335665351,0.0,0.9868493667249043,0
221,172.9611111111111,0.7416666666666742,0.6944444444444571,0.7944444444443661,0.9335664335665351,0.01998952517687983,0.9227764762051988,33.333333333333336,0.923076923051361,0.8741258741259762,0.0,0.914668823688478,0
222,173.65555555555557,0.6944444444444571,0.6972222222222229,0.7944444444443661,0.8741258741259762,0.023124687244931295,1.067504966746579,33.333333333333336,0.923076923051361,0.877622377622465,0.0,0.9966001639765284,0
223,174.3527777777778,0.6972222222222229,0.7055555555555486,0.7944444444443661,0.877622377622465,0.025414214643349493,1.1731964229564145,58.333333333333336,1.6153846153398816,0.888111888111967,0.0,0.9604382321520635,0
224,175.05833333333334,0.7055555555555486,0.6833333333333371,0.7944444444443661,0.888111888111967,0.02491828854301249,1.1503029857547913,55.55555555555556,1.538461538418935,0.8601398601399497,0.0,0.955129407079186,0
225,175.74166666666667,0.6833333333333371,0.674999999999983,0.7944444444443661,0.8601398601399497,0.027165289214748513,1.2540312806266223,52.77777777777778,1.4615384614979883,0.849650349650412,0.0,0.961286394350336,0
226,176.41666666666666,0.674999999999983,0.6972222222222229,0.7944444444443661,0.849650349650412,0.027925161795880497,1.2891092795574288,63.888888888888886,1.769230769181775,0.877622377622465,0.0,0.9494156441720414,0
227,177.11388888888888,0.6972222222222229,0.6694444444444514,0.7944444444443661,0.877622377622465,0.02871235189550731,1.3254483371293124,55.55555555555556,1.538461538418935,0.8426573426574345,0.0,0.9434734934955177,0
228,177.78333333333333,0.6694444444444514,0.6861111111111029,0.7944444444443661,0.8426573426574345,0.028656170844847166,1.3228548512161185,63.888888888888886,1.769230769181775,0.8636363636364385,0.0,0.9366618806296749,0
229,178.46944444444443,0.6861111111111029,0.6861111111111313,0.7944444444443661,0.8636363636364385,0.029245558226315034,1.3500627416576472,66.66666666666667,1.846153846102722,0.8636363636364742,0.0,0.934687160264572,0
230,179.15555555555557,0.6861111111111313,0.6583333333333314,0.7944444444443661,0.8636363636364742,0.027642567272327435,1.2760638682066483,58.333333333333336,1.6153846153398816,0.828671328671408,0.0,0.9464913285276546,0
231,179.8138888888889,0.6583333333333314,0.6638888888888914,0.7944444444443661,0.828671328671408,0.02109008268904715,0.973581514041392,36.111111111111114,0.9999999999723078,0.8356643356644212,0.0,0.9919259248110033,0
232,180.4777777777778,0.6638888888888914,0.6499999999999773,0.7944444444443661,0.8356643356644212,0.028828240711447305,1.3307981126871824,61.111111111111114,1.6923076922608284,0.8181818181818702,0.0,0.9430582552383749,0
233,181.12777777777777,0.6499999999999773,0.6388888888889142,0.7944444444443661,0.8181818181818702,0.026804391056468712,1.2373711384861994,55.55555555555556,1.538461538418935,0.8041958041959153,0.0,0.9561137274845306,0
234,181.76666666666668,0.6388888888889142,0.6555555555555372,0.7944444444443661,0.8041958041959153,0.0220088739812385,1.0159956776332806,33.333333333333336,0.923076923051361,0.8251748251748835,0.0,0.9940178935747442,0
235,182.42222222222222,0.6555555555555372,0.63611111111112,0.7944444444443661,0.8251748251748835,0.020642968717694107,0.9529413912122378,38.888888888888886,1.0769230768932543,0.8006993006993908,0.0,0.9914476786422284,0
236,183.05833333333334,0.63611111111112,0.6583333333333314,0.7944444444443661,0.8006993006993908,0.020913588277368098,0.9654340022902136,36.111111111111114,0.9999999999723078,0.828671328671408,0.0,0.9919051419735889,0
237,183.71666666666667,0.6583333333333314,0.6055555555555543,0.7944444444443661,0.828671328671408,0.02183081973403777,1.0077761591929277,36.111111111111114,0.9999999999723078,0.7622377622378358,0.0,0.8950542840636855,0
238,184.32222222222222,0.6055555555555543,0.5805555555555486,0.7944444444443661,0.7622377622378358,0.020099180870139996,0.9278385121128595,36.111111111111114,0.9999999999723078,0.730769230769294,0.0,0.8997666559492978,0
239,184.90277777777777,0.5805555555555486,0.6055555555555543,0.7944444444443661,0.730769230769294,0.019879036187819582,0.9176759728624573,38.888888888888886,1.0769230768932543,0.7622377622378358,0.0,0.9936240137641206,0
240,185.50833333333333,0.6055555555555543,0.6722222222222172,0.7944444444443661,0.7622377622378358,0.022541195728969027,1.040569247151896,33.333333333333336,0.923076923051361,0.8461538461539232,0.0,0.9968686975519708,0
241,186.18055555555554,0.6722222222222172,0.6444444444444457,0.7944444444443661,0.8461538461539232,0.018102438845166675,0.8356629074703424,33.333333333333336,0.923076923051361,0.8111888111888927,0.0,0.9150509448558477,0
242,186.825,0.6444444444444457,0.7222222222222285,0.7944444444443661,0.8111888111888927,0.02160208551571481,0.9972171011810979,36.111111111111114,0.9999999999723078,0.9090909090910066,0.0,0.9976020133467025,0
243,187.54722222222222,0.7222222222222285,0.7777777777777715,0.7944444444443661,0.9090909090910066,0.01980752108270356,0.9143746209738824,36.111111111111114,0.9999999999723078,0.9790209790210676,0.0,0.9953595884344337,0
244,188.325,0.7777777777777715,0.8027777777777771,0.7944444444443661,0.9790209790210676,0.024742054958979565,1.1421675145905732,52.77777777777778,1.4615384614979883,1.0104895104896092,0.0,0.9582116662547602,0
245,189.12777777777777,0.8027777777777771,0.7361111111111143,0.7944444444443661,1.0104895104896092,0.018725264095902888,0.8644143903135029,33.333333333333336,0.923076923051361,0.9265734265735219,0.0,0.9000809502935394,0
246,189.86388888888888,0.7361111111111143,0.7388888888889085,0.7944444444443661,0.9265734265735219,0.019801326644106068,0.9140886670970152,33.333333333333336,0.923076923051361,0.9300699300700465,0.0,0.9943744843186586,0
247,190.6027777777778,0.7388888888889085,0.6805555555555429,0.7944444444443661,0.9300699300700465,0.019204811347693196,0.8865517307087998,33.333333333333336,0.923076923051361,0.8566433566434252,0.0,0.916101694645852,0
248,191.28333333333333,0.6805555555555429,0.6805555555555713,0.7944444444443661,0.8566433566434252,0.02134652632464122,0.9854197219180078,33.333333333333336,0.923076923051361,0.8566433566434609,0.0,0.9890550793268844,0
249,191.9638888888889,0.6805555555555713,0.6666666666666572,0.7944444444443661,0.8566433566434609,0.0197773856155713,0.912983477366266,30.555555555555557,0.8461538461304142,0.83916083916091,0.0,0.9965830654838945,0
250,192.63055555555556,0.6666666666666572,0.6416666666666515,0.7944444444443661,0.83916083916091,0.021210586393411588,0.9791443266994787,33.333333333333336,0.923076923051361,0.8076923076923682,0.0,0.8835648538011991,0
251,193.2722222222222,0.6416666666666515,0.5972222222222285,0.7944444444443661,0.8076923076923682,0.018749470315727844,0.8655318220701189,33.333333333333336,0.923076923051361,0.7517482517483338,0.0,0.9175064662574861,0
252,193.86944444444444,0.5972222222222285,0.6527777777777715,0.7944444444443661,0.7517482517483338,0.022977906289041082,1.060729117292833,30.555555555555557,0.8461538461304142,0.8216783216783947,0.0,0.9950133849809986,0
253,194.5222222222222,0.6527777777777715,0.6500000000000057,0.7944444444443661,0.8216783216783947,0.017465561305137246,0.806262728778638,30.555555555555557,0.8461538461304142,0.8181818181819059,0.0,0.923340966277894,0
254,195.17222222222222,0.6500000000000057,0.63611111111112,0.7944444444443661,0.8181818181819059,0.01903489165616887,0.8787077277724996,30.555555555555557,0.8461538461304142,0.8006993006993908,0.0,0.887137597363062,0
255,195.80833333333334,0.63611111111112,0.7055555555555486,0.7944444444443661,0.8006993006993908,0.0193346137513173,0.8925437992326561,33.333333333333336,0.923076923051361,0.888111888111967,0.0,0.9976088218158695,0
256,196.51388888888889,0.7055555555555486,0.7027777777777828,0.7944444444443661,0.888111888111967,0.01878339939515932,0.8670980902071368,33.333333333333336,0.923076923051361,0.8846153846154782,0.0,0.9152523460580966,0
257,197.21666666666667,0.7027777777777828,0.7277777777777885,0.7944444444443661,0.8846153846154782,0.01999407429555275,0.9229864771762919,36.111111111111114,0.9999999999723078,0.91608391608402,0.0,0.993314458243227,0
258,197.94444444444446,0.7277777777777885,0.7249999999999943,0.7944444444443661,0.91608391608402,0.019251659026586876,0.8887143601692485,36.111111111111114,0.9999999999723078,0.9125874125874954,0.0,0.9944986768339763,0
259,198.66944444444445,0.7249999999999943,0.75,0.7944444444443661,0.9125874125874954,0.020896439951004583,0.9646423840784493,36.111111111111114,0.9999999999723078,0.9440559440560371,0.0,0.9969714567415475,0
260,199.41944444444445,0.75,0.7611111111110915,0.7944444444443661,0.9440559440560371,0.01850070455106363,0.854048047759019,33.333333333333336,0.923076923051361,0.9580419580420279,0.0,0.9218727885981755,0
261,200.18055555555554,0.7611111111110915,0.7472222222222342,0.7944444444443661,0.9580419580420279,0.019407233768454702,0.8958961571762816,33.333333333333336,0.923076923051361,0.9405594405595484,0.0,0.8987152382993082,0
262,200.92777777777778,0.7472222222222342,0.7111111111111086,0.7944444444443661,0.9405594405595484,0.01949703940554604,0.9000418549157334,33.333333333333336,0.923076923051361,0.8951048951049801,0.0,0.8846866213552871,0
263,201.63888888888889,0.7111111111111086,0.7249999999999943,0.7944444444443661,0.8951048951049801,0.018115744617195905,0.8362771418414783,30.555555555555557,0.8461538461304142,0.9125874125874954,0.0,0.8730580821544497,0
264,202.36388888888888,0.7249999999999943,0.6972222222222229,0.7944444444443661,0.9125874125874954,0.017911319582009824,0.8268402686817636,33.333333333333336,0.923076923051361,0.877622377622465,0.0,0.9010017951032341,0
265,203.0611111111111,0.6972222222222229,0.6972222222222229,0.7944444444443661,0.877622377622465,0.018184966644184952,0.8394726383615564,30.555555555555557,0.8461538461304142,0.877622377622465,0.0,0.8931322299617832,0
266,203.75833333333333,0.6972222222222229,0.700000000000017,0.7944444444443661,0.877622377622465,0.019207061120204778,0.8866555869601179,33.333333333333336,0.923076923051361,0.8811188811189894,0.0,0.8691231683313136,0
267,204.45833333333334,0.700000000000017,0.6972222222222229,0.7944444444443661,0.8811188811189894,0.019254603590449865,0.8888502900746068,33.333333333333336,0.923076923051361,0.877622377622465,0.0,0.8568384431229891,0
268,205.15555555555557,0.6972222222222229,0.7305555555555543,0.7944444444443661,0.877622377622465,0.01899959043468222,0.8770781174400408,30.555555555555557,0.8461538461304142,0.9195804195805086,0.0,0.8754916356383697,0
269,205.88611111111112,0.7305555555555543,0.7527777777777658,0.7944444444443661,0.9195804195805086,0.020013731012703734,0.9238938902351737,38.888888888888886,1.0769230768932543,0.9475524475525259,0.0,0.8736235590869688,0
270,206.63888888888889,0.7527777777777658,0.7305555555555543,0.7944444444443661,0.9475524475525259,0.01946121535533677,0.8983881092402862,33.333333333333336,0.923076923051361,0.9195804195805086,0.0,0.8986907238486785,0
271,207.36944444444444,0.7305555555555543,0.7222222222222285,0.7944444444443661,0.9195804195805086,0.019892540401587878,0.9182993678998462,33.333333333333336,0.923076923051361,0.9090909090910066,0.0,0.9145796393068955,0
272,208.09166666666667,0.7222222222222285,0.6972222222222229,0.7944444444443661,0.9090909090910066,0.020304697573995795,0.937325779974765,33.333333333333336,0.923076923051361,0.877622377622465,0.0,0.916884583857523,0
273,208.7888888888889,0.6972222222222229,0.7361111111111143,0.7944444444443661,0.877622377622465,0.02192196835987097,1.0119838533233811,36.111111111111114,0.9999999999723078,0.9265734265735219,0.0,0.9958839576692629,0
274,209.525,0.7361111111111143,0.7361111111111143,0.7944444444443661,0.9265734265735219,0.021184090830958638,0.9779212120162102,38.888888888888886,1.0769230768932543,0.9265734265735219,0.0,0.9922779527129661,0
275,210.26111111111112,0.7361111111111143,0.7222222222222001,0.7944444444443661,0.9265734265735219,0.018550451735458832,0.8563445270956284,33.333333333333336,0.923076923051361,0.9090909090909709,0.0,0.9961908596324313,0
276,210.98333333333332,0.7222222222222001,0.7305555555555827,0.7944444444443661,0.9090909090909709,0.024461287213575336,1.1292064328018045,30.555555555555557,0.8461538461304142,0.9195804195805444,0.0,0.9937402712004656,0
277,211.7138888888889,0.7305555555555827,0.7361111111110858,0.7944444444443661,0.9195804195805444,0.0186475959827325,0.8608289971062758,33.333333333333336,0.923076923051361,0.9265734265734861,0.0,0.9930517048656717,0
278,212.45,0.7361111111110858,0.7194444444444628,0.7944444444443661,0.9265734265734861,0.018527819989912632,0.8552997777971483,33.333333333333336,0.923076923051361,0.9055944055945179,0.0,0.9933483851398051,0
279,213.16944444444445,0.7194444444444628,0.6944444444444287,0.7944444444443661,0.9055944055945179,0.02577569896551621,1.1898836241810957,55.55555555555556,1.538461538418935,0.8741258741259404,0.0,0.9596503282406318,0
280,213.86388888888888,0.6944444444444287,0.700000000000017,0.7944444444443661,0.8741258741259404,0.02547298299139014,1.1759093462818806,58.333333333333336,1.6153846153398816,0.8811188811189894,0.0,0.9546909002014772,0
281,214.5638888888889,0.700000000000017,0.6833333333333371,0.7944444444443661,0.8811188811189894,0.02438030573633112,1.1254680847646163,47.22222222222222,1.3076923076560947,0.8601398601399497,0.0,0.9684430786266569,0
282,215.24722222222223,0.6833333333333371,0.6722222222222172,0.7944444444443661,0.8601398601399497,0.025241364345725905,1.1652171344470208,55.55555555555556,1.538461538418935,0.8461538461539232,0.0,0.9544269423725894,0
283,215.91944444444445,0.6722222222222172,0.6555555555555372,0.7944444444443661,0.8461538461539232,0.02549785638742055,1.1770575768945188,55.55555555555556,1.538461538418935,0.8251748251748835,0.0,0.9550091719748497,0
284,216.575,0.6555555555555372,0.6388888888889142,0.7944444444443661,0.8251748251748835,0.024561701029335376,1.1338418359066536,50.0,1.3846153845770415,0.8041958041959153,0.0,0.9686497742376249,0
285,217.2138888888889,0.6388888888889142,0.6444444444444173,0.7944444444443661,0.8041958041959153,0.027105659483814055,1.251278593281532,52.77777777777778,1.4615384614979883,0.811188811188857,0.0,0.9589764805893914,0
286,217.85833333333332,0.6444444444444173,0.6555555555555657,0.7944444444443661,0.811188811188857,0.025292034302406192,1.167556211721802,58.333333333333336,1.6153846153398816,0.8251748251749192,0.0,0.9564208696809999,0
287,218.51388888888889,0.6555555555555657,0.6694444444444514,0.7944444444443661,0.8251748251749192,0.02460545025643446,1.1358614315329614,55.55555555555556,1.538461538418935,0.8426573426574345,0.0,0.9627373922300031,0
288,219.18333333333334,0.6694444444444514,0.674999999999983,0.7944444444443661,0.8426573426574345,0.027052605857522397,1.2488294786634444,55.55555555555556,1.538461538418935,0.849650349650412,0.0,0.9464531765428319,0
289,219.85833333333332,0.674999999999983,0.700000000000017,0.7944444444443661,0.849650349650412,0.025961688135744464,1.1984694424832767,52.77777777777778,1.4615384614979883,0.8811188811189894,0.0,0.9624779028306221,0
290,220.55833333333334,0.700000000000017,0.6861111111111029,0.7944444444443661,0.8811188811189894,0.024849015184770566,1.1471051196300213,58.333333333333336,1.6153846153398816,0.8636363636364385,0.0,0.9565553025279099,0
291,221.24444444444444,0.6861111111111029,0.7055555555555486,0.7944444444443661,0.8636363636364385,0.026466579820312034,1.221776757961157,50.0,1.3846153845770415,0.888111888111967,0.0,0.9674671305331708,0
292,221.95,0.7055555555555486,0.7166666666666686,0.7944444444443661,0.888111888111967,0.025258943636566156,1.1660286472724737,50.0,1.3846153845770415,0.9020979020979935,0.0,0.9645220730816368,0
293,222.66666666666666,0.7166666666666686,0.7250000000000227,0.7944444444443661,0.9020979020979935,0.025228639206822855,1.1646297038436286,52.77777777777778,1.4615384614979883,0.9125874125875312,0.0,0.9595535317314844,0
294,223.39166666666668,0.7250000000000227,0.7083333333333144,0.7944444444443661,0.9125874125875312,0.02596549560998183,1.1986452069213465,52.77777777777778,1.4615384614979883,0.8916083916084556,0.0,0.9602131625460679,0
295,224.1,0.7083333333333144,0.7166666666666686,0.7944444444443661,0.8916083916084556,0.025512293578694285,1.1777240409736802,55.55555555555556,1.538461538418935,0.9020979020979935,0.0,0.9566545207918129,0
296,224.81666666666666,0.7166666666666686,0.6861111111111029,0.7944444444443661,0.9020979020979935,0.024205636691410817,1.1174048374214476,50.0,1.3846153845770415,0.8636363636364385,0.0,0.9659150359543864,0
297,225.50277777777777,0.6861111111111029,0.6944444444444571,0.7944444444443661,0.8636363636364385,0.025298828803740063,1.167869866295533,52.77777777777778,1.4615384614979883,0.8741258741259762,0.0,0.9640068235678996,0
298,226.19722222222222,0.6944444444444571,0.6805555555555429,0.7944444444443661,0.8741258741259762,0.025266150148860817,1.1663613215087127,50.0,1.3846153845770415,0.8566433566434252,0.0,0.9581154680935382,0
299,226.87777777777777,0.6805555555555429,0.6694444444444514,0.7944444444443661,0.8566433566434252,0.025717458077393368,1.1871950499884873,55.55555555555556,1.538461538418935,0.8426573426574345,0.0,0.9514012972210271,0
300,227.54722222222222,0.6694444444444514,0.6833333333333371,0.7944444444443661,0.8426573426574345,0.027822629896624082,1.2843760993614384,58.333333333333336,1.6153846153398816,0.8601398601399497,0.0,0.959004213490921,0
301,228.23055555555555,0.6833333333333371,0.6750000000000114,0.7944444444443661,0.8601398601399497,0.026794719081303254,1.236924651084315,55.55555555555556,1.538461538418935,0.8496503496504477,0.0,0.9604730340587904,0
302,228.90555555555557,0.6750000000000114,0.6166666666666458,0.7944444444443661,0.8496503496504477,0.019165662584549825,0.8847445063059403,33.333333333333336,0.923076923051361,0.7762237762238265,0.0,0.9061092377150359,0
303,229.5222222222222,0.6166666666666458,0.6555555555555657,0.7944444444443661,0.7762237762238265,0.019031032082551958,0.8785295582707053,33.333333333333336,0.923076923051361,0.8251748251749192,0.0,0.9986107712211467,0
304,230.17777777777778,0.6555555555555657,0.6277777777777658,0.7944444444443661,0.8251748251749192,0.018599442025217107,0.8586060659041489,33.333333333333336,0.923076923051361,0.790209790209853,0.0,0.914619421145728,0
305,230.80555555555554,0.6277777777777658,0.6916666666666913,0.7944444444443661,0.790209790209853,0.02186354351651844,1.0092867872052702,36.111111111111114,0.9999999999723078,0.8706293706294874,0.0,0.987319328408881,0
306,231.49722222222223,0.6916666666666913,0.6944444444444287,0.7944444444443661,0.8706293706294874,0.02166250117775446,1.0000060694647985,36.111111111111114,0.9999999999723078,0.8741258741259404,0.0,0.996312116570851,0
307,232.19166666666666,0.6944444444444287,0.7222222222222285,0.7944444444443661,0.8741258741259404,0.019263401223594857,0.8892564152246866,33.333333333333336,0.923076923051361,0.9090909090910066,0.0,0.9953576242712284,0
308,232.9138888888889,0.7222222222222285,0.7222222222222285,0.7944444444443661,0.9090909090910066,0.023243386349497592,1.0729844736618852,47.22222222222222,1.3076923076560947,0.9090909090910066,0.0,0.9713617572009927,0
309,233.63611111111112,0.7222222222222285,0.7138888888888744,0.7944444444443661,0.9090909090910066,0.026230732353129324,1.2108893310331525,55.55555555555556,1.538461538418935,0.8986013986014689,0.0,0.9514245441236988,0
310,234.35,0.7138888888888744,0.6861111111111029,0.7944444444443661,0.8986013986014689,0.028431232382430793,1.3124710166890396,55.55555555555556,1.538461538418935,0.8636363636364385,0.0,0.958252258933931,0
311,235.0361111111111,0.6861111111111029,0.6666666666666856,0.7944444444443661,0.8636363636364385,0.027424975318528888,1.266019170566253,63.888888888888886,1.769230769181775,0.8391608391609457,0.0,0.9468717229772087,0
312,235.70277777777778,0.6666666666666856,0.6916666666666629,0.7944444444443661,0.8391608391609457,0.029144249347455905,1.3453860197538146,55.55555555555556,1.538461538418935,0.8706293706294517,0.0,0.9558268646018444,0
313,236.39444444444445,0.6916666666666629,0.6833333333333371,0.7944444444443661,0.8706293706294517,0.025520691145816538,1.1781116978754425,52.77777777777778,1.4615384614979883,0.8601398601399497,0.0,0.9637457751252367,0
314,237.07777777777778,0.6833333333333371,0.6666666666666572,0.7944444444443661,0.8601398601399497,0.022804925786131268,1.0527438181166453,36.111111111111114,0.9999999999723078,0.83916083916091,0.0,0.995491643497971,0
315,237.74444444444444,0.6666666666666572,0.6750000000000114,0.7944444444443661,0.83916083916091,0.024976403048744003,1.1529857257569078,55.55555555555556,1.538461538418935,0.8496503496504477,0.0,0.9661811193779843,0
316,238.41944444444445,0.6750000000000114,0.6777777777777771,0.7944444444443661,0.8496503496504477,0.02792409096735999,1.2890598468990726,58.333333333333336,1.6153846153398816,0.8531468531469365,0.0,0.9537281353745792,0
317,239.09722222222223,0.6777777777777771,0.7277777777777601,0.7944444444443661,0.8531468531469365,0.023378346859252913,1.079214655845648,52.77777777777778,1.4615384614979883,0.9160839160839841,0.0,0.9733949991161002,0
318,239.825,0.7277777777777601,0.7444444444444684,0.7944444444443661,0.9160839160839841,0.025245563201127023,1.1654109662142516,52.77777777777778,1.4615384614979883,0.9370629370630597,0.0,0.9573370634367275,0
319,240.56944444444446,0.7444444444444684,0.6944444444444287,0.7944444444443661,0.9370629370630597,0.02697117508929574,1.2450703900060618,61.111111111111114,1.6923076922608284,0.8741258741259404,0.0,0.9509076217801584,0
320,241.26388888888889,0.6944444444444287,0.6916666666666629,0.7944444444443661,0.8741258741259404,0.02467868279149547,1.1392420651422746,52.77777777777778,1.4615384614979883,0.8706293706294517,0.0,0.9599329949586244,0
321,241.95555555555555,0.6916666666666629,0.6888888888888971,0.7944444444443661,0.8706293706294517,0.019717449911298014,0.9102166653735454,33.333333333333336,0.923076923051361,0.867132867132963,0.0,0.9978567208319138,0
322,242.64444444444445,0.6888888888888971,0.6916666666666629,0.7944444444443661,0.867132867132963,0.02061408519619822,0.9516080411726281,38.888888888888886,1.0769230768932543,0.8706293706294517,0.0,0.9904637751005101,0
323,243.3361111111111,0.6916666666666629,0.6861111111111029,0.7944444444443661,0.8706293706294517,0.021402542632894817,0.9880056028272783,36.111111111111114,0.9999999999723078,0.8636363636364385,0.0,0.9950800411119021,0
324,244.0222222222222,0.6861111111111029,0.6805555555555713,0.7944444444443661,0.8636363636364385,0.02224797724712438,1.0270334020009668,38.888888888888886,1.0769230768932543,0.8566433566434609,0.0,0.9886079937467254,0
325,244.70277777777778,0.6805555555555713,0.6861111111111029,0.7944444444443661,0.8566433566434609,0.029541504555002117,1.3637245124058386,63.888888888888886,1.769230769181775,0.8636363636364385,0.0,0.9368082829951045,0
326,245.38888888888889,0.6861111111111029,0.6944444444444571,0.7944444444443661,0.8636363636364385,0.029011175089540934,1.339242912616161,58.333333333333336,1.6153846153398816,0.8741258741259762,0.0,0.9437430676895598,0
327,246.08333333333334,0.6944444444444571,0.6805555555555429,0.7944444444443661,0.8741258741259762,0.03130907199036513,1.4453207301762268,72.22222222222223,1.9999999999446156,0.8566433566434252,0.0,0.9276148800403592,0
328,246.76388888888889,0.6805555555555429,0.6861111111111029,0.7944444444443661,0.8566433566434252,0.02910520628524542,1.3435836748232546,58.333333333333336,1.6153846153398816,0.8636363636364385,0.0,0.9346484812752507,0
329,247.45,0.6861111111111029,0.6861111111111313,0.7944444444443661,0.8636363636364385,0.029929308774925632,1.3816267191041962,66.66666666666667,1.846153846102722,0.8636363636364742,0.0,0.9394478450485334,0
330,248.13611111111112,0.6861111111111313,0.7249999999999943,0.7944444444443661,0.8636363636364742,0.028493602659748794,1.3153502158803247,58.333333333333336,1.6153846153398816,0.9125874125874954,0.0,0.9375924344262384,0
331,248.86111111111111,0.7249999999999943,0.76111111111112,0.7944444444443661,0.9125874125874954,0.029303656580797335,1.3527447360696259,61.111111111111114,1.6923076922608284,0.9580419580420636,0.0,0.9364177878850856,0
332,249.62222222222223,0.76111111111112,0.7222222222222001,0.7944444444443661,0.9580419580420636,0.026415800914793956,1.219432651281038,66.66666666666667,1.846153846102722,0.9090909090909709,0.0,0.9560729706428528,0
333,250.34444444444443,0.7222222222222001,0.7361111111111143,0.7944444444443661,0.9090909090909709,0.027009077477933553,1.2468200780210335,55.55555555555556,1.538461538418935,0.9265734265735219,0.0,0.9531385326214235,0
334,251.08055555555555,0.7361111111111143,0.7722222222222399,0.7944444444443661,0.9265734265735219,0.02304058174014091,1.0636224042217974,44.44444444444444,1.2307692307351479,0.9720279720280901,0.0,0.9687223081495075,0
335,251.8527777777778,0.7722222222222399,0.7083333333333144,0.7944444444443661,0.9720279720280901,0.02474213669410536,1.1421712877292896,52.77777777777778,1.4615384614979883,0.8916083916084556,0.0,0.9642346932283645,0
336,252.5611111111111,0.7083333333333144,0.7027777777777828,0.7944444444443661,0.8916083916084556,0.025982012044671935,1.1994076551169863,50.0,1.3846153845770415,0.8846153846154782,0.0,0.955020140425953,0
337,253.26388888888889,0.7027777777777828,0.6972222222222229,0.7944444444443661,0.8846153846154782,0.02446033605765459,1.1291625245898234,52.77777777777778,1.4615384614979883,0.877622377622465,0.0,0.9627435022286965,0
338,253.9611111111111,0.6972222222222229,0.7194444444444343,0.7944444444443661,0.877622377622465,0.026057499366381496,1.202892376445229,50.0,1.3846153845770415,0.9055944055944821,0.0,0.9563290436454701,0
339,254.68055555555554,0.7194444444444343,0.7583333333333542,0.7944444444443661,0.9055944055944821,0.028554471079211496,1.3181600848055224,58.333333333333336,1.6153846153398816,0.9545454545455749,0.0,0.9591042526442172,0
340,255.4388888888889,0.7583333333333542,0.7527777777777658,0.7944444444443661,0.9545454545455749,0.01942488163780303,0.8967108357914902,33.333333333333336,0.923076923051361,0.9475524475525259,0.0,0.9982627933994517,0
341,256.19166666666666,0.7527777777777658,0.7194444444444343,0.7944444444443661,0.9475524475525259,0.01830894468044286,0.8451958366072673,33.333333333333336,0.923076923051361,0.9055944055944821,0.0,0.9940417720040237,0
342,256.9111111111111,0.7194444444444343,0.7027777777777828,0.7944444444443661,0.9055944055944821,0.018388355445196916,0.8488616758417711,30.555555555555557,0.8461538461304142,0.8846153846154782,0.0,0.9966822272858589,0
343,257.6138888888889,0.7027777777777828,0.7444444444444684,0.7944444444443661,0.8846153846154782,0.020681999414053846,0.9547431652980141,30.555555555555557,0.8461538461304142,0.9370629370630597,0.0,0.9946418969676334,0
344,258.35833333333335,0.7444444444444684,0.7138888888888459,0.7944444444443661,0.9370629370630597,0.01974743702209501,0.9116009604074681,33.333333333333336,0.923076923051361,0.8986013986014332,0.0,0.8975413962437588,0
345,259.0722222222222,0.7138888888888459,0.7444444444444684,0.7944444444443661,0.8986013986014332,0.017914445242835836,0.8269845585664567,30.555555555555557,0.8461538461304142,0.9370629370630597,0.0,0.8964344608520027,0
346,259.81666666666666,0.7444444444444684,0.75,0.7944444444443661,0.9370629370630597,0.01825464542283023,0.8426892199089229,30.555555555555557,0.8461538461304142,0.9440559440560371,0.0,0.895148923224234,0
347,260.56666666666666,0.75,0.7250000000000227,0.7944444444443661,0.9440559440560371,0.01939342781685242,0.8952588330148779,33.333333333333336,0.923076923051361,0.9125874125875312,0.0,0.8930340061467652,0
348,261.2916666666667,0.7250000000000227,0.7055555555555202,0.7944444444443661,0.9125874125875312,0.018252109250288785,0.8425721425726614,30.555555555555557,0.8461538461304142,0.8881118881119311,0.0,0.9224021248732958,0
349,261.9972222222222,0.7055555555555202,0.6944444444444571,0.7944444444443661,0.8881118881119311,0.0194066114459721,0.8958674289027244,33.333333333333336,0.923076923051361,0.8741258741259762,0.0,0.8899535537534358,0
350,262.69166666666666,0.6944444444444571,0.7111111111111086,0.7944444444443661,0.8741258741259762,0.019642590171025206,0.9067609150879671,33.333333333333336,0.923076923051361,0.8951048951049801,0.0,0.9041522541906696,0
351,263.40277777777777,0.7111111111111086,0.830555555555577,0.7944444444443661,0.8951048951049801,0.020217992032852742,0.9333231919685229,36.111111111111114,0.9999999999723078,1.0454545454546755,0.0,0.9940121291827522,0
352,264.23333333333335,0.830555555555577,0.8472222222222285,0.7944444444443661,1.0454545454546755,0.01974794294632828,0.9116243153884931,36.111111111111114,0.9999999999723078,1.0664335664336795,0.0,0.997450751608272,0
353,265.0805555555556,0.8472222222222285,0.8666666666666174,0.7944444444443661,1.0664335664336795,0.01920217880518003,0.8864302046454109,36.111111111111114,0.9999999999723078,1.0909090909091363,0.0,0.9942735151934644,0
354,265.9472222222222,0.8666666666666174,0.8555555555556111,0.7944444444443661,1.0909090909091363,0.022774651979031488,1.0513462883209321,36.111111111111114,0.9999999999723078,1.076923076923253,0.0,0.9930525987110419,0
355,266.8027777777778,0.8555555555556111,0.8194444444444002,0.7944444444443661,1.076923076923253,0.019122137724599482,0.8827352681406058,33.333333333333336,0.923076923051361,1.0314685314685774,0.0,0.9886622877323952,0
356,267.6222222222222,0.8194444444444002,0.7444444444444684,0.7944444444443661,1.0314685314685774,0.02569046110305409,1.1859487886276716,58.333333333333336,1.6153846153398816,0.9370629370630597,0.0,0.9641371966826622,0
357,268.3666666666667,0.7444444444444684,0.73888888888888,0.7944444444443661,0.9370629370630597,0.027553555079577876,1.2719547982393566,55.55555555555556,1.538461538418935,0.9300699300700106,0.0,0.9632984434235234,0
358,269.10555555555555,0.73888888888888,0.7416666666666742,0.7944444444443661,0.9300699300700106,0.018569069648010493,0.8572039858164683,30.555555555555557,0.8461538461304142,0.9335664335665351,0.0,0.9942775912162043,0
359,269.84722222222223,0.7416666666666742,0.658333333333303,0.7944444444443661,0.9335664335665351,0.02036124692332674,0.9399362676599683,33.333333333333336,0.923076923051361,0.8286713286713722,0.0,0.9194487097444819,0
360,270.50555555555553,0.658333333333303,0.6916666666666629,0.7944444444443661,0.8286713286713722,0.022815819285493887,1.0532466947415993,36.111111111111114,0.9999999999723078,0.8706293706294517,0.0,0.9838432038783824,0
361,271.1972222222222,0.6916666666666629,0.6750000000000114,0.7944444444443661,0.8706293706294517,0.02686258331956367,1.2400574680015837,50.0,1.3846153845770415,0.8496503496504477,0.0,0.9403254921658948,0
362,271.8722222222222,0.6750000000000114,0.6694444444444798,0.7944444444443661,0.8496503496504477,0.02711747302234361,1.251823941675721,52.77777777777778,1.4615384614979883,0.8426573426574703,0.0,0.947833446485228,0
363,272.5416666666667,0.6694444444444798,0.6805555555555429,0.7944444444443661,0.8426573426574703,0.029009738883041175,1.339176613013683,63.888888888888886,1.769230769181775,0.8566433566434252,0.0,0.9418674198136975,0
364,273.22222222222223,0.6805555555555429,0.658333333333303,0.7944444444443661,0.8566433566434252,0.02783822983527273,1.2850962393491487,61.111111111111114,1.6923076922608284,0.8286713286713722,0.0,0.9497922734962185,0
365,273.88055555555553,0.658333333333303,0.6694444444444798,0.7944444444443661,0.8286713286713722,0.025790834837323383,1.1905823414506123,52.77777777777778,1.4615384614979883,0.8426573426574703,0.0,0.9647976251105559,0
366,274.55,0.6694444444444798,0.658333333333303,0.7944444444443661,0.8426573426574703,0.026105396480125043,1.205103450967989,58.333333333333336,1.6153846153398816,0.8286713286713722,0.0,0.9546619541586109,0
367,275.2083333333333,0.658333333333303,0.6916666666666629,0.7944444444443661,0.8286713286713722,0.023856334678998156,1.1012800081774619,52.77777777777778,1.4615384614979883,0.8706293706294517,0.0,0.9654648808270776,0
368,275.9,0.6916666666666629,0.6944444444444571,0.7944444444443661,0.8706293706294517,0.02400419321086905,1.1081056017725768,50.0,1.3846153845770415,0.8741258741259762,0.0,0.9721038077671387,0
369,276.59444444444443,0.6944444444444571,0.6750000000000114,0.7944444444443661,0.8741258741259762,0.027693565830209432,1.2784181146991227,63.888888888888886,1.769230769181775,0.8496503496504477,0.0,0.9475770951988131,0
370,277.26944444444445,0.6750000000000114,0.6972222222221944,0.7944444444443661,0.8496503496504477,0.025896795407494656,1.195473799386413,55.55555555555556,1.538461538418935,0.8776223776224291,0.0,0.9580060309196405,0
371,277.96666666666664,0.6972222222221944,0.6750000000000114,0.7944444444443661,0.8776223776224291,0.024866510008144806,1.147912733183733,50.0,1.3846153845770415,0.8496503496504477,0.0,0.9679676689381624,0
372,278.64166666666665,0.6750000000000114,0.6944444444444571,0.7944444444443661,0.8496503496504477,0.027115335086201987,1.251725248126892,58.333333333333336,1.6153846153398816,0.8741258741259762,0.0,0.9470315710490558,0
373,279.3361111111111,0.6944444444444571,0.7277777777777601,0.7944444444443661,0.8741258741259762,0.0260973702598214,1.2047329365498873,55.55555555555556,1.538461538418935,0.9160839160839841,0.0,0.9591095193364795,0
374,280.06388888888887,0.7277777777777601,0.7305555555555543,0.7944444444443661,0.9160839160839841,0.024913175170914764,1.15006693715213,55.55555555555556,1.538461538418935,0.9195804195805086,0.0,0.9618562092690004,0
375,280.7944444444444,0.7305555555555543,0.7638888888889142,0.7944444444443661,0.9195804195805086,0.025567964411773756,1.1802939737120475,58.333333333333336,1.6153846153398816,0.9615384615385881,0.0,0.960620209371879,0
376,281.55833333333334,0.7638888888889142,0.7361111111110858,0.7944444444443661,0.9615384615385881,0.024864952104721914,1.1478408156860376,58.333333333333336,1.6153846153398816,0.9265734265734861,0.0,0.9630863280204063,0
377,282.2944444444444,0.7361111111110858,0.6916666666666629,0.7944444444443661,0.9265734265734861,0.02590847437256908,1.1960129354660218,61.111111111111114,1.6923076922608284,0.8706293706294517,0.0,0.9596795979464844,0
378,282.9861111111111,0.6916666666666629,0.7222222222222285,0.7944444444443661,0.8706293706294517,0.02531743095819684,1.1687285975754187,55.55555555555556,1.538461538418935,0.9090909090910066,0.0,0.9598020486854268,0
379,283.7083333333333,0.7222222222222285,0.7527777777777942,0.7944444444443661,0.9090909090910066,0.025912039561617122,1.1961775152925882,55.55555555555556,1.538461538418935,0.9475524475525616,0.0,0.9586798484972232,0
380,284.4611111111111,0.7527777777777942,0.7888888888888914,0.7944444444443661,0.9475524475525616,0.02626147199779955,1.2123083652892237,58.333333333333336,1.6153846153398816,0.993006993007094,0.0,0.9557568321039033,0
381,285.25,0.7888888888888914,0.830555555555577,0.7944444444443661,0.993006993007094,0.025898286132575367,1.195542615730213,55.55555555555556,1.538461538418935,1.0454545454546755,0.0,0.9603216103865548,0
382,286.0805555555556,0.830555555555577,0.9444444444444002,0.7944444444443661,1.0454545454546755,0.0258333207075536,1.1925436167321728,55.55555555555556,1.538461538418935,1.1888111888112503,0.0,0.9596501249197857,0
383,287.025,0.9444444444444002,0.88611111111112,0.7944444444443661,1.1888111888112503,0.025770739011749432,1.1896546578290417,58.333333333333336,1.6153846153398816,1.1153846153847364,0.0,0.957736954642231,0
384,287.9111111111111,0.88611111111112,0.9138888888888914,0.7944444444443661,1.1153846153847364,0.0262761109565145,1.2129841435590307,55.55555555555556,1.538461538418935,1.150349650349767,0.0,0.9578237401447164,0
385,288.825,0.9138888888888914,0.9388888888889255,0.7944444444443661,1.150349650349767,0.02835619929986417,1.309007264402931,63.888888888888886,1.769230769181775,1.1818181818183444,0.0,0.9549167251574866,0
386,289.7638888888889,0.9388888888889255,0.9722222222221717,0.7944444444443661,1.1818181818183444,0.02568504355170752,1.1856986981979585,55.55555555555556,1.538461538418935,1.2237762237762808,0.0,0.9601859769276704,0
387,290.7361111111111,0.9722222222221717,1.0027777777777942,0.7944444444443661,1.2237762237762808,0.027334987117362528,1.2618650451211733,61.111111111111114,1.6923076922608284,1.2622377622379073,0.0,0.9474967807698407,0
388,291.7388888888889,1.0027777777777942,0.8972222222222399,0.7944444444443661,1.2622377622379073,0.02630170725859644,1.2141657456846469,58.333333333333336,1.6153846153398816,1.129370629370763,0.0,0.955682671269751,0
389,292.6361111111111,0.8972222222222399,0.8388888888889028,0.7944444444443661,1.129370629370763,0.026332619522692325,1.2155927485714846,55.55555555555556,1.538461538418935,1.0559440559441775,0.0,0.9586683266740428,0
390,293.475,0.8388888888889028,0.8666666666666174,0.7944444444443661,1.0559440559441775,0.027937114989628597,1.2896610748556496,63.888888888888886,1.769230769181775,1.0909090909091363,0.0,0.9542723092272808,0
391,294.34166666666664,0.8666666666666174,0.9166666666666856,0.7944444444443661,1.0909090909091363,0.027857091953987206,1.285966971359394,63.888888888888886,1.769230769181775,1.1538461538462914,0.0,0.9536096237336587,0
392,295.2583333333333,0.9166666666666856,0.9861111111111427,0.7944444444443661,1.1538461538462914,0.027117038926215517,1.251803902495607,61.111111111111114,1.6923076922608284,1.2412587412589033,0.0,0.9539761535052208,0
393,296.24444444444447,0.9861111111111427,1.0027777777777374,0.7944444444443661,1.2412587412589033,0.029564970721545153,1.3648077810818586,58.333333333333336,1.6153846153398816,1.2622377622378358,0.0,0.9520062192302087,0
394,297.2472222222222,1.0027777777777374,0.9777777777778169,0.7944444444443661,1.2622377622378358,0.028867169831740393,1.3325951977168646,61.111111111111114,1.6923076922608284,1.2307692307694014,0.0,0.9545895928797054,0
395,298.225,0.9777777777778169,0.9694444444444343,0.7944444444443661,1.2307692307694014,0.02689392977248927,1.2415045143479209,61.111111111111114,1.6923076922608284,1.220279720279828,0.0,0.9537515193565705,0
396,299.19444444444446,0.9694444444444343,0.9472222222221944,0.7944444444443661,1.220279720279828,0.031071595717471107,1.434358112688096,66.66666666666667,1.846153846102722,1.192307692307775,0.0,0.9456951854375115,0
397,300.14166666666665,0.9472222222221944,0.9472222222222513,0.7944444444443661,1.192307692307775,0.02591305998521549,1.1962246211084597,61.111111111111114,1.6923076922608284,1.1923076923078464,0.0,0.9549592459605167,0
398,301.0888888888889,0.9472222222222513,0.9250000000000114,0.7944444444443661,1.1923076923078464,0.02781446406351774,1.2839991399973478,63.888888888888886,1.769230769181775,1.1643356643357934,0.0,0.9421830048984912,0
399,302.0138888888889,0.9250000000000114,0.9111111111110972,0.7944444444443661,1.1643356643357934,0.02675478986161408,1.2350813984649374,61.111111111111114,1.6923076922608284,1.1468531468532424,0.0,0.9498513214016413,0
400,302.925,0.9111111111110972,0.9638888888889028,0.7944444444443661,1.1468531468532424,0.03007460067291555,1.388333829176194,61.111111111111114,1.6923076922608284,1.2132867132868503,0.0,0.9466852423592904,0
401,303.8888888888889,0.9638888888889028,0.9833333333332916,0.7944444444443661,1.2132867132868503,0.02689931250318439,1.2417529973518568,63.888888888888886,1.769230769181775,1.2377622377623072,0.0,0.9454582305093691,0
402,304.8722222222222,0.9833333333332916,0.9250000000000114,0.7944444444443661,1.2377622377623072,0.02687595352863938,1.2406746769801782,61.111111111111114,1.6923076922608284,1.1643356643357934,0.0,0.9473515621444588,0
403,305.7972222222222,0.9250000000000114,0.9111111111110972,0.7944444444443661,1.1643356643357934,0.027388531031442086,1.2643367928950382,63.888888888888886,1.769230769181775,1.1468531468532424,0.0,0.9477180845047382,0
404,306.7083333333333,0.9111111111110972,0.9416666666666629,0.7944444444443661,1.1468531468532424,0.028585864329226024,1.3196092914459352,66.66666666666667,1.846153846102722,1.1853146853147973,0.0,0.9427906925044202,0
405,307.65,0.9416666666666629,0.9027777777778283,0.7944444444443661,1.1853146853147973,0.029158575725211217,1.3460473683483836,66.66666666666667,1.846153846102722,1.1363636363638119,0.0,0.9406057564883414,0
406,308.5527777777778,0.9027777777778283,0.9388888888888687,0.7944444444443661,1.1363636363638119,0.0323942336991385,1.495415051520732,75.0,2.076923076865562,1.181818181818273,0.0,0.9223037015135945,0
407,309.4916666666667,0.9388888888888687,0.9749999999999659,0.7944444444443661,1.181818181818273,0.03302196567679849,1.5243930436051256,75.0,2.076923076865562,1.2272727272728052,0.0,0.9158384198834233,0
408,310.46666666666664,0.9749999999999659,0.9027777777778283,0.7944444444443661,1.2272727272728052,0.031196831614255256,1.4401393775508822,72.22222222222223,1.9999999999446156,1.1363636363638119,0.0,0.9315890152817294,0
409,311.36944444444447,0.9027777777778283,0.86388888888888,0.7944444444443661,1.1363636363638119,0.029576398806821377,1.3653353357970233,72.22222222222223,1.9999999999446156,1.0874125874126834,0.0,0.93381750679005,0
410,312.23333333333335,0.86388888888888,0.9527777777777828,0.7944444444443661,1.0874125874126834,0.030258849646009747,1.3968393147558582,69.44444444444444,1.9230769230236686,1.199300699300824,0.0,0.9359416048362204,0
411,313.18611111111113,0.9527777777777828,0.9833333333332916,0.7944444444443661,1.199300699300824,0.03126820086241555,1.443433996244624,69.44444444444444,1.9230769230236686,1.2377622377623072,0.0,0.9308133443295117,0
412,314.1694444444444,0.9833333333332916,0.9388888888889255,0.7944444444443661,1.2377622377623072,0.02929633197342371,1.3524066102101064,66.66666666666667,1.846153846102722,1.1818181818183444,0.0,0.9427980913496269,0
413,315.10833333333335,0.9388888888889255,0.9555555555555202,0.7944444444443661,1.1818181818183444,0.02775430717605131,1.2812221175246004,69.44444444444444,1.9230769230236686,1.2027972027972769,0.0,0.9458650778116537,0
414,316.06388888888887,0.9555555555555202,0.8388888888889028,0.7944444444443661,1.2027972027972769,0.027802831952667157,1.283462166849334,66.66666666666667,1.846153846102722,1.0559440559441775,0.0,0.9489320801059993,0
415,316.90277777777777,0.8388888888889028,0.841666666666697,0.7944444444443661,1.0559440559441775,0.027675440012152788,1.277581372537083,69.44444444444444,1.9230769230236686,1.0594405594407021,0.0,0.9473213912220401,0
416,317.74444444444447,0.841666666666697,0.9027777777777715,0.7944444444443661,1.0594405594407021,0.02752171505510192,1.2704849671489118,66.66666666666667,1.846153846102722,1.1363636363637404,0.0,0.9449274852446483,0
417,318.64722222222224,0.9027777777777715,0.8916666666666515,0.7944444444443661,1.1363636363637404,0.027904122309126138,1.288138033703585,63.888888888888886,1.769230769181775,1.122377622377714,0.0,0.9488789534633003,0
418,319.5388888888889,0.8916666666666515,0.8944444444444457,0.7944444444443661,1.122377622377714,0.028465147086626282,1.3140366212220203,75.0,2.076923076865562,1.1258741258742384,0.0,0.9404258164779129,0
419,320.43333333333334,0.8944444444444457,0.9444444444444571,0.7944444444443661,1.1258741258742384,0.025762623901479615,1.189280039983318,61.111111111111114,1.6923076922608284,1.188811188811322,0.0,0.9516874629047316,0
420,321.3777777777778,0.9444444444444571,0.9555555555555202,0.7944444444443661,1.188811188811322,0.027152722183274962,1.2534511487366995,66.66666666666667,1.846153846102722,1.2027972027972769,0.0,0.950540501924307,0
421,322.3333333333333,0.9555555555555202,0.9750000000000227,0.7944444444443661,1.2027972027972769,0.02641005626856073,1.2191674611696555,63.888888888888886,1.769230769181775,1.227272727272877,0.0,0.9542650755900177,0
422,323.30833333333334,0.9750000000000227,0.9444444444444571,0.7944444444443661,1.227272727272877,0.026278451253686434,1.2130921787003601,63.888888888888886,1.769230769181775,1.188811188811322,0.0,0.9552818870191937,0
423,324.2527777777778,0.9444444444444571,0.9444444444444002,0.7944444444443661,1.188811188811322,0.029394522420977943,1.3569393759656383,63.888888888888886,1.769230769181775,1.1888111888112503,0.0,0.9514969280678519,0
424,325.1972222222222,0.9444444444444002,0.9694444444444912,0.7944444444443661,1.1888111888112503,0.026607506682731385,1.2282823648905499,63.888888888888886,1.769230769181775,1.2202797202798994,0.0,0.953600711292355,0
425,326.1666666666667,0.9694444444444912,0.9444444444444002,0.7944444444443661,1.2202797202798994,0.026705705324765138,1.2328155089278503,66.66666666666667,1.846153846102722,1.1888111888112503,0.0,0.9506358728066311,0
426,327.1111111111111,0.9444444444444002,0.9055555555555657,0.7944444444443661,1.1888111888112503,0.019423749136315456,0.8966585561238767,36.111111111111114,0.9999999999723078,1.139860139860265,0.0,0.9991537038466729,0
427,328.01666666666665,0.9055555555555657,0.9250000000000114,0.7944444444443661,1.139860139860265,0.028818654827635563,1.3303555995205694,66.66666666666667,1.846153846102722,1.1643356643357934,0.0,0.9451627854418561,0
428,328.94166666666666,0.9250000000000114,0.955555555555577,0.7944444444443661,1.1643356643357934,0.028342338379455066,1.308367402716428,66.66666666666667,1.846153846102722,1.2027972027973484,0.0,0.944047505228045,0
429,329.89722222222224,0.955555555555577,1.0083333333333258,0.7944444444443661,1.2027972027973484,0.03011968171667312,1.390414905456604,72.22222222222223,1.9999999999446156,1.2692307692308848,0.0,0.9392598598678616,0
430,330.90555555555557,1.0083333333333258,1.02222222222224,0.7944444444443661,1.2692307692308848,0.029350755061855773,1.3549189433107258,69.44444444444444,1.9230769230236686,1.2867132867134359,0.0,0.9396512408337945,0
431,331.9277777777778,1.02222222222224,0.952777777777726,0.7944444444443661,1.2867132867134359,0.02849153030151612,1.3152545496045898,72.22222222222223,1.9999999999446156,1.1993006993007524,0.0,0.9488993352947941,0
432,332.88055555555553,0.952777777777726,0.9333333333333371,0.7944444444443661,1.1993006993007524,0.020420226446956784,0.9426589394844366,38.888888888888886,1.0769230768932543,1.1748251748252954,0.0,0.9931434398045597,0
433,333.81388888888887,0.9333333333333371,0.9722222222222285,0.7944444444443661,1.1748251748252954,0.02606103495485722,1.203055589820538,66.66666666666667,1.846153846102722,1.2237762237763523,0.0,0.9576350237924154,0
434,334.7861111111111,0.9722222222222285,0.9499999999999886,0.7944444444443661,1.2237762237763523,0.027569172262141783,1.2726757342579493,69.44444444444444,1.9230769230236686,1.1958041958042993,0.0,0.9423888494450046,0
435,335.7361111111111,0.9499999999999886,0.9583333333333712,0.7944444444443661,1.1958041958042993,0.030192527657120872,1.3937776926982928,72.22222222222223,1.9999999999446156,1.206293706293873,0.0,0.9378029818072644,0
436,336.69444444444446,0.9583333333333712,0.9666666666666401,0.7944444444443661,1.206293706293873,0.030621766501906688,1.413592646036953,75.0,2.076923076865562,1.2167832167833033,0.0,0.9328084685068887,0
437,337.6611111111111,0.9666666666666401,0.9472222222222513,0.7944444444443661,1.2167832167833033,0.028250080950714185,1.3041085229159348,69.44444444444444,1.9230769230236686,1.1923076923078464,0.0,0.9405371189260823,0
438,338.60833333333335,0.9472222222222513,0.9861111111110858,0.7944444444443661,1.1923076923078464,0.027556662666305336,1.2720982537694152,66.66666666666667,1.846153846102722,1.2412587412588318,0.0,0.9475220254315508,0
439,339.59444444444443,0.9861111111110858,0.9833333333333485,0.7944444444443661,1.2412587412588318,0.028072536509666485,1.2959125386576738,69.44444444444444,1.9230769230236686,1.237762237762379,0.0,0.9466129494774934,0
440,340.5777777777778,0.9833333333333485,0.8527777777777601,0.7944444444443661,1.237762237762379,0.026677762884128802,1.231525602005159,52.77777777777778,1.4615384614979883,1.073426573426657,0.0,0.9498450614441061,0
441,341.43055555555554,0.8527777777777601,0.8611111111111427,0.7944444444443661,1.073426573426657,0.02692371621384435,1.2428795458781408,58.333333333333336,1.6153846153398816,1.0839160839162305,0.0,0.950539586925869,0
442,342.2916666666667,0.8611111111111427,0.8833333333333258,0.7944444444443661,1.0839160839162305,0.025523103140359563,1.1782230427826048,50.0,1.3846153845770415,1.111888111888212,0.0,0.9657320611895064,0
443,343.175,0.8833333333333258,0.9583333333333144,0.7944444444443661,1.111888111888212,0.029719052046870986,1.371920637499161,61.111111111111114,1.6923076922608284,1.2062937062938013,0.0,0.950132492155856,0
444,344.1333333333333,0.9583333333333144,0.9388888888888687,0.7944444444443661,1.2062937062938013,0.026761078315812703,1.2353716923841194,63.888888888888886,1.769230769181775,1.181818181818273,0.0,0.9455129283705999,0
445,345.0722222222222,0.9388888888888687,0.8777777777777942,0.7944444444443661,1.181818181818273,0.02888583683177555,1.3334569224632675,66.66666666666667,1.846153846102722,1.1048951048952345,0.0,0.9392985275767638,0
446,345.95,0.8777777777777942,0.8527777777778169,0.7944444444443661,1.1048951048952345,0.02740001080043568,1.2648667334857135,61.111111111111114,1.6923076922608284,1.0734265734267285,0.0,0.9449337524403393,0
447,346.8027777777778,0.8527777777778169,0.8472222222221717,0.7944444444443661,1.0734265734267285,0.024528816486867805,1.1323237867308311,55.55555555555556,1.538461538418935,1.066433566433608,0.0,0.9651701154209169,0
448,347.65,0.8472222222221717,0.8777777777777942,0.7944444444443661,1.066433566433608,0.02834228346650842,1.308364867770002,52.77777777777778,1.4615384614979883,1.1048951048952345,0.0,0.9653517216590332,0
449,348.52777777777777,0.8777777777777942,0.9388888888888687,0.7944444444443661,1.1048951048952345,0.028231171959232602,1.303235627118082,55.55555555555556,1.538461538418935,1.181818181818273,0.0,0.9602917164303224,0
450,349.46666666666664,0.9388888888888687,0.9527777777777828,0.7944444444443661,1.181818181818273,0.0267145625894682,1.2332243868496213,63.888888888888886,1.769230769181775,1.199300699300824,0.0,0.9458967270832624,0
451,350.4194444444444,0.9527777777777828,0.8805555555555884,0.7944444444443661,1.199300699300824,0.0271670002738255,1.254110268248973,66.66666666666667,1.846153846102722,1.108391608391759,0.0,0.9522407734828768,0
452,351.3,0.8805555555555884,0.8333333333333144,0.7944444444443661,1.108391608391759,0.02878226911751858,1.328675925938087,63.888888888888886,1.769230769181775,1.0489510489511285,0.0,0.9495656861541779,0
453,352.1333333333333,0.8333333333333144,0.8444444444444343,0.7944444444443661,1.0489510489511285,0.02656941433924395,1.226523907989613,61.111111111111114,1.6923076922608284,1.062937062937155,0.0,0.9594652986819641,0
454,352.97777777777776,0.8444444444444343,0.88611111111112,0.7944444444443661,1.062937062937155,0.02621585209051237,1.2102024134510099,58.333333333333336,1.6153846153398816,1.1153846153847364,0.0,0.9529065473663225,0
455,353.8638888888889,0.88611111111112,0.9638888888889028,0.7944444444443661,1.1153846153847364,0.02671849138189344,1.2334057516993526,61.111111111111114,1.6923076922608284,1.2132867132868503,0.0,0.9474870966536703,0
456,354.8277777777778,0.9638888888889028,0.98888888888888,0.7944444444443661,1.2132867132868503,0.027849426214658937,1.2856130978250175,69.44444444444444,1.9230769230236686,1.2447552447553563,0.0,0.9463700826766752,0
457,355.81666666666666,0.98888888888888,0.9694444444444343,0.7944444444443661,1.2447552447553563,0.02707560952236641,1.2498913968729433,63.888888888888886,1.769230769181775,1.220279720279828,0.0,0.9533546286009702,0
458,356.7861111111111,0.9694444444444343,0.9611111111111086,0.7944444444443661,1.220279720279828,0.01872556840016111,0.8644284379113628,33.333333333333336,0.923076923051361,1.209790209790326,0.0,0.9931825649015327,0
459,357.7472222222222,0.9611111111111086,0.875,0.7944444444443661,1.209790209790326,0.019193104539279884,0.8860113092971026,36.111111111111114,0.9999999999723078,1.10139860139871,0.0,0.9967518697160193,0
460,358.6222222222222,0.875,0.8277777777777828,0.7944444444443661,1.10139860139871,0.018349078818601795,0.8470485488782256,30.555555555555557,0.8461538461304142,1.0419580419581511,0.0,0.9954474419805704,0
461,359.45,0.8277777777777828,0.7861111111110972,0.7944444444443661,1.0419580419581511,0.022447584773041086,1.0362478844741423,36.111111111111114,0.9999999999723078,0.9895104895105695,0.0,0.9963324370474058,0
462,360.2361111111111,0.7861111111110972,0.797222222222274,0.7944444444443661,0.9895104895105695,0.02695965042278488,1.2445383768112395,61.111111111111114,1.6923076922608284,1.0034965034966676,0.0,0.9515523488814689,0
463,361.03333333333336,0.797222222222274,0.8111111111110745,0.7944444444443661,1.0034965034966676,0.02608146165663193,1.2039985476805857,58.333333333333336,1.6153846153398816,1.0209790209790754,0.0,0.956875013697522,0
464,361.84444444444443,0.8111111111110745,0.8666666666666742,0.7944444444443661,1.0209790209790754,0.0278142646787181,1.283989935796588,63.888888888888886,1.769230769181775,1.090909090909208,0.0,0.9463120352768899,0
465,362.7111111111111,0.8666666666666742,0.955555555555577,0.7944444444443661,1.090909090909208,0.030034751609102996,1.3864942767926507,63.888888888888886,1.769230769181775,1.2027972027973484,0.0,0.9523326723692588,0
466,363.6666666666667,0.955555555555577,0.9666666666666401,0.7944444444443661,1.2027972027973484,0.019359949287228118,0.8937133636091824,36.111111111111114,0.9999999999723078,1.2167832167833033,0.0,0.9931831110721698,0
467,364.6333333333333,0.9666666666666401,0.9694444444444343,0.7944444444443661,1.2167832167833033,0.018888492792382354,0.8719495168370234,38.888888888888886,1.0769230768932543,1.220279720279828,0.0,0.9977237221083152,0
468,365.60277777777776,0.9694444444444343,0.8805555555555884,0.7944444444443661,1.220279720279828,0.018979220055059826,0.8761377595795821,33.333333333333336,0.923076923051361,1.108391608391759,0.0,0.997123738714434,0
469,366.48333333333335,0.8805555555555884,0.8805555555555316,0.7944444444443661,1.108391608391759,0.018781225197509153,0.8669977227182424,33.333333333333336,0.923076923051361,1.1083916083916874,0.0,0.9988474468564025,0
470,367.3638888888889,0.8805555555555316,0.8083333333333371,0.7944444444443661,1.1083916083916874,0.019392422984002202,0.8952124469147331,36.111111111111114,0.9999999999723078,1.0174825174826225,0.0,0.9986137636612682,0
471,368.1722222222222,0.8083333333333371,0.8111111111111313,0.7944444444443661,1.0174825174826225,0.021795250801483045,1.0061341905140924,36.111111111111114,0.9999999999723078,1.0209790209791472,0.0,0.997619923257465,0
472,368.98333333333335,0.8111111111111313,0.8472222222222285,0.7944444444443661,1.0209790209791472,0.027876374179728387,1.286857096770848,66.66666666666667,1.846153846102722,1.0664335664336795,0.0,0.950331996963186,0
473,369.8305555555556,0.8472222222222285,0.9111111111110972,0.7944444444443661,1.0664335664336795,0.030420092920648647,1.4042827882484235,69.44444444444444,1.9230769230236686,1.1468531468532424,0.0,0.9479647801371023,0
474,370.7416666666667,0.9111111111110972,0.9222222222222172,0.7944444444443661,1.1468531468532424,0.02776259736178382,1.2816048173791312,69.44444444444444,1.9230769230236686,1.160839160839269,0.0,0.946808398747596,0
475,371.6638888888889,0.9222222222222172,1.01111111111112,0.7944444444443661,1.160839160839269,0.02812705312602849,1.2984291892882425,63.888888888888886,1.769230769181775,1.2727272727274093,0.0,0.9444295564322063,0
476,372.675,1.01111111111112,1.0388888888888914,0.7944444444443661,1.2727272727274093,0.030041533818208073,1.3868073639202083,72.22222222222223,1.9999999999446156,1.3076923076924398,0.0,0.9319248772859747,0
477,373.7138888888889,1.0388888888888914,0.9916666666666742,0.7944444444443661,1.3076923076924398,0.031410222154803165,1.449990125346036,75.0,2.076923076865562,1.248251748251881,0.0,0.9301590444712611,0
478,374.7055555555556,0.9916666666666742,0.9694444444444343,0.7944444444443661,1.248251748251881,0.029483577434615518,1.361050422673638,63.888888888888886,1.769230769181775,1.220279720279828,0.0,0.9375858794068108,0
479,375.675,0.9694444444444343,0.9749999999999659,0.7944444444443661,1.220279720279828,0.03217318895314209,1.4852109626297085,72.22222222222223,1.9999999999446156,1.2272727272728052,0.0,0.9253200240570774,0
480,376.65,0.9749999999999659,0.9305555555555998,0.7944444444443661,1.2272727272728052,0.029712249973227963,1.3716066333649128,69.44444444444444,1.9230769230236686,1.1713286713288424,0.0,0.940299001907848,0
481,377.5805555555556,0.9305555555555998,0.9249999999999545,0.7944444444443661,1.1713286713288424,0.03095965726531261,1.4291906977785036,72.22222222222223,1.9999999999446156,1.1643356643357219,0.0,0.9321967246127059,0
482,378.50555555555553,0.9249999999999545,0.8833333333333826,0.7944444444443661,1.1643356643357219,0.032880597481537314,1.5178670634271934,77.77777777777777,2.1538461537865086,1.1118881118882835,0.0,0.9216090951738578,0
483,379.3888888888889,0.8833333333333826,0.919444444444423,0.7944444444443661,1.1118881118882835,0.02856314896953043,1.3185606822673703,72.22222222222223,1.9999999999446156,1.1573426573427443,0.0,0.9388237077980311,0
484,380.30833333333334,0.919444444444423,0.9666666666666401,0.7944444444443661,1.1573426573427443,0.027984399883789625,1.291843887485042,66.66666666666667,1.846153846102722,1.2167832167833033,0.0,0.9481739423722324,0
485,381.275,0.9666666666666401,0.9250000000000114,0.7944444444443661,1.2167832167833033,0.02776610062409613,1.2817665384817172,69.44444444444444,1.9230769230236686,1.1643356643357934,0.0,0.9467181775635352,0
486,382.2,0.9250000000000114,0.9333333333333371,0.7944444444443661,1.1643356643357934,0.029655426027035782,1.3689834694644545,72.22222222222223,1.9999999999446156,1.1748251748252954,0.0,0.9390091961542684,0
487,383.1333333333333,0.9333333333333371,0.9388888888888687,0.7944444444443661,1.1748251748252954,0.02957516577512224,1.3652784153531252,69.44444444444444,1.9230769230236686,1.181818181818273,0.0,0.935876014623316,0
488,384.0722222222222,0.9388888888888687,0.9833333333333485,0.7944444444443661,1.181818181818273,0.02830102202809369,1.3064601159358993,66.66666666666667,1.846153846102722,1.237762237762379,0.0,0.948640951191453,0
489,385.05555555555554,0.9833333333333485,0.9805555555555543,0.7944444444443661,1.237762237762379,0.028461917604512162,1.3138875386350721,72.22222222222223,1.9999999999446156,1.2342657342658543,0.0,0.9423032451298976,0
490,386.0361111111111,0.9805555555555543,0.966666666666697,0.7944444444443661,1.2342657342658543,0.02721134188136281,1.256157209934205,63.888888888888886,1.769230769181775,1.216783216783375,0.0,0.9475962853270155,0
491,387.0027777777778,0.966666666666697,0.9472222222221944,0.7944444444443661,1.216783216783375,0.018247438432930342,0.8423565236249934,36.111111111111114,0.9999999999723078,1.192307692307775,0.0,0.9972394987406246,0
492,387.95,0.9472222222221944,0.8833333333333258,0.7944444444443661,1.192307692307775,0.019103858073840317,0.8818914245993238,30.555555555555557,0.8461538461304142,1.111888111888212,0.0,0.9971487664261928,0
493,388.8333333333333,0.8833333333333258,0.8472222222222285,0.7944444444443661,1.111888111888212,0.02200998174491166,1.016046815329136,36.111111111111114,0.9999999999723078,1.0664335664336795,0.0,0.9981341588705991,0
494,389.68055555555554,0.8472222222222285,0.8472222222222285,0.7944444444443661,1.0664335664336795,0.019944916727201258,0.9207172162858596,33.333333333333336,0.923076923051361,1.0664335664336795,0.0,0.9979088056882722,0
495,390.52777777777777,0.8472222222222285,0.8694444444444684,0.7944444444443661,1.0664335664336795,0.019731756342122927,0.910877093157941,36.111111111111114,0.9999999999723078,1.0944055944057325,0.0,0.9974901071197224,0
496,391.39722222222224,0.8694444444444684,0.8944444444444457,0.7944444444443661,1.0944055944057325,0.028201079156721497,1.3018464530374263,69.44444444444444,1.9230769230236686,1.1258741258742384,0.0,0.9482260475702389,0
497,392.2916666666667,0.8944444444444457,0.9333333333333371,0.7944444444443661,1.1258741258742384,0.02818335692607316,1.3010283416814306,69.44444444444444,1.9230769230236686,1.1748251748252954,0.0,0.9412203423871419,0
498,393.225,0.9333333333333371,0.9361111111110745,0.7944444444443661,1.1748251748252954,0.030109497314890724,1.389944762904149,75.0,2.076923076865562,1.1783216783217483,0.0,0.9372003388313295,0
499,394.1611111111111,0.9361111111110745,0.9777777777778169,0.7944444444443661,1.1783216783217483,0.030421342368593323,1.4043404665154853,77.77777777777777,2.1538461537865086,1.2307692307694014,0.0,0.9332875651511057,0
500,395.1388888888889,0.9777777777778169,0.98888888888888,0.7944444444443661,1.2307692307694014,0.029960870639046903,1.3830837094778334,69.44444444444444,1.9230769230236686,1.2447552447553563,0.0,0.9377816664235328,0
501,396.1277777777778,0.98888888888888,0.9444444444444002,0.7944444444443661,1.2447552447553563,0.029328704841802094,1.3539010389742978,72.22222222222223,1.9999999999446156,1.1888111888112503,0.0,0.9370781106554712,0
502,397.0722222222222,0.9444444444444002,0.9305555555555998,0.7944444444443661,1.1888111888112503,0.02708298564787033,1.2502319009639773,63.888888888888886,1.769230769181775,1.1713286713288424,0.0,0.9522536676940854,0
503,398.0027777777778,0.9305555555555998,0.9666666666666401,0.7944444444443661,1.1713286713288424,0.027805171575792053,1.283570170874629,66.66666666666667,1.846153846102722,1.2167832167833033,0.0,0.9480914221947692,0
504,398.96944444444443,0.9666666666666401,1.025000000000034,0.7944444444443661,1.2167832167833033,0.027817133507240455,1.2841223695313202,66.66666666666667,1.846153846102722,1.2902097902099603,0.0,0.9483089428975797,0
505,399.99444444444447,1.025000000000034,1.0249999999999773,0.7944444444443661,1.2902097902099603,0.02949982669103666,1.3618005371185071,72.22222222222223,1.9999999999446156,1.2902097902098888,0.0,0.9410503778045168,0
506,401.01944444444445,1.0249999999999773,0.9333333333333371,0.7944444444443661,1.2902097902098888,0.02947241826997333,1.3605352821420449,69.44444444444444,1.9230769230236686,1.1748251748252954,0.0,0.9397641777314101,0
507,401.9527777777778,0.9333333333333371,0.9527777777777828,0.7944444444443661,1.1748251748252954,0.02800925787279811,1.2929914068633077,66.66666666666667,1.846153846102722,1.199300699300824,0.0,0.943895244643279,0
508,402.90555555555557,0.9527777777777828,0.9972222222222058,0.7944444444443661,1.199300699300824,0.028668253235785632,1.3234126106444026,66.66666666666667,1.846153846102722,1.2552447552448582,0.0,0.9410649255925123,0
509,403.90277777777777,0.9972222222222058,0.9472222222222513,0.7944444444443661,1.2552447552448582,0.02796418143417816,1.2909105431698715,69.44444444444444,1.9230769230236686,1.1923076923078464,0.0,0.9454084706052693,0
510,404.85,0.9472222222222513,0.9666666666666401,0.7944444444443661,1.1923076923078464,0.027250991718926594,1.2579875654361725,66.66666666666667,1.846153846102722,1.2167832167833033,0.0,0.9486725052201654,0
511,405.81666666666666,0.9666666666666401,0.9777777777777601,0.7944444444443661,1.2167832167833033,0.027915384311282147,1.2886579215234597,69.44444444444444,1.9230769230236686,1.2307692307693299,0.0,0.9478957321827585,0
512,406.7944444444444,0.9777777777777601,0.9888888888889369,0.7944444444443661,1.2307692307693299,0.027780188072018916,1.282416857358123,69.44444444444444,1.9230769230236686,1.244755244755428,0.0,0.9458006239179283,0
513,407.78333333333336,0.9888888888889369,1.0166666666666515,0.7944444444443661,1.244755244755428,0.02866546021166935,1.3232836762685647,69.44444444444444,1.9230769230236686,1.2797202797203868,0.0,0.9434290714480766,0
514,408.8,1.0166666666666515,0.9222222222222172,0.7944444444443661,1.2797202797203868,0.020002399858049552,0.9233708101284378,36.111111111111114,0.9999999999723078,1.160839160839269,0.0,0.9989484908665247,0
515,409.72222222222223,0.9222222222222172,0.8972222222222399,0.7944444444443661,1.160839160839269,0.018558066549697914,0.8566960497750477,36.111111111111114,0.9999999999723078,1.129370629370763,0.0,0.9981894312850031,0
516,410.61944444444447,0.8972222222222399,0.8972222222221831,0.7944444444443661,1.129370629370763,0.026712549336243025,1.2331314490384226,63.888888888888886,1.769230769181775,1.1293706293706913,0.0,0.9496226681278328,0
517,411.51666666666665,0.8972222222221831,0.9194444444444798,0.7944444444443661,1.1293706293706913,0.028612172401530894,1.3208237510212593,69.44444444444444,1.9230769230236686,1.157342657342816,0.0,0.9364464153917909,0
518,412.43611111111113,0.9194444444444798,0.9805555555555543,0.7944444444443661,1.157342657342816,0.02941348378573675,1.3578146894711542,72.22222222222223,1.9999999999446156,1.2342657342658543,0.0,0.9402125798453637,0
519,413.4166666666667,0.9805555555555543,0.9027777777777715,0.7944444444443661,1.2342657342658543,0.02029629224366253,0.9369377646998828,36.111111111111114,0.9999999999723078,1.1363636363637404,0.0,0.9976374423087233,0
520,414.31944444444446,0.9027777777777715,0.88611111111112,0.7944444444443661,1.1363636363637404,0.019252768008918647,0.8887655541220428,36.111111111111114,0.9999999999723078,1.1153846153847364,0.0,0.9982738665691607,0
521,415.2055555555556,0.88611111111112,0.9027777777777715,0.7944444444443661,1.1153846153847364,0.027187073769817195,1.2550369210700094,66.66666666666667,1.846153846102722,1.1363636363637404,0.0,0.9534869667587957,0
522,416.10833333333335,0.9027777777777715,0.908333333333303,0.7944444444443661,1.1363636363637404,0.02858959035402157,1.3197812959333188,72.22222222222223,1.9999999999446156,1.143356643356718,0.0,0.9367264341359425,0
523,417.01666666666665,0.908333333333303,0.9277777777778056,0.7944444444443661,1.143356643356718,0.026970986699123612,1.2450616933503058,66.66666666666667,1.846153846102722,1.167832167832318,0.0,0.9444884494903381,0
524,417.94444444444446,0.9277777777778056,0.88611111111112,0.7944444444443661,1.167832167832318,0.019735818465751263,0.9110646129761707,38.888888888888886,1.0769230768932543,1.1153846153847364,0.0,0.9988256136295895,0
525,418.8305555555556,0.88611111111112,0.8916666666666515,0.7944444444443661,1.1153846153847364,0.026758458376565,1.2352507481252901,66.66666666666667,1.846153846102722,1.122377622377714,0.0,0.9486248533706629,0
526,419.72222222222223,0.8916666666666515,0.9250000000000114,0.7944444444443661,1.122377622377714,0.030707603627598338,1.4175551453796056,66.66666666666667,1.846153846102722,1.1643356643357934,0.0,0.9465472545968721,0
527,420.64722222222224,0.9250000000000114,0.9638888888888459,0.7944444444443661,1.1643356643357934,0.0275812998798305,1.273235581488763,66.66666666666667,1.846153846102722,1.2132867132867788,0.0,0.9486237058052156,0
528,421.6111111111111,0.9638888888888459,0.9611111111111086,0.7944444444443661,1.2132867132867788,0.02174635882222997,1.0038771900135486,36.111111111111114,0.9999999999723078,1.209790209790326,0.0,0.9972933663869701,0
529,422.5722222222222,0.9611111111111086,0.8916666666667084,0.7944444444443661,1.209790209790326,0.01969042932043927,0.9089693138033114,36.111111111111114,0.9999999999723078,1.1223776223777855,0.0,0.9949149548307499,0
530,423.4638888888889,0.8916666666667084,0.8888888888888573,0.7944444444443661,1.1223776223777855,0.020570165419205953,0.949580572451384,36.111111111111114,0.9999999999723078,1.1188811188811894,0.0,0.9957635541188632,0
531,424.35277777777776,0.8888888888888573,0.9138888888888914,0.7944444444443661,1.1188811188811894,0.0267431444429981,1.2345438109905327,63.888888888888886,1.769230769181775,1.150349650349767,0.0,0.9508855921648764,0
532,425.26666666666665,0.9138888888888914,0.8527777777778169,0.7944444444443661,1.150349650349767,0.027465359126928972,1.2678834083648716,69.44444444444444,1.9230769230236686,1.0734265734267285,0.0,0.9513478063903832,0
533,426.11944444444447,0.8527777777778169,0.9333333333333371,0.7944444444443661,1.0734265734267285,0.028278566342482523,1.3054234940924245,69.44444444444444,1.9230769230236686,1.1748251748252954,0.0,0.9456182017244488,0
534,427.0527777777778,0.9333333333333371,0.9944444444444116,0.7944444444443661,1.1748251748252954,0.029220851086786282,1.3489221859441067,72.22222222222223,1.9999999999446156,1.2517482517483338,0.0,0.9432402679717313,0
535,428.0472222222222,0.9944444444444116,1.0138888888889142,0.7944444444443661,1.2517482517483338,0.027671317439079142,1.2773910621910325,69.44444444444444,1.9230769230236686,1.276223776223934,0.0,0.9461744028935173,0
536,429.06111111111113,1.0138888888889142,1.0388888888888914,0.7944444444443661,1.276223776223934,0.027297955983691054,1.2601555768503228,66.66666666666667,1.846153846102722,1.3076923076924398,0.0,0.9457605869558299,0
537,430.1,1.0388888888888914,0.8972222222221831,0.7944444444443661,1.3076923076924398,0.02766253047699658,1.2769854296492213,66.66666666666667,1.846153846102722,1.1293706293706913,0.0,0.9467470787924845,0
538,430.9972222222222,0.8972222222221831,0.9083333333333599,0.7944444444443661,1.1293706293706913,0.025699330998290623,1.1863582496127751,61.111111111111114,1.6923076922608284,1.1433566433567894,0.0,0.9542997261868318,0
539,431.90555555555557,0.9083333333333599,0.908333333333303,0.7944444444443661,1.1433566433567894,0.0195392187383039,0.9019889795075674,36.111111111111114,0.9999999999723078,1.143356643356718,0.0,0.998465644934982,0
540,432.81388888888887,0.908333333333303,0.9027777777777715,0.7944444444443661,1.143356643356718,0.020362444710425958,0.9399915611073553,36.111111111111114,0.9999999999723078,1.1363636363637404,0.0,0.9968744290297751,0
541,433.71666666666664,0.9027777777777715,0.8361111111111654,0.7944444444443661,1.1363636363637404,0.019130756348648942,0.8831331296935804,33.333333333333336,0.923076923051361,1.0524475524477246,0.0,0.9987439865194874,0
542,434.5527777777778,0.8361111111111654,0.8111111111110745,0.7944444444443661,1.0524475524477246,0.018756691104005057,0.8658651553285585,33.333333333333336,0.923076923051361,1.0209790209790754,0.0,0.9981967528787055,0
543,435.3638888888889,0.8111111111110745,0.8555555555555543,0.7944444444443661,1.0209790209790754,0.027252386213187443,1.2580519394765126,66.66666666666667,1.846153846102722,1.0769230769231815,0.0,0.9533153707976939,0
544,436.21944444444443,0.8555555555555543,0.8888888888889142,0.7944444444443661,1.0769230769231815,0.02794560363346677,1.2900529361319653,69.44444444444444,1.9230769230236686,1.118881118881261,0.0,0.9474773284389653,0
545,437.10833333333335,0.8888888888889142,0.908333333333303,0.7944444444443661,1.118881118881261,0.028855783904970667,1.332069589164889,69.44444444444444,1.9230769230236686,1.143356643356718,0.0,0.9375217477451174,0
546,438.01666666666665,0.908333333333303,0.9333333333333371,0.7944444444443661,1.143356643356718,0.019842646759839877,0.9159961276522732,36.111111111111114,0.9999999999723078,1.1748251748252954,0.0,0.9984002085508499,0
547,438.95,0.9333333333333371,0.9750000000000227,0.7944444444443661,1.1748251748252954,0.01986486949821652,0.917021995952264,33.333333333333336,0.923076923051361,1.227272727272877,0.0,0.9977077195625104,0
548,439.925,0.9750000000000227,0.9472222222221944,0.7944444444443661,1.227272727272877,0.02030525712397169,0.937351610481015,36.111111111111114,0.9999999999723078,1.192307692307775,0.0,0.9946529368896888,0
549,440.8722222222222,0.9472222222221944,0.9499999999999886,0.7944444444443661,1.192307692307775,0.021576430310782536,0.9960327799231268,38.888888888888886,1.0769230768932543,1.1958041958042993,0.0,0.9941727335641832,0
550,441.8222222222222,0.9499999999999886,0.8444444444444912,0.7944444444443661,1.1958041958042993,0.02068036148592137,0.954667553619548,38.888888888888886,1.0769230768932543,1.0629370629372266,0.0,0.9956827441468417,0
551,442.6666666666667,0.8444444444444912,0.8416666666666401,0.7944444444443661,1.0629370629372266,0.01959859446302829,0.9047299411636588,36.111111111111114,0.9999999999723078,1.0594405594406304,0.0,0.9974376687448419,0
552,443.5083333333333,0.8416666666666401,0.8472222222222285,0.7944444444443661,1.0594405594406304,0.020406197965033433,0.9420113426555379,36.111111111111114,0.9999999999723078,1.0664335664336795,0.0,0.9978523095221559,0
553,444.35555555555555,0.8472222222222285,0.8944444444444457,0.7944444444443661,1.0664335664336795,0.020004057931438977,0.9234473517724261,36.111111111111114,0.9999999999723078,1.1258741258742384,0.0,0.9988331577698036,0
554,445.25,0.8944444444444457,0.8972222222222399,0.7944444444443661,1.1258741258742384,0.019308536205934018,0.8913399814719072,36.111111111111114,0.9999999999723078,1.129370629370763,0.0,0.9919182297030821,0
