beat_index,peak_time_s,rr_prev_s,rr_next_s,rr_baseline_s,prematurity_index,aa_ratio,morph_index,qrs_width_ms,width_index,pause_index,pvc_score,morphology_score,is_pvc_candidate
0,0.5,,0.9638888888888888,0.9777777777777601,,0.028770536085702327,1.175205578774954,36.111111111111114,1.0833333333008335,0.9857954545454722,0.0,0.9930017913691925,0
1,1.4638888888888888,0.9638888888888888,0.8888888888888891,0.9777777777777601,0.9857954545454722,0.02727510990217923,1.1141211002554228,30.555555555555557,0.9166666666391667,0.9090909090909257,0.0,0.9930558451438124,0
2,2.352777777777778,0.8888888888888891,0.8861111111111111,0.9777777777777601,0.9090909090909257,0.02752937277833175,1.124507112863589,30.555555555555557,0.9166666666391667,0.9062500000000163,0.0,0.9887267283938326,0
3,3.238888888888889,0.8861111111111111,0.9611111111111112,0.9777777777777601,0.9062500000000163,0.027437051399244978,1.1207360117822682,33.333333333333336,0.9999999999700001,0.9829545454545634,0.0,0.9952970434549576,0
4,4.2,0.9611111111111112,0.8916666666666666,0.9777777777777601,0.9829545454545634,0.024235619966732232,0.989965418271354,33.333333333333336,0.9999999999700001,0.9119318181818347,0.0,0.9974754913848625,0
5,5.091666666666667,0.8916666666666666,1.7416666666666663,0.9777777777777601,0.9119318181818347,0.027451248502293427,1.1213159284948133,38.888888888888886,1.1666666666316665,1.7812500000000318,0.0,0.9920320368964233,0
6,6.833333333333333,1.7416666666666663,0.9138888888888888,0.9777777777777601,1.7812500000000318,0.02138946700791091,0.8737070758723785,38.888888888888886,1.1666666666316665,0.9346590909091077,0.0,0.9125882107091712,0
7,7.747222222222222,0.9138888888888888,0.8305555555555557,0.9777777777777601,0.9346590909091077,0.02819772745899013,1.1518077563750744,30.555555555555557,0.9166666666391667,0.8494318181818337,0.0,0.9932263542880957,0
8,8.577777777777778,0.8305555555555557,0.9222222222222225,0.9777777777777601,0.8494318181818337,0.02203184648892072,0.8999466964176646,30.555555555555557,0.9166666666391667,0.9431818181818356,0.0,0.9941769346857949,0
9,9.5,0.9222222222222225,0.9277777777777771,0.9777777777777601,0.9431818181818356,0.023061494077259347,0.9420052658646576,30.555555555555557,0.9166666666391667,0.9488636363636529,0.0,0.9962526826230428,0
10,10.427777777777777,0.9277777777777771,0.8416666666666668,0.9777777777777601,0.9488636363636529,0.02289990019007047,0.9354045533456207,27.77777777777778,0.8333333333083334,0.8607954545454702,0.0,0.9994250297655072,0
11,11.269444444444444,0.8416666666666668,0.9111111111111114,0.9777777777777601,0.8607954545454702,0.027717268440445475,1.1321821881449774,30.555555555555557,0.9166666666391667,0.931818181818199,0.0,0.9901912329043264,0
12,12.180555555555555,0.9111111111111114,0.9305555555555554,0.9777777777777601,0.931818181818199,0.027605187414702203,1.127603954137243,33.333333333333336,0.9999999999700001,0.9517045454545625,0.0,0.9929752979013318,0
13,13.11111111111111,0.9305555555555554,0.875,0.9777777777777601,0.9517045454545625,0.024348528145192144,0.9945774394314791,30.555555555555557,0.9166666666391667,0.8948863636363799,0.0,0.9976145066306692,0
14,13.98611111111111,0.875,0.9500000000000011,0.9777777777777601,0.8948863636363799,0.02747418685649362,1.1222529037998157,33.333333333333336,0.9999999999700001,0.9715909090909277,0.0,0.995792811670198,0
15,14.936111111111112,0.9500000000000011,1.0083333333333329,0.9777777777777601,0.9715909090909277,0.028194469731420382,1.1516746862229335,36.111111111111114,1.0833333333008335,1.0312500000000182,0.0,0.9924467996346811,0
16,15.944444444444445,1.0083333333333329,0.8888888888888875,0.9777777777777601,1.0312500000000182,0.023577792979132012,0.9630948051067738,30.555555555555557,0.9166666666391667,0.9090909090909242,0.0,0.9985481840745352,0
17,16.833333333333332,0.8888888888888875,0.9861111111111107,0.9777777777777601,0.9090909090909242,0.022327319189123115,0.9120160288979209,30.555555555555557,0.9166666666391667,1.008522727272745,0.0,0.9986528401210142,0
18,17.819444444444443,0.9861111111111107,1.06666666666667,0.9777777777777601,1.008522727272745,0.023209839328740087,0.9480648042272943,33.333333333333336,0.9999999999700001,1.090909090909114,0.0,0.9990436974420632,0
19,18.886111111111113,1.06666666666667,0.8972222222222221,0.9777777777777601,1.090909090909114,0.027392861731670645,1.11893097263726,33.333333333333336,0.9999999999700001,0.9176136363636529,0.0,0.9958782792598975,0
20,19.783333333333335,0.8972222222222221,0.9944444444444436,0.9777777777777601,0.9176136363636529,0.022175118988448303,0.905799025349885,30.555555555555557,0.9166666666391667,1.0170454545454721,0.0,0.9945876874036235,0
21,20.77777777777778,0.9944444444444436,0.9638888888888886,0.9777777777777601,1.0170454545454721,0.028945084541939992,1.1823354535512187,36.111111111111114,1.0833333333008335,0.985795454545472,0.0,0.9936627927366593,0
22,21.741666666666667,0.9638888888888886,0.8611111111111107,0.9777777777777601,0.985795454545472,0.0222513812664177,0.9089141516809602,30.555555555555557,0.9166666666391667,0.8806818181818337,0.0,0.9949536090840134,0
23,22.602777777777778,0.8611111111111107,0.9472222222222229,0.9777777777777601,0.8806818181818337,0.027568399746700733,1.1261012684543392,30.555555555555557,0.9166666666391667,0.9687500000000182,0.0,0.9920168391683306,0
24,23.55,0.9472222222222229,0.9444444444444429,0.9777777777777601,0.9687500000000182,0.02402591118426892,0.9813993307179328,33.333333333333336,0.9999999999700001,0.9659090909091068,0.0,0.9978894463956612,0
25,24.494444444444444,0.9444444444444429,0.8861111111111128,0.9777777777777601,0.9659090909091068,0.027623698882107438,1.1283601020137073,38.888888888888886,1.1666666666316665,0.9062500000000182,0.0,0.9914171714662143,0
26,25.380555555555556,0.8861111111111128,1.0,0.9777777777777601,0.9062500000000182,0.02188213619190148,0.893831399304918,30.555555555555557,0.9166666666391667,1.0227272727272911,0.0,0.9934692772431483,0
27,26.380555555555556,1.0,0.9888888888888872,0.9777777777777601,1.0227272727272911,0.023981510722104252,0.9795856811327923,33.333333333333336,0.9999999999700001,1.011363636363653,0.0,0.9964200861748174,0
28,27.369444444444444,0.9888888888888872,0.9138888888888914,0.9777777777777601,1.011363636363653,0.027749649150388127,1.1335048604391584,47.22222222222222,1.4166666666241667,0.9346590909091104,0.0,0.9920422632281132,0
29,28.283333333333335,0.9138888888888914,0.9888888888888872,0.9777777777777601,0.9346590909091104,0.023639039308645193,0.9655965669060316,33.333333333333336,0.9999999999700001,1.011363636363653,0.0,0.9990856993695758,0
30,29.272222222222222,0.9888888888888872,0.9833333333333343,0.9777777777777601,1.011363636363653,0.02300090870353493,0.9395305024823901,33.333333333333336,0.9999999999700001,1.0056818181818374,0.0,0.998698640075033,0
31,30.255555555555556,0.9833333333333343,0.9222222222222207,0.9777777777777601,1.0056818181818374,0.02843444068267291,1.1614769088793286,30.555555555555557,0.9166666666391667,0.9431818181818337,0.0,0.9924789181602909,0
32,31.177777777777777,0.9222222222222207,0.9944444444444471,0.9777777777777601,0.9431818181818337,0.027901515212912127,1.1397082152662341,33.333333333333336,0.9999999999700001,1.0170454545454757,0.0,0.995887542989973,0
33,32.172222222222224,0.9944444444444471,0.93055555555555,0.9777777777777601,1.0170454545454757,0.022918072075676157,0.9361468301414735,33.333333333333336,0.9999999999700001,0.951704545454557,0.0,0.9990074145112539,0
34,33.102777777777774,0.93055555555555,0.88333333333334,0.9777777777777601,0.951704545454557,0.02126603700333406,0.8686652640154552,27.77777777777778,0.8333333333083334,0.903409090909114,0.0,0.9903133989102533,0
35,33.986111111111114,0.88333333333334,0.9833333333333272,0.9777777777777601,0.903409090909114,0.027745021237272644,1.1333158215802648,36.111111111111114,1.0833333333008335,1.0056818181818301,0.0,0.9941188900854588,0
36,34.96944444444444,0.9833333333333272,0.9777777777777814,0.9777777777777601,1.0056818181818301,0.027255681023185013,1.1133274783738099,33.333333333333336,0.9999999999700001,1.0000000000000218,0.0,0.9960502581808395,0
37,35.94722222222222,0.9777777777777814,0.8888888888888857,0.9777777777777601,1.0000000000000218,0.028729251156797503,1.1735191910544143,38.888888888888886,1.1666666666316665,0.9090909090909223,0.0,0.9924701402886047,0
38,36.83611111111111,0.8888888888888857,0.9888888888888943,0.9777777777777601,0.9090909090909223,0.023140484832571872,0.945231843778896,33.333333333333336,0.9999999999700001,1.0113636363636602,0.0,0.9997365192648393,0
39,37.825,0.9888888888888943,0.9222222222222172,0.9777777777777601,1.0113636363636602,0.027656489092500448,1.1296995013932767,30.555555555555557,0.9166666666391667,0.9431818181818301,0.0,0.9923982733187966,0
40,38.74722222222222,0.9222222222222172,0.9277777777777771,0.9777777777777601,0.9431818181818301,0.02289469451331851,0.9351919142643752,30.555555555555557,0.9166666666391667,0.9488636363636529,0.0,0.9977327852577653,0
41,39.675,0.9277777777777771,0.9527777777777828,0.9777777777777601,0.9488636363636529,0.022184558671670396,0.9061846131731853,30.555555555555557,0.9166666666391667,0.974431818181841,0.0,0.9981402512740809,0
42,40.62777777777778,0.9527777777777828,0.9499999999999957,0.9777777777777601,0.974431818181841,0.02327644724261043,0.9507855735496946,33.333333333333336,0.9999999999700001,0.9715909090909223,0.0,0.9993624480692247,0
43,41.577777777777776,0.9499999999999957,0.8888888888888928,0.9777777777777601,0.9715909090909223,0.028773708670034738,1.1753351710354345,33.333333333333336,0.9999999999700001,0.9090909090909296,0.0,0.9959402551920007,0
44,42.46666666666667,0.8888888888888928,0.9722222222222214,0.9777777777777601,0.9090909090909296,0.023241828310460844,0.9493714753878726,30.555555555555557,0.9166666666391667,0.994318181818199,0.0,0.9985030809981362,0
45,43.43888888888889,0.9722222222222214,0.9416666666666629,0.9777777777777601,0.994318181818199,0.022057749104479833,0.9010047545024793,30.555555555555557,0.9166666666391667,0.9630681818181953,0.0,0.9978077170729108,0
46,44.38055555555555,0.9416666666666629,0.9083333333333385,0.9777777777777601,0.9630681818181953,0.028687641777847873,1.1718195503481965,30.555555555555557,0.9166666666391667,0.9289772727272949,0.0,0.9919377495366268,0
47,45.28888888888889,0.9083333333333385,0.9638888888888886,0.9777777777777601,0.9289772727272949,0.02663358977238295,1.087916582091867,30.555555555555557,0.9166666666391667,0.985795454545472,0.0,0.9875500074363428,0
48,46.25277777777778,0.9638888888888886,1.0194444444444457,0.9777777777777601,0.985795454545472,0.023775534784814305,0.9711720711160905,30.555555555555557,0.9166666666391667,1.0426136363636564,0.0,0.998656925673424,0
49,47.272222222222226,1.0194444444444457,0.93055555555555,0.9777777777777601,1.0426136363636564,0.028130548228334246,1.1490636501683138,30.555555555555557,0.9166666666391667,0.951704545454557,0.0,0.9926925520283203,0
50,48.202777777777776,0.93055555555555,0.9833333333333343,0.9777777777777601,0.951704545454557,0.023862024453548025,0.9747049611845789,30.555555555555557,0.9166666666391667,1.0056818181818374,0.0,0.9984047772960571,0
51,49.18611111111111,0.9833333333333343,0.9472222222222229,0.9777777777777601,1.0056818181818374,0.0232036930411414,0.9478137435083277,33.333333333333336,0.9999999999700001,0.9687500000000182,0.0,0.9984459178326748,0
52,50.13333333333333,0.9472222222222229,0.8972222222222257,0.9777777777777601,0.9687500000000182,0.02847031370774477,1.1629422336500037,30.555555555555557,0.9166666666391667,0.9176136363636566,0.0,0.9924780312472206,0
53,51.03055555555556,0.8972222222222257,0.9555555555555557,0.9777777777777601,0.9176136363636566,0.021617668868380978,0.8830285601406026,27.77777777777778,0.8333333333083334,0.9772727272727451,0.0,0.9923200475599656,0
54,51.986111111111114,0.9555555555555557,0.9444444444444429,0.9777777777777601,0.9772727272727451,0.028388323929922733,1.1595931530485177,36.111111111111114,1.0833333333008335,0.9659090909091068,0.0,0.9931146910247073,0
55,52.93055555555556,0.9444444444444429,0.8638888888888872,0.9777777777777601,0.9659090909091068,0.02330733103262053,0.9520471003493853,30.555555555555557,0.9166666666391667,0.8835227272727415,0.0,0.9972728176083467,0
56,53.794444444444444,0.8638888888888872,0.9861111111111143,0.9777777777777601,0.8835227272727415,0.024254345977010712,0.9907303296960807,33.333333333333336,0.9999999999700001,1.0085227272727488,0.0,0.9961145835055918,0
57,54.78055555555556,0.9861111111111143,0.9249999999999972,0.9777777777777601,1.0085227272727488,0.022840436548580215,0.9329756099639105,30.555555555555557,0.9166666666391667,0.9460227272727415,0.0,0.9980156765082229,0
58,55.705555555555556,0.9249999999999972,0.8861111111111128,0.9777777777777601,0.9460227272727415,0.02786827217015919,1.1383503187994344,30.555555555555557,0.9166666666391667,0.9062500000000182,0.0,0.9925153355306906,0
59,56.59166666666667,0.8861111111111128,0.9916666666666671,0.9777777777777601,0.9062500000000182,0.02724109824235913,1.1127318076734247,30.555555555555557,0.9166666666391667,1.0142045454545643,0.0,0.9890557663369428,0
60,57.583333333333336,0.9916666666666671,0.93888888888889,0.9777777777777601,1.0142045454545643,0.02269745899977039,0.9271353290424724,33.333333333333336,0.9999999999700001,0.9602272727272912,0.0,0.9992712211071255,0
61,58.522222222222226,0.93888888888889,0.875,0.9777777777777601,0.9602272727272912,0.027954342631720013,1.1418660852868125,33.333333333333336,0.9999999999700001,0.8948863636363799,0.0,0.9964277768782583,0
62,59.397222222222226,0.875,0.9666666666666615,0.9777777777777601,0.8948863636363799,0.023462521200905175,0.9583862367143061,30.555555555555557,0.9166666666391667,0.9886363636363762,0.0,0.9983954557870327,0
63,60.36388888888889,0.9666666666666615,0.9138888888888914,0.9777777777777601,0.9886363636363762,0.027077656369237264,1.1060556094779486,33.333333333333336,0.9999999999700001,0.9346590909091104,0.0,0.9955891292507817,0
64,61.27777777777778,0.9138888888888914,0.8833333333333329,0.9777777777777601,0.9346590909091104,0.028157040712077402,1.1501458029164522,33.333333333333336,0.9999999999700001,0.9034090909091068,0.0,0.9953311000593148,0
65,62.16111111111111,0.8833333333333329,0.9666666666666686,0.9777777777777601,0.9034090909091068,0.021885523683125383,0.8939697699829103,27.77777777777778,0.8333333333083334,0.9886363636363834,0.0,0.9968491872193121,0
66,63.12777777777778,0.9666666666666686,0.9666666666666686,0.9777777777777601,0.9886363636363834,0.023741431228402242,0.9697790247845194,33.333333333333336,0.9999999999700001,0.9886363636363834,0.0,0.9972773408982649,0
67,64.09444444444445,0.9666666666666686,0.8944444444444457,0.9777777777777601,0.9886363636363834,0.022933977978248508,0.9367965471082619,30.555555555555557,0.9166666666391667,0.9147727272727451,0.0,0.9994043999974089,0
68,64.9888888888889,0.8944444444444457,0.9749999999999943,0.9777777777777601,0.9147727272727451,0.02337382508773335,0.9547632188218107,33.333333333333336,0.9999999999700001,0.9971590909091032,0.0,0.996957589906436,0
69,65.96388888888889,0.9749999999999943,0.9361111111111171,0.9777777777777601,0.9971590909091032,0.022596897069360144,0.9230276217241776,30.555555555555557,0.9166666666391667,0.9573863636363871,0.0,0.9982085130231044,0
70,66.9,0.9361111111111171,0.8916666666666657,0.9777777777777601,0.9573863636363871,0.023183907508543315,0.9470055532049202,30.555555555555557,0.9166666666391667,0.9119318181818337,0.0,0.9968262796899896,0
71,67.79166666666667,0.8916666666666657,1.0083333333333258,0.9777777777777601,0.9119318181818337,0.022082120505356982,0.9020002662367087,30.555555555555557,0.9166666666391667,1.0312500000000109,0.0,0.9965061447213928,0
72,68.8,1.0083333333333258,0.9777777777777743,0.9777777777777601,1.0312500000000109,0.028504153702718017,1.164324514145571,36.111111111111114,1.0833333333008335,1.0000000000000144,0.0,0.9910067898208401,0
73,69.77777777777777,0.9777777777777743,0.9055555555555657,0.9777777777777601,1.0000000000000144,0.027960118317955345,1.1421020078523427,33.333333333333336,0.9999999999700001,0.9261363636363907,0.0,0.9960192928678664,0
74,70.68333333333334,0.9055555555555657,1.0111111111111057,0.9777777777777601,0.9261363636363907,0.023556064087066272,0.9622072333528033,30.555555555555557,0.9166666666391667,1.0340909090909223,0.0,0.998472258508605,0
75,71.69444444444444,1.0111111111111057,0.9611111111111086,0.9777777777777601,1.0340909090909223,0.02276418323247031,0.9298608497027354,30.555555555555557,0.9166666666391667,0.9829545454545606,0.0,0.9995654974678087,0
76,72.65555555555555,0.9611111111111086,0.9333333333333371,0.9777777777777601,0.9829545454545606,0.02707061947808175,1.1057681697959572,30.555555555555557,0.9166666666391667,0.9545454545454757,0.0,0.9903508319650389,0
77,73.58888888888889,0.9333333333333371,0.9666666666666686,0.9777777777777601,0.9545454545454757,0.0282908094430541,1.1556099262974409,38.888888888888886,1.1666666666316665,0.9886363636363834,0.0,0.9936405753003512,0
78,74.55555555555556,0.9666666666666686,0.9833333333333343,0.9777777777777601,0.9886363636363834,0.028194888140578987,1.1516917772071245,36.111111111111114,1.0833333333008335,1.0056818181818374,0.0,0.9931912053236622,0
79,75.53888888888889,0.9833333333333343,0.9777777777777743,0.9777777777777601,1.0056818181818374,0.027264238054155652,1.1136770120253376,30.555555555555557,0.9166666666391667,1.0000000000000144,0.0,0.9910338846939389,0
80,76.51666666666667,0.9777777777777743,0.9083333333333314,0.9777777777777601,1.0000000000000144,0.02381525290600547,0.9727944585983145,30.555555555555557,0.9166666666391667,0.9289772727272876,0.0,0.997130540921437,0
81,77.425,0.9083333333333314,0.9222222222222314,0.9777777777777601,0.9289772727272876,0.02844321042263343,1.1618351311694974,33.333333333333336,0.9999999999700001,0.9431818181818447,0.0,0.9949685844843534,0
82,78.34722222222223,0.9222222222222314,0.9777777777777743,0.9777777777777601,0.9431818181818447,0.0221331529284837,0.9040848151021963,30.555555555555557,0.9166666666391667,1.0000000000000144,0.0,0.9980153313792194,0
83,79.325,0.9777777777777743,0.9194444444444372,0.9777777777777601,1.0000000000000144,0.022871588614030165,0.9342480951549437,30.555555555555557,0.9166666666391667,0.9403409090909187,0.0,0.9988403758406876,0
84,80.24444444444444,0.9194444444444372,0.9611111111111086,0.9777777777777601,0.9403409090909187,0.02340459528016743,0.956020105440148,30.555555555555557,0.9166666666391667,0.9829545454545606,0.0,0.9980413630566115,0
85,81.20555555555555,0.9611111111111086,0.9972222222222342,0.9777777777777601,0.9829545454545606,0.027015192466068566,1.1035041127919902,33.333333333333336,0.9999999999700001,1.0198863636363944,0.0,0.9941455295797463,0
86,82.20277777777778,0.9972222222222342,0.9249999999999972,0.9777777777777601,1.0198863636363944,0.028449084657199,1.1620750791917356,33.333333333333336,0.9999999999700001,0.9460227272727415,0.0,0.9912710535076963,0
87,83.12777777777778,0.9249999999999972,0.9833333333333343,0.9777777777777601,0.9460227272727415,0.02679282273723184,1.0944208567448614,30.555555555555557,0.9166666666391667,1.0056818181818374,0.0,0.9954724373901808,0
88,84.11111111111111,0.9833333333333343,0.99166666666666,0.9777777777777601,1.0056818181818374,0.028706759095355583,1.172600445710012,36.111111111111114,1.0833333333008335,1.014204545454557,0.0,0.993245470051348,0
89,85.10277777777777,0.99166666666666,0.9388888888888971,0.9777777777777601,1.014204545454557,0.02378504762035592,0.9715606470315747,30.555555555555557,0.9166666666391667,0.9602272727272985,0.0,0.998809359321303,0
90,86.04166666666667,0.9388888888888971,0.9694444444444343,0.9777777777777601,0.9602272727272985,0.021879028069231962,0.8937044401446905,27.77777777777778,0.8333333333083334,0.9914772727272804,0.0,0.9927508535109567,0
91,87.0111111111111,0.9694444444444343,1.0222222222222257,0.9777777777777601,0.9914772727272804,0.027561953133105048,1.125837940157665,33.333333333333336,0.9999999999700001,1.0454545454545678,0.0,0.9925652525566547,0
92,88.03333333333333,1.0222222222222257,0.9083333333333314,0.9777777777777601,1.0454545454545678,0.027706540747616155,1.1317439882997313,33.333333333333336,0.9999999999700001,0.9289772727272876,0.0,0.9960474065705802,0
93,88.94166666666666,0.9083333333333314,0.9444444444444429,0.9777777777777601,0.9289772727272876,0.027232421334896874,1.1123773773622971,47.22222222222222,1.4166666666241667,0.9659090909091068,0.0,0.9909852433797739,0
94,89.8861111111111,0.9444444444444429,0.9583333333333428,0.9777777777777601,0.9659090909091068,0.02835237200795733,1.1581246055339507,36.111111111111114,1.0833333333008335,0.9801136363636638,0.0,0.9923222615275437,0
95,90.84444444444445,0.9583333333333428,0.8972222222222115,0.9777777777777601,0.9801136363636638,0.022740148665441457,0.928879096802073,30.555555555555557,0.9166666666391667,0.917613636363642,0.0,0.9973601604928473,0
96,91.74166666666666,0.8972222222222115,0.9166666666666714,0.9777777777777601,0.917613636363642,0.02300021660875543,0.9395022321142785,27.77777777777778,0.8333333333083334,0.9375000000000218,0.0,0.9971442018502137,0
97,92.65833333333333,0.9166666666666714,0.9833333333333343,0.9777777777777601,0.9375000000000218,0.027090419685456342,1.1065769595278625,33.333333333333336,0.9999999999700001,1.0056818181818374,0.0,0.9956823513488307,0
98,93.64166666666667,0.9833333333333343,0.875,0.9777777777777601,1.0056818181818374,0.027575602034588233,1.1263954641856986,33.333333333333336,0.9999999999700001,0.8948863636363799,0.0,0.992996905650797,0
99,94.51666666666667,0.875,1.7361111111111143,0.9777777777777601,0.8948863636363799,0.027676943028728977,1.130534994339674,30.555555555555557,0.9166666666391667,1.7755681818182172,0.0,0.9877629831920427,0
100,96.25277777777778,1.7361111111111143,0.9027777777777715,0.9777777777777601,1.7755681818182172,0.025074429436545805,1.0242287203355813,38.888888888888886,1.1666666666316665,0.9232954545454648,0.0,0.9221856458405897,0
101,97.15555555555555,0.9027777777777715,1.6972222222222229,0.9777777777777601,0.9232954545454648,0.02823393401357398,1.1532867050053124,38.888888888888886,1.1666666666316665,1.7357954545454866,0.0,0.9914615691523306,0
102,98.85277777777777,1.6972222222222229,1.7250000000000085,0.9777777777777601,1.7357954545454866,0.026066581411048537,1.0647556862549838,41.666666666666664,1.2499999999625,1.764204545454586,0.0,0.9140765034797966,0
103,100.57777777777778,1.7250000000000085,1.7555555555555458,0.9777777777777601,1.764204545454586,0.01856484477192439,0.7583282105020945,33.333333333333336,0.9999999999700001,1.7954545454545678,0.0,0.942913917203396,0
104,102.33333333333333,1.7555555555555458,1.6777777777777771,0.9777777777777601,1.7954545454545678,0.026474995232928667,1.0814383855447218,38.888888888888886,1.1666666666316665,1.7159090909091212,0.0,0.9102625732113356,0
105,104.0111111111111,1.6777777777777771,1.7000000000000028,0.9777777777777601,1.7159090909091212,0.024577878744814808,1.0039458468663995,38.888888888888886,1.1666666666316665,1.738636363636398,0.0,0.9294575322786951,0
106,105.71111111111111,1.7000000000000028,1.6611111111111114,0.9777777777777601,1.738636363636398,0.023766942159858338,0.9708210835378788,38.888888888888886,1.1666666666316665,1.6988636363636673,0.0,0.9301853835609513,0
107,107.37222222222222,1.6611111111111114,1.6972222222222229,0.9777777777777601,1.6988636363636673,0.01915943576374352,0.7826157888980505,36.111111111111114,1.0833333333008335,1.7357954545454866,0.0,0.9325862633790098,0
108,109.06944444444444,1.6972222222222229,1.6611111111111114,0.9777777777777601,1.7357954545454866,0.01853874942931716,0.7572622799917729,33.333333333333336,0.9999999999700001,1.6988636363636673,0.0,0.9430753336840467,0
109,110.73055555555555,1.6611111111111114,1.6527777777777857,0.9777777777777601,1.6988636363636673,0.020225285806038596,0.8261531394747461,36.111111111111114,1.0833333333008335,1.6903409090909478,0.0,0.9262757681018374,0
110,112.38333333333334,1.6527777777777857,1.6694444444444372,0.9777777777777601,1.6903409090909478,0.01788986212734159,0.7307568309794105,33.333333333333336,0.9999999999700001,1.707386363636387,0.0,0.9453409893206377,0
111,114.05277777777778,1.6694444444444372,1.6361111111111057,0.9777777777777601,1.707386363636387,0.020084430006545126,0.8203995267900733,36.111111111111114,1.0833333333008335,1.6732954545454792,0.0,0.9222640252745197,0
112,115.68888888888888,1.6361111111111057,1.5916666666666686,0.9777777777777601,1.6732954545454792,0.019754842632359996,0.8069366938528505,36.111111111111114,1.0833333333008335,1.6278409090909405,0.0,0.9307532073586757,0
113,117.28055555555555,1.5916666666666686,1.5722222222222229,0.9777777777777601,1.6278409090909405,0.028217811886585453,1.152628155803372,38.888888888888886,1.1666666666316665,1.6079545454545752,0.0,0.9902289766996952,0
114,118.85277777777777,1.5722222222222229,1.5833333333333428,0.9777777777777601,1.6079545454545752,0.029413800254714368,1.2014813366474209,36.111111111111114,1.0833333333008335,1.6193181818182207,0.0,0.9904420942453309,0
115,120.43611111111112,1.5833333333333428,1.6111111111111,0.9777777777777601,1.6193181818182207,0.02874901592224319,1.174326533070766,38.888888888888886,1.1666666666316665,1.6477272727272911,0.0,0.9920041562218149,0
116,122.04722222222222,1.6111111111111,1.63611111111112,0.9777777777777601,1.6477272727272911,0.023178379322821522,0.9467797404261313,30.555555555555557,0.9166666666391667,1.6732954545454939,0.0,0.9975265519185691,0
117,123.68333333333334,1.63611111111112,1.6305555555555458,0.9777777777777601,1.6732954545454939,0.024730657926798384,1.0101865003757027,33.333333333333336,0.9999999999700001,1.6676136363636564,0.0,0.996666927715179,0
118,125.31388888888888,1.6305555555555458,1.6083333333333343,0.9777777777777601,1.6676136363636564,0.023779845135428974,0.9713481383285243,33.333333333333336,0.9999999999700001,1.6448863636363944,0.0,0.9979319862291032,0
119,126.92222222222222,1.6083333333333343,1.5666666666666629,0.9777777777777601,1.6448863636363944,0.0242032128433573,0.9886416670534822,30.555555555555557,0.9166666666391667,1.6022727272727524,0.0,0.9954349663251877,0
120,128.48888888888888,1.5666666666666629,1.5583333333333371,0.9777777777777601,1.6022727272727524,0.024012293061401936,0.9808430639206076,33.333333333333336,0.9999999999700001,1.5937500000000326,0.0,0.9971900370960626,0
121,130.04722222222222,1.5583333333333371,1.61388888888888,0.9777777777777601,1.5937500000000326,0.027439506011463683,1.1208362766492335,38.888888888888886,1.1666666666316665,1.6505681818182025,0.0,0.9915818890365442,0
122,131.6611111111111,1.61388888888888,1.6972222222222229,0.9777777777777601,1.6505681818182025,0.030472249815949624,1.2447163957895317,36.111111111111114,1.0833333333008335,1.7357954545454866,0.0,0.9843085971044448,0
123,133.35833333333332,1.6972222222222229,1.63611111111112,0.9777777777777601,1.7357954545454866,0.022991891221126437,0.9391621605230538,33.333333333333336,0.9999999999700001,1.6732954545454939,0.0,0.9969596166454247,0
124,134.99444444444444,1.63611111111112,1.6277777777777942,0.9777777777777601,1.6732954545454939,0.02966191237015385,1.21161610582091,33.333333333333336,0.9999999999700001,1.6647727272727741,0.0,0.9928013363090789,0
125,136.62222222222223,1.6277777777777942,1.6611111111110972,0.9777777777777601,1.6647727272727741,0.023170995484126548,0.9464781287911844,30.555555555555557,0.9166666666391667,1.698863636363653,0.0,0.9958340075905068,0
126,138.28333333333333,1.6611111111110972,1.6388888888888857,0.9777777777777601,1.698863636363653,0.028949527469747147,1.1825169362156192,38.888888888888886,1.1666666666316665,1.6761363636363906,0.0,0.9927532616465996,0
127,139.92222222222222,1.6388888888888857,1.6611111111111256,0.9777777777777601,1.6761363636363906,0.025007709372120133,1.0215033699390608,33.333333333333336,0.9999999999700001,1.698863636363682,0.0,0.9920913907461508,0
128,141.58333333333334,1.6611111111111256,1.6361111111110915,0.9777777777777601,1.698863636363682,0.023327810698812547,0.9528836443014554,30.555555555555557,0.9166666666391667,1.6732954545454648,0.0,0.997940350210391,0
129,143.21944444444443,1.6361111111110915,1.6222222222222342,0.9777777777777601,1.6732954545454648,0.024331139494891414,0.9938671558698552,33.333333333333336,0.9999999999700001,1.6590909090909514,0.0,0.996896019421065,0
130,144.84166666666667,1.6222222222222342,1.2638888888888857,0.9777777777777601,1.6590909090909514,0.024970702368392345,1.0199917249316446,33.333333333333336,0.9999999999700001,1.2926136363636564,0.0,0.996671621842455,0
131,146.10555555555555,1.2638888888888857,1.1027777777777885,0.9777777777777601,1.2926136363636564,0.024391242033682686,0.9963221966336295,33.333333333333336,0.9999999999700001,1.1278409090909405,0.0,0.9982813480726349,0
132,147.20833333333334,1.1027777777777885,0.6805555555555429,0.9777777777777601,1.1278409090909405,0.023557909619501115,0.9622826188098826,30.555555555555557,0.9166666666391667,0.696022727272727,0.0,0.9987181621163232,0
133,147.88888888888889,0.6805555555555429,0.42222222222221717,0.9777777777777601,0.696022727272727,0.04927363489560349,2.0127066956048307,105.55555555555556,3.166666666571667,0.4318181818181845,1.0,0.6940965976412702,1
134,148.3111111111111,0.42222222222221717,1.0777777777777828,0.9777777777777601,0.4318181818181845,0.04233909105602758,1.7294476495358546,97.22222222222223,2.9166666665791667,1.1022727272727524,1.0,0.7402461381966929,1
135,149.38888888888889,1.0777777777777828,0.9138888888888914,0.9777777777777601,1.1022727272727524,0.023360604777385656,0.9542232016866602,30.555555555555557,0.9166666666391667,0.9346590909091104,0.0,0.996710949584813,0
136,150.30277777777778,0.9138888888888914,0.9222222222222172,0.9777777777777601,0.9346590909091104,0.022169448280048177,0.905567390870514,27.77777777777778,0.8333333333083334,0.9431818181818301,0.0,0.9961755037409039,0
137,151.225,0.9222222222222172,0.9166666666666856,0.9777777777777601,0.9431818181818301,0.023733762507489525,0.9694657764122315,33.333333333333336,0.9999999999700001,0.9375000000000363,0.0,0.9963534887464353,0
138,152.14166666666668,0.9166666666666856,0.8861111111110915,0.9777777777777601,0.9375000000000363,0.023893281271731112,0.975981725266906,30.555555555555557,0.9166666666391667,0.9062499999999963,0.0,0.9976364855230202,0
139,153.02777777777777,0.8861111111110915,0.9333333333333371,0.9777777777777601,0.9062499999999963,0.02220050058559932,0.9068358011152458,30.555555555555557,0.9166666666391667,0.9545454545454757,0.0,0.9985823423289033,0
140,153.9611111111111,0.9333333333333371,1.00555555555556,0.9777777777777601,0.9545454545454757,0.023104948880472223,0.9437802876094112,33.333333333333336,0.9999999999700001,1.028409090909114,0.0,0.999299566529284,0
141,154.96666666666667,1.00555555555556,0.9166666666666572,0.9777777777777601,1.028409090909114,0.02834430946810767,1.1577952706274965,30.555555555555557,0.9166666666391667,0.9375000000000072,0.0,0.9920755903064301,0
142,155.88333333333333,0.9166666666666572,1.0027777777777942,0.9777777777777601,0.9375000000000072,0.02263803959977359,0.9247081928168668,30.555555555555557,0.9166666666391667,1.0255681818182172,0.0,0.9975306209030521,0
143,156.88611111111112,1.0027777777777942,1.0111111111110915,0.9777777777777601,1.0255681818182172,0.02303225629150458,0.9408109742870632,33.333333333333336,0.9999999999700001,1.0340909090909078,0.0,0.9985869598446606,0
144,157.8972222222222,1.0111111111110915,0.9694444444444628,0.9777777777777601,1.0340909090909078,0.028652439236058088,1.170381613169161,38.888888888888886,1.1666666666316665,0.9914772727273093,0.0,0.9939169054602293,0
145,158.86666666666667,0.9694444444444628,1.044444444444423,0.9777777777777601,0.9914772727273093,0.02870483118481316,1.1725216953100166,36.111111111111114,1.0833333333008335,1.0681818181818155,0.0,0.9919539290062735,0
146,159.9111111111111,1.044444444444423,1.01111111111112,0.9777777777777601,1.0681818181818155,0.024617409099567458,1.005560564551808,33.333333333333336,0.9999999999700001,1.034090909090937,0.0,0.9956827369795391,0
147,160.92222222222222,1.01111111111112,0.9166666666666856,0.9777777777777601,1.034090909090937,0.023731538886776832,0.9693749469796881,30.555555555555557,0.9166666666391667,0.9375000000000363,0.0,0.9977187401655785,0
148,161.8388888888889,0.9166666666666856,0.9499999999999886,0.9777777777777601,0.9375000000000363,0.02832513161773385,1.1570119026471055,33.333333333333336,0.9999999999700001,0.9715909090909151,0.0,0.9950868468279035,0
149,162.7888888888889,0.9499999999999886,0.9222222222222172,0.9777777777777601,0.9715909090909151,0.02221898153672525,0.907590702476818,30.555555555555557,0.9166666666391667,0.9431818181818301,0.0,0.9985546424174144,0
150,163.7111111111111,0.9222222222222172,0.9138888888888914,0.9777777777777601,0.9431818181818301,0.029919074912901012,1.2221205626717717,33.333333333333336,0.9999999999700001,0.9346590909091104,0.0,0.9944413390105301,0
151,164.625,0.9138888888888914,0.9472222222222229,0.9777777777777601,0.9346590909091104,0.022303208747601555,0.9110311767110009,33.333333333333336,0.9999999999700001,0.9687500000000182,0.0,0.9979324883814993,0
152,165.57222222222222,0.9472222222222229,0.9805555555555543,0.9777777777777601,0.9687500000000182,0.023387662172049586,0.9553284296553517,33.333333333333336,0.9999999999700001,1.002840909090926,0.0,0.9980169497241211,0
153,166.55277777777778,0.9805555555555543,0.9305555555555429,0.9777777777777601,1.002840909090926,0.029290945881991586,1.1964630379347856,33.333333333333336,0.9999999999700001,0.9517045454545497,0.0,0.9948905897212323,0
154,167.48333333333332,0.9305555555555429,1.0083333333333542,0.9777777777777601,0.9517045454545497,0.027730456904796388,1.13272090444955,38.888888888888886,1.1666666666316665,1.03125000000004,0.0,0.9925180285682058,0
155,168.49166666666667,1.0083333333333542,1.0333333333333314,0.9777777777777601,1.03125000000004,0.02779951993290976,1.1355419591453735,33.333333333333336,0.9999999999700001,1.056818181818199,0.0,0.9954443061398028,0
156,169.525,1.0333333333333314,0.9472222222222229,0.9777777777777601,1.056818181818199,0.02243259001316252,0.9163160829297546,30.555555555555557,0.9166666666391667,0.9687500000000182,0.0,0.9949598869384979,0
157,170.47222222222223,0.9472222222222229,1.0472222222222172,0.9777777777777601,0.9687500000000182,0.022370975137025684,0.9137992669081192,33.333333333333336,0.9999999999700001,1.0710227272727415,0.0,0.9983535525025711,0
158,171.51944444444445,1.0472222222222172,1.0361111111110972,0.9777777777777601,1.0710227272727415,0.028473025346878986,1.163052997433781,36.111111111111114,1.0833333333008335,1.059659090909096,0.0,0.9926005250506696,0
159,172.55555555555554,1.0361111111110972,0.9944444444444684,0.9777777777777601,1.059659090909096,0.021668766022472714,0.8851157531066722,27.77777777777778,0.8333333333083334,1.0170454545454974,0.0,0.9935460335262501,0
160,173.55,0.9944444444444684,1.044444444444423,0.9777777777777601,1.0170454545454974,0.02388174432285392,0.9755104693041345,30.555555555555557,0.9166666666391667,1.0681818181818155,0.0,0.996760358299067,0
161,174.59444444444443,1.044444444444423,1.0444444444444514,0.9777777777777601,1.0681818181818155,0.02343939368346992,0.9574415345567876,33.333333333333336,0.9999999999700001,1.0681818181818445,0.0,0.9990471635065084,0
162,175.63888888888889,1.0444444444444514,0.9527777777777828,0.9777777777777601,1.0681818181818445,0.022990642059337405,0.9391111353388553,30.555555555555557,0.9166666666391667,0.974431818181841,0.0,0.9982693302359147,0
163,176.59166666666667,0.9527777777777828,1.0166666666666515,0.9777777777777601,0.974431818181841,0.023527681326196946,0.9610478674370864,33.333333333333336,0.9999999999700001,1.0397727272727306,0.0,0.9988412268323335,0
164,177.60833333333332,1.0166666666666515,0.950000000000017,0.9777777777777601,1.0397727272727306,0.02278090056955494,0.9305437117719577,30.555555555555557,0.9166666666391667,0.9715909090909441,0.0,0.999460297286384,0
165,178.55833333333334,0.950000000000017,0.9416666666666629,0.9777777777777601,0.9715909090909441,0.022559439341292974,0.9214975657369815,30.555555555555557,0.9166666666391667,0.9630681818181953,0.0,0.9978165035053292,0
166,179.5,0.9416666666666629,1.0666666666666629,0.9777777777777601,0.9630681818181953,0.027980442467477773,1.142932199331273,38.888888888888886,1.1666666666316665,1.0909090909091068,0.0,0.992443731064337,0
167,180.56666666666666,1.0666666666666629,0.9638888888889028,0.9777777777777601,1.0909090909091068,0.022134073510838414,0.9041224186253201,30.555555555555557,0.9166666666391667,0.9857954545454866,0.0,0.998159044820025,0
168,181.53055555555557,0.9638888888889028,0.9722222222222001,0.9777777777777601,0.9857954545454866,0.02798767978138603,1.1432278257893618,30.555555555555557,0.9166666666391667,0.9943181818181772,0.0,0.98996670468167,0
169,182.50277777777777,0.9722222222222001,0.9861111111111143,0.9777777777777601,0.9943181818181772,0.024064650086105397,0.9829817194999224,33.333333333333336,0.9999999999700001,1.0085227272727488,0.0,0.9973288329075388,0
170,183.48888888888888,0.9861111111111143,0.9388888888888971,0.9777777777777601,1.0085227272727488,0.027050313338824798,1.1049387139920381,33.333333333333336,0.9999999999700001,0.9602272727272985,0.0,0.9952238600125605,0
171,184.42777777777778,0.9388888888888971,0.9361111111111029,0.9777777777777601,0.9602272727272985,0.023411665442188125,0.9563089041550837,30.555555555555557,0.9166666666391667,0.9573863636363725,0.0,0.9972919806386853,0
172,185.36388888888888,0.9361111111111029,1.01666666666668,0.9777777777777601,0.9573863636363725,0.027436587076166107,1.1207170453274542,33.333333333333336,0.9999999999700001,1.0397727272727597,0.0,0.9957879873693618,0
173,186.38055555555556,1.01666666666668,0.98888888888888,0.9777777777777601,1.0397727272727597,0.022334865060955462,0.9123242591876756,33.333333333333336,0.9999999999700001,1.0113636363636456,0.0,0.9992558384628161,0
174,187.36944444444444,0.98888888888888,1.0333333333333314,0.9777777777777601,1.0113636363636456,0.02764853225334845,1.1293744841001339,38.888888888888886,1.1666666666316665,1.056818181818199,0.0,0.9931650627892901,0
175,188.40277777777777,1.0333333333333314,1.0388888888888914,0.9777777777777601,1.056818181818199,0.02205737929653682,0.9009896487583108,30.555555555555557,0.9166666666391667,1.0625000000000218,0.0,0.994580338083847,0
176,189.44166666666666,1.0388888888888914,0.9722222222222285,0.9777777777777601,1.0625000000000218,0.027637900673444845,1.1289402102313157,33.333333333333336,0.9999999999700001,0.9943181818182063,0.0,0.9957899377687396,0
177,190.4138888888889,0.9722222222222285,0.9555555555555486,0.9777777777777601,0.9943181818182063,0.022095358007088495,0.9025409855975707,30.555555555555557,0.9166666666391667,0.9772727272727378,0.0,0.9877353745051485,0
178,191.36944444444444,0.9555555555555486,0.9749999999999943,0.9777777777777601,0.9772727272727378,0.027885041926262302,1.1390353220565292,36.111111111111114,1.0833333333008335,0.9971590909091032,0.0,0.994329460911713,0
179,192.34444444444443,0.9749999999999943,0.950000000000017,0.9777777777777601,0.9971590909091032,0.02216038257291321,0.9051970790498091,30.555555555555557,0.9166666666391667,0.9715909090909441,0.0,0.9978243128486344,0
180,193.29444444444445,0.950000000000017,0.9666666666666686,0.9777777777777601,0.9715909090909441,0.02375828495225902,0.97046745791766,30.555555555555557,0.9166666666391667,0.9886363636363834,0.0,0.995182325121706,0
181,194.26111111111112,0.9666666666666686,0.9694444444444343,0.9777777777777601,0.9886363636363834,0.028789360738105587,1.1759745194876647,36.111111111111114,1.0833333333008335,0.9914772727272804,0.0,0.994364320828963,0
182,195.23055555555555,0.9694444444444343,0.9749999999999943,0.9777777777777601,0.9914772727272804,0.02217729733941044,0.9058880056245523,30.555555555555557,0.9166666666391667,0.9971590909091032,0.0,0.9984398542159896,0
183,196.20555555555555,0.9749999999999943,0.9722222222222285,0.9777777777777601,0.9971590909091032,0.029055685785975116,1.1868532421187428,38.888888888888886,1.1666666666316665,0.9943181818182063,0.0,0.9920219981345652,0
184,197.17777777777778,0.9722222222222285,0.9722222222222285,0.9777777777777601,0.9943181818182063,0.02746866665782997,1.1220274172726914,33.333333333333336,0.9999999999700001,0.9943181818182063,0.0,0.9961089194849384,0
185,198.15,0.9722222222222285,1.0027777777777658,0.9777777777777601,0.9943181818182063,0.02682204617322007,1.0956145621698155,33.333333333333336,0.9999999999700001,1.025568181818188,0.0,0.9938834852951726,0
186,199.15277777777777,1.0027777777777658,0.9472222222222229,0.9777777777777601,1.025568181818188,0.023718081918701218,0.9688252629588986,30.555555555555557,0.9166666666391667,0.9687500000000182,0.0,0.9975597718628298,0
187,200.1,0.9472222222222229,0.9749999999999943,0.9777777777777601,0.9687500000000182,0.022705287261095296,0.9274550942478802,30.555555555555557,0.9166666666391667,0.9971590909091032,0.0,0.9950681053604464,0
188,201.075,0.9749999999999943,0.9916666666666742,0.9777777777777601,0.9971590909091032,0.02299593211700101,0.9393272211726329,30.555555555555557,0.9166666666391667,1.0142045454545716,0.0,0.9985594688561186,0
189,202.06666666666666,0.9916666666666742,0.9416666666666629,0.9777777777777601,1.0142045454545716,0.02752036497119149,1.1241391661151439,30.555555555555557,0.9166666666391667,0.9630681818181953,0.0,0.9916093980411578,0
190,203.00833333333333,0.9416666666666629,0.9722222222222285,0.9777777777777601,0.9630681818181953,0.02276019634932125,0.9296979953400379,30.555555555555557,0.9166666666391667,0.9943181818182063,0.0,0.9977294401106879,0
191,203.98055555555555,0.9722222222222285,1.0,0.9777777777777601,0.9943181818182063,0.02888431069018311,1.1798529913052744,36.111111111111114,1.0833333333008335,1.0227272727272911,0.0,0.993624991184411,0
192,204.98055555555555,1.0,0.9166666666666572,0.9777777777777601,1.0227272727272911,0.025458737641409223,1.0399267645075465,33.333333333333336,0.9999999999700001,0.9375000000000072,0.0,0.9946082440898241,0
193,205.8972222222222,0.9166666666666572,1.01111111111112,0.9777777777777601,0.9375000000000072,0.027012373494721624,1.1033889647515276,36.111111111111114,1.0833333333008335,1.034090909090937,0.0,0.9913408672363748,0
194,206.90833333333333,1.01111111111112,0.9722222222222285,0.9777777777777601,1.034090909090937,0.027307287124598227,1.1154354605851589,38.888888888888886,1.1666666666316665,0.9943181818182063,0.0,0.9880314696900114,0
195,207.88055555555556,0.9722222222222285,0.9416666666666629,0.9777777777777601,0.9943181818182063,0.027860825563585045,1.1380461432511302,38.888888888888886,1.1666666666316665,0.9630681818181953,0.0,0.9861879407154064,0
196,208.82222222222222,0.9416666666666629,0.98888888888888,0.9777777777777601,0.9630681818181953,0.0259954988064613,1.0618521368315064,36.111111111111114,1.0833333333008335,1.0113636363636456,0.0,0.9928529164669938,0
197,209.8111111111111,0.98888888888888,1.01666666666668,0.9777777777777601,1.0113636363636456,0.026695339702729512,1.0904389147455262,36.111111111111114,1.0833333333008335,1.0397727272727597,0.0,0.9905540778396733,0
198,210.82777777777778,1.01666666666668,0.9277777777777771,0.9777777777777601,1.0397727272727597,0.028560547415865827,1.1666280585112971,38.888888888888886,1.1666666666316665,0.9488636363636529,0.0,0.9929443601055645,0
199,211.75555555555556,0.9277777777777771,1.0,0.9777777777777601,0.9488636363636529,0.02799106260842941,1.1433660059470612,36.111111111111114,1.0833333333008335,1.0227272727272911,0.0,0.9928677524556664,0
200,212.75555555555556,1.0,1.0083333333333258,0.9777777777777601,1.0227272727272911,0.022157167310831696,0.9050657435083314,30.555555555555557,0.9166666666391667,1.0312500000000109,0.0,0.997217520597278,0
201,213.76388888888889,1.0083333333333258,0.9388888888888971,0.9777777777777601,1.0312500000000109,0.023408608211174624,0.9561840237937319,30.555555555555557,0.9166666666391667,0.9602272727272985,0.0,0.99774652968145,0
202,214.70277777777778,0.9388888888888971,0.9972222222222058,0.9777777777777601,0.9602272727272985,0.02812963771850021,1.1490264580828655,30.555555555555557,0.9166666666391667,1.0198863636363653,0.0,0.992209409645864,0
203,215.7,0.9972222222222058,0.9972222222222342,0.9777777777777601,1.0198863636363653,0.02850080919360425,1.1641878991809747,36.111111111111114,1.0833333333008335,1.0198863636363944,0.0,0.9917719471753534,0
204,216.69722222222222,0.9972222222222342,0.9027777777777715,0.9777777777777601,1.0198863636363944,0.023356369071592213,0.954050183531431,30.555555555555557,0.9166666666391667,0.9232954545454648,0.0,0.9975936257643649,0
205,217.6,0.9027777777777715,0.9555555555555486,0.9777777777777601,0.9232954545454648,0.0272928195589689,1.1148444961419441,33.333333333333336,0.9999999999700001,0.9772727272727378,0.0,0.9943392764265051,0
206,218.55555555555554,0.9555555555555486,0.9666666666666686,0.9777777777777601,0.9772727272727378,0.023732120053898038,0.9693986862260131,33.333333333333336,0.9999999999700001,0.9886363636363834,0.0,0.9986512039997306,0
207,219.5222222222222,0.9666666666666686,0.8777777777777942,0.9777777777777601,0.9886363636363834,0.02801258728677294,1.144245236073163,38.888888888888886,1.1666666666316665,0.8977272727273058,0.0,0.9934157369457073,0
208,220.4,0.8777777777777942,0.9472222222222229,0.9777777777777601,0.8977272727273058,0.027953573077666462,1.1418346508980264,30.555555555555557,0.9166666666391667,0.9687500000000182,0.0,0.9928162038973778,0
209,221.34722222222223,0.9472222222222229,0.9638888888888744,0.9777777777777601,0.9687500000000182,0.028426359808067743,1.1611468250432442,33.333333333333336,0.9999999999700001,0.9857954545454575,0.0,0.9937484934090517,0
210,222.3111111111111,0.9638888888888744,0.8611111111111143,0.9777777777777601,0.9857954545454575,0.027822591898304015,1.1364843921387617,33.333333333333336,0.9999999999700001,0.8806818181818373,0.0,0.9961958085865226,0
211,223.17222222222222,0.8611111111111143,0.9138888888888914,0.9777777777777601,0.8806818181818373,0.022179392968701257,0.9059736069225705,30.555555555555557,0.9166666666391667,0.9346590909091104,0.0,0.9947658140771476,0
212,224.0861111111111,0.9138888888888914,0.9861111111111143,0.9777777777777601,0.9346590909091104,0.022884620106756938,0.9347803995550651,33.333333333333336,0.9999999999700001,1.0085227272727488,0.0,0.998720523444727,0
213,225.07222222222222,0.9861111111111143,0.88611111111112,0.9777777777777601,1.0085227272727488,0.02306926293999772,0.9423226047840185,30.555555555555557,0.9166666666391667,0.9062500000000254,0.0,0.9982193437184668,0
214,225.95833333333334,0.88611111111112,0.919444444444423,0.9777777777777601,0.9062500000000254,0.022400552196682626,0.9150074169894752,30.555555555555557,0.9166666666391667,0.9403409090909042,0.0,0.9932407311523443,0
215,226.87777777777777,0.919444444444423,1.0027777777777942,0.9777777777777601,0.9403409090909042,0.023965991158807383,0.9789517451744111,33.333333333333336,0.9999999999700001,1.0255681818182172,0.0,0.9986172081489021,0
216,227.88055555555556,1.0027777777777942,0.9277777777777771,0.9777777777777601,1.0255681818182172,0.023428511725832928,0.9569970333738799,30.555555555555557,0.9166666666391667,0.9488636363636529,0.0,0.9981654086184626,0
217,228.80833333333334,0.9277777777777771,0.88611111111112,0.9777777777777601,0.9488636363636529,0.027918782097177637,1.1404135249850533,30.555555555555557,0.9166666666391667,0.9062500000000254,0.0,0.9905614201828241,0
218,229.69444444444446,0.88611111111112,0.9861111111110858,0.9777777777777601,0.9062500000000254,0.027593116530335176,1.1271108882240246,33.333333333333336,0.9999999999700001,1.0085227272727197,0.0,0.9953149228317801,0
219,230.68055555555554,0.9861111111110858,0.9638888888889028,0.9777777777777601,1.0085227272727197,0.028392504925086628,1.1597639364092034,33.333333333333336,0.9999999999700001,0.9857954545454866,0.0,0.995110218674063,0
220,231.64444444444445,0.9638888888889028,0.8333333333333428,0.9777777777777601,0.9857954545454866,0.028531103966343414,1.1654253660750475,44.44444444444444,1.3333333332933333,0.8522727272727524,0.0,0.45050108791037596,0
221,232.4777777777778,0.8333333333333428,0.9694444444444343,0.9777777777777601,0.8522727272727524,0.02846710306597576,1.1628110868369188,33.333333333333336,0.9999999999700001,0.9914772727272804,0.0,0.9941458735808384,0
222,233.44722222222222,0.9694444444444343,0.9305555555555429,0.9777777777777601,0.9914772727272804,0.028060745013838925,1.146212360680799,33.333333333333336,0.9999999999700001,0.9517045454545497,0.0,0.9942787024231419,0
223,234.37777777777777,0.9305555555555429,0.8583333333333485,0.9777777777777601,0.9517045454545497,0.022464592348318806,0.9176232995453041,30.555555555555557,0.9166666666391667,0.8778409090909405,0.0,0.9894784233882937,0
224,235.23611111111111,0.8583333333333485,0.9749999999999943,0.9777777777777601,0.8778409090909405,0.02337355740612367,0.9547522846869689,30.555555555555557,0.9166666666391667,0.9971590909091032,0.0,0.9984403390523953,0
225,236.2111111111111,0.9749999999999943,0.9194444444444514,0.9777777777777601,0.9971590909091032,0.024020909309507423,0.9811950164463275,33.333333333333336,0.9999999999700001,0.9403409090909332,0.0,0.9987168868313456,0
226,237.13055555555556,0.9194444444444514,0.86388888888888,0.9777777777777601,0.9403409090909332,0.02188690443842669,0.8940261704381602,27.77777777777778,0.8333333333083334,0.8835227272727342,0.0,0.9977059979991105,0
227,237.99444444444444,0.86388888888888,0.9194444444444514,0.9777777777777601,0.8835227272727342,0.028566746066859983,1.166881258146073,38.888888888888886,1.1666666666316665,0.9403409090909332,0.0,0.9934280067117996,0
228,238.9138888888889,0.9194444444444514,0.9083333333333314,0.9777777777777601,0.9403409090909332,0.023425947124192055,0.9568922757097643,30.555555555555557,0.9166666666391667,0.9289772727272876,0.0,0.9989748411567931,0
229,239.82222222222222,0.9083333333333314,0.8555555555555543,0.9777777777777601,0.9289772727272876,0.027649858944792736,1.1294286761799057,30.555555555555557,0.9166666666391667,0.8750000000000145,0.0,0.9925370788504799,0
230,240.67777777777778,0.8555555555555543,0.9250000000000114,0.9777777777777601,0.8750000000000145,0.02282615943798508,0.9323924251400265,30.555555555555557,0.9166666666391667,0.946022727272756,0.0,0.9957246665166661,0
231,241.6027777777778,0.9250000000000114,0.9638888888888744,0.9777777777777601,0.946022727272756,0.028230564913291428,1.1531490855520037,36.111111111111114,1.0833333333008335,0.9857954545454575,0.0,0.9925097698049025,0
232,242.56666666666666,0.9638888888888744,0.9027777777777715,0.9777777777777601,0.9857954545454575,0.021949608916217916,0.8965874940052606,27.77777777777778,0.8333333333083334,0.9232954545454648,0.0,0.9980181644394872,0
233,243.46944444444443,0.9027777777777715,0.950000000000017,0.9777777777777601,0.9232954545454648,0.028897021667705088,1.1803722034482464,33.333333333333336,0.9999999999700001,0.9715909090909441,0.0,0.9934246557525894,0
234,244.41944444444445,0.950000000000017,1.0333333333333314,0.9777777777777601,0.9715909090909441,0.022996372485469877,0.9393452091405939,33.333333333333336,0.9999999999700001,1.056818181818199,0.0,0.9991418141768671,0
235,245.45277777777778,1.0333333333333314,0.9749999999999943,0.9777777777777601,1.056818181818199,0.027614423400131614,1.127981221407126,38.888888888888886,1.1666666666316665,0.9971590909091032,0.0,0.9935303638590124,0
236,246.42777777777778,0.9749999999999943,0.9444444444444571,0.9777777777777601,0.9971590909091032,0.029348575167657973,1.198817052396463,30.555555555555557,0.9166666666391667,0.9659090909091212,0.0,0.9922458643853718,0
237,247.37222222222223,0.9444444444444571,0.98888888888888,0.9777777777777601,0.9659090909091212,0.027816966980853886,1.1362546281069812,33.333333333333336,0.9999999999700001,1.0113636363636456,0.0,0.995991105361965,0
238,248.36111111111111,0.98888888888888,0.9499999999999886,0.9777777777777601,1.0113636363636456,0.027146050413037706,1.108849337811332,38.888888888888886,1.1666666666316665,0.9715909090909151,0.0,0.9925336051623248,0
239,249.3111111111111,0.9499999999999886,0.9194444444444514,0.9777777777777601,0.9715909090909151,0.02968985223660602,1.2127573805898961,33.333333333333336,0.9999999999700001,0.9403409090909332,0.0,0.9944895224553427,0
240,250.23055555555555,0.9194444444444514,0.9527777777777828,0.9777777777777601,0.9403409090909332,0.02307438773906319,0.942531940210856,30.555555555555557,0.9166666666391667,0.974431818181841,0.0,0.99814021602996,0
241,251.18333333333334,0.9527777777777828,0.9222222222222172,0.9777777777777601,0.974431818181841,0.023037559869645927,0.9410276123990753,33.333333333333336,0.9999999999700001,0.9431818181818301,0.0,0.999193398848878,0
242,252.10555555555555,0.9222222222222172,0.9000000000000057,0.9777777777777601,0.9431818181818301,0.02971174228135718,1.2136515350343795,33.333333333333336,0.9999999999700001,0.920454545454568,0.0,0.9943832482384942,0
243,253.00555555555556,0.9000000000000057,0.9472222222222229,0.9777777777777601,0.920454545454568,0.02744648532304597,1.1211213643473938,33.333333333333336,0.9999999999700001,0.9687500000000182,0.0,0.9957335842093163,0
244,253.95277777777778,0.9472222222222229,1.0083333333333258,0.9777777777777601,0.9687500000000182,0.022528507411142994,0.9202340725310764,33.333333333333336,0.9999999999700001,1.0312500000000109,0.0,0.9988873431194786,0
245,254.9611111111111,1.0083333333333258,0.9083333333333314,0.9777777777777601,1.0312500000000109,0.029191445338984528,1.192398685679245,33.333333333333336,0.9999999999700001,0.9289772727272876,0.0,0.9947895144312358,0
246,255.86944444444444,0.9083333333333314,0.9555555555555486,0.9777777777777601,0.9289772727272876,0.02756995446346965,1.126164774807325,47.22222222222222,1.4166666666241667,0.9772727272727378,0.0,0.9930338250105952,0
247,256.825,0.9555555555555486,0.9972222222222058,0.9777777777777601,0.9772727272727378,0.02397501053620811,0.9793201645395156,30.555555555555557,0.9166666666391667,1.0198863636363653,0.0,0.9981051543262671,0
248,257.8222222222222,0.9972222222222058,0.9750000000000227,0.9777777777777601,1.0198863636363653,0.028323874857168217,1.156960567071588,33.333333333333336,0.9999999999700001,0.9971590909091322,0.0,0.9956975556863015,0
249,258.7972222222222,0.9750000000000227,0.9472222222222513,0.9777777777777601,0.9971590909091322,0.027354412571596765,1.1173604190930564,30.555555555555557,0.9166666666391667,0.9687500000000472,0.0,0.9912350607863095,0
250,259.74444444444447,0.9472222222222513,1.0,0.9777777777777601,0.9687500000000472,0.023696336408107956,0.9679370123789863,30.555555555555557,0.9166666666391667,1.0227272727272911,0.0,0.9984695267892866,0
251,260.74444444444447,1.0,0.8999999999999773,0.9777777777777601,1.0227272727272911,0.02196561127268898,0.8972411508763845,30.555555555555557,0.9166666666391667,0.9204545454545389,0.0,0.9974515921314121,0
252,261.64444444444445,0.8999999999999773,0.9166666666666856,0.9777777777777601,0.9204545454545389,0.027988589080037863,1.1432649684009983,30.555555555555557,0.9166666666391667,0.9375000000000363,0.0,0.9875137462719076,0
253,262.56111111111113,0.9166666666666856,0.9583333333333144,0.9777777777777601,0.9375000000000363,0.02355358805789102,0.9621060936558822,33.333333333333336,0.9999999999700001,0.9801136363636347,0.0,0.9989476134403341,0
254,263.51944444444445,0.9583333333333144,0.9472222222221944,0.9777777777777601,0.9801136363636347,0.023548031807412103,0.9618791345008479,33.333333333333336,0.9999999999700001,0.9687499999999891,0.0,0.9991859250399044,0
255,264.46666666666664,0.9472222222221944,0.88611111111112,0.9777777777777601,0.9687499999999891,0.022394224882567957,0.9147489617829379,27.77777777777778,0.8333333333083334,0.9062500000000254,0.0,0.9972235722828611,0
256,265.35277777777776,0.88611111111112,0.9972222222222626,0.9777777777777601,0.9062500000000254,0.02826391893179701,1.1545115151051257,33.333333333333336,0.9999999999700001,1.0198863636364235,0.0,0.9957649837385795,0
257,266.35,0.9972222222222626,0.8916666666666515,0.9777777777777601,1.0198863636364235,0.022764408407979993,0.9298700475680235,30.555555555555557,0.9166666666391667,0.9119318181818191,0.0,0.9973332580967248,0
258,267.2416666666667,0.8916666666666515,0.9250000000000114,0.9777777777777601,0.9119318181818191,0.029324024689701272,1.1978142258043423,38.888888888888886,1.1666666666316665,0.946022727272756,0.0,0.9919192380263886,0
259,268.1666666666667,0.9250000000000114,0.9611111111111086,0.9777777777777601,0.946022727272756,0.027391627817835704,1.1188805702944524,38.888888888888886,1.1666666666316665,0.9829545454545606,0.0,0.9933940873062521,0
260,269.1277777777778,0.9611111111111086,0.9638888888888459,0.9777777777777601,0.9829545454545606,0.023777066494033945,0.9712346376673227,30.555555555555557,0.9166666666391667,0.9857954545454285,0.0,0.9982221104645594,0
261,270.09166666666664,0.9638888888888459,0.9000000000000341,0.9777777777777601,0.9857954545454285,0.02908903876502832,1.188215629212794,38.888888888888886,1.1666666666316665,0.9204545454545969,0.0,0.9935712373291699,0
262,270.9916666666667,0.9000000000000341,1.0,0.9777777777777601,0.9204545454545969,0.023999140970885444,0.9803058333976347,33.333333333333336,0.9999999999700001,1.0227272727272911,0.0,0.9989618471049002,0
263,271.9916666666667,1.0,0.9555555555555202,0.9777777777777601,1.0227272727272911,0.02311251263016094,0.9440892481655913,30.555555555555557,0.9166666666391667,0.9772727272727088,0.0,0.9984196121366352,0
264,272.9472222222222,0.9555555555555202,0.8805555555555884,0.9777777777777601,0.9772727272727088,0.023601745595925542,0.9640732105420483,33.333333333333336,0.9999999999700001,0.9005681818182317,0.0,0.9991720359144474,0
265,273.8277777777778,0.8805555555555884,0.955555555555577,0.9777777777777601,0.9005681818182317,0.027128403409329586,1.1081285011489679,30.555555555555557,0.9166666666391667,0.9772727272727669,0.0,0.9887232214532038,0
266,274.78333333333336,0.955555555555577,0.9611111111111086,0.9777777777777601,0.9772727272727669,0.02855707023671969,1.1664860243024533,36.111111111111114,1.0833333333008335,0.9829545454545606,0.0,0.9926673887613768,0
267,275.74444444444447,0.9611111111111086,0.9138888888888914,0.9777777777777601,0.9829545454545606,0.02802458612920753,1.1447353592507765,30.555555555555557,0.9166666666391667,0.9346590909091104,0.0,0.9938927184654673,0
268,276.65833333333336,0.9138888888888914,0.9277777777777487,0.9777777777777601,0.9346590909091104,0.02957151941353491,1.2079237760504775,38.888888888888886,1.1666666666316665,0.9488636363636238,0.0,0.9918050184491054,0
269,277.5861111111111,0.9277777777777487,0.9833333333333485,0.9777777777777601,0.9488636363636238,0.023237408343570454,0.9491909306204025,30.555555555555557,0.9166666666391667,1.0056818181818519,0.0,0.9987808693473345,0
270,278.56944444444446,0.9833333333333485,0.88611111111112,0.9777777777777601,1.0056818181818519,0.027887582005198887,1.1391390780285386,33.333333333333336,0.9999999999700001,0.9062500000000254,0.0,0.9962959157808604,0
271,279.4555555555556,0.88611111111112,0.9472222222221944,0.9777777777777601,0.9062500000000254,0.02233926058691763,0.9125038056033906,30.555555555555557,0.9166666666391667,0.9687499999999891,0.0,0.9916157370449554,0
272,280.40277777777777,0.9472222222221944,0.9388888888888687,0.9777777777777601,0.9687499999999891,0.023638272365911504,0.965565239183234,30.555555555555557,0.9166666666391667,0.9602272727272694,0.0,0.9982448091818165,0
273,281.34166666666664,0.9388888888888687,0.8694444444444684,0.9777777777777601,0.9602272727272694,0.028476764735960322,1.1632057422730329,33.333333333333336,0.9999999999700001,0.889204545454586,0.0,0.9957154658436465,0
274,282.2111111111111,0.8694444444444684,1.0,0.9777777777777601,0.889204545454586,0.02853744838823783,1.1656845200922759,33.333333333333336,0.9999999999700001,1.0227272727272911,0.0,0.9944745255441809,0
275,283.2111111111111,1.0,0.9777777777777601,0.9777777777777601,1.0227272727272911,0.022750179866093567,0.9292888466563355,33.333333333333336,0.9999999999700001,1.0,0.0,0.9995921895510258,0
276,284.18888888888887,0.9777777777777601,0.8972222222222399,0.9777777777777601,1.0,0.022543698238666015,0.9208545804422978,30.555555555555557,0.9166666666391667,0.917613636363671,0.0,0.9961985254044166,0
277,285.0861111111111,0.8972222222222399,0.9833333333333485,0.9777777777777601,0.917613636363671,0.022979447833351374,0.9386538787625557,30.555555555555557,0.9166666666391667,1.0056818181818519,0.0,0.9954196282171421,0
278,286.06944444444446,0.9833333333333485,0.9527777777777828,0.9777777777777601,1.0056818181818519,0.02313594843835524,0.9450465432417414,33.333333333333336,0.9999999999700001,0.974431818181841,0.0,0.9989866676379886,0
279,287.02222222222224,0.9527777777777828,0.8916666666666515,0.9777777777777601,0.974431818181841,0.022388937039890467,0.9145329664258907,30.555555555555557,0.9166666666391667,0.9119318181818191,0.0,0.9967109538711045,0
280,287.9138888888889,0.8916666666666515,0.9666666666666401,0.9777777777777601,0.9119318181818191,0.02389931912063235,0.9762283565320099,33.333333333333336,0.9999999999700001,0.9886363636363544,0.0,0.9971687732981798,0
281,288.88055555555553,0.9666666666666401,0.9250000000000114,0.9777777777777601,0.9886363636363544,0.028401099842085453,1.1601150176117239,33.333333333333336,0.9999999999700001,0.946022727272756,0.0,0.995177258470274,0
282,289.80555555555554,0.9250000000000114,0.8916666666666515,0.9777777777777601,0.946022727272756,0.02740673267858156,1.1194975666744387,38.888888888888886,1.1666666666316665,0.9119318181818191,0.0,0.9906507411396506,0
283,290.6972222222222,0.8916666666666515,1.0027777777777942,0.9777777777777601,0.9119318181818191,0.023954434753423442,0.9784796944612323,30.555555555555557,0.9166666666391667,1.0255681818182172,0.0,0.9989138784505829,0
284,291.7,1.0027777777777942,0.9499999999999886,0.9777777777777601,1.0255681818182172,0.023428251308754533,0.956986395977259,33.333333333333336,0.9999999999700001,0.9715909090909151,0.0,0.9993017694982843,0
285,292.65,0.9499999999999886,0.9111111111111541,0.9777777777777601,0.9715909090909151,0.028253314844931425,1.1540783642592352,38.888888888888886,1.1666666666316665,0.9318181818182426,0.0,0.9925980236463374,0
286,293.56111111111113,0.9111111111111541,1.0027777777777374,0.9777777777777601,0.9318181818182426,0.029601219519121987,1.2091369522551951,33.333333333333336,0.9999999999700001,1.025568181818159,0.0,0.9920273633497652,0
287,294.56388888888887,1.0027777777777374,0.9611111111111086,0.9777777777777601,1.025568181818159,0.023664291747285682,0.9666280668641684,33.333333333333336,0.9999999999700001,0.9829545454545606,0.0,0.9993017451065943,0
288,295.525,0.9611111111111086,0.9194444444444798,0.9777777777777601,0.9829545454545606,0.028211588358647864,1.1523739400066926,30.555555555555557,0.9166666666391667,0.9403409090909622,0.0,0.9901560010624366,0
289,296.44444444444446,0.9194444444444798,1.0138888888888573,0.9777777777777601,0.9403409090909622,0.02318848541433416,0.9471925493876983,33.333333333333336,0.9999999999700001,1.0369318181818046,0.0,0.9992858556083437,0
290,297.4583333333333,1.0138888888888573,0.9527777777777828,0.9777777777777601,1.0369318181818046,0.021948521295494426,0.8965430673759468,30.555555555555557,0.9166666666391667,0.974431818181841,0.0,0.9977567013025694,0
291,298.4111111111111,0.9527777777777828,0.9333333333333371,0.9777777777777601,0.974431818181841,0.02209169614661474,0.9023914076110975,27.77777777777778,0.8333333333083334,0.9545454545454757,0.0,0.9950172127852941,0
292,299.34444444444443,0.9333333333333371,0.98888888888888,0.9777777777777601,0.9545454545454757,0.02353944150455783,0.9615282417747745,33.333333333333336,0.9999999999700001,1.0113636363636456,0.0,0.9983688182914379,0
293,300.3333333333333,0.98888888888888,0.9500000000000455,0.9777777777777601,1.0113636363636456,0.022794017025274903,0.9310794867012095,30.555555555555557,0.9166666666391667,0.9715909090909731,0.0,0.9982476337152546,0
294,301.28333333333336,0.9500000000000455,0.9111111111110972,0.9777777777777601,0.9715909090909731,0.023697849018407293,0.9679987987863372,30.555555555555557,0.9166666666391667,0.9318181818181844,0.0,0.9978382511122427,0
295,302.19444444444446,0.9111111111110972,0.9722222222222285,0.9777777777777601,0.9318181818181844,0.022839845861858568,0.9329514818653405,30.555555555555557,0.9166666666391667,0.9943181818182063,0.0,0.9995841609110475,0
296,303.1666666666667,0.9722222222222285,0.9305555555555429,0.9777777777777601,0.9943181818182063,0.02781143448806846,1.136028639395245,38.888888888888886,1.1666666666316665,0.9517045454545497,0.0,0.9921584026796381,0
297,304.09722222222223,0.9305555555555429,0.9250000000000114,0.9777777777777601,0.9517045454545497,0.028785573886947028,1.1758198359393892,38.888888888888886,1.1666666666316665,0.946022727272756,0.0,0.9935742984361323,0
298,305.02222222222224,0.9250000000000114,0.9555555555555202,0.9777777777777601,0.946022727272756,0.023772592491293508,0.9710518856683903,30.555555555555557,0.9166666666391667,0.9772727272727088,0.0,0.998127302377321,0
299,305.97777777777776,0.9555555555555202,0.9388888888889255,0.9777777777777601,0.9772727272727088,0.027118819768823917,1.1077370330249925,38.888888888888886,1.1666666666316665,0.9602272727273276,0.0,0.9930797170903907,0
300,306.9166666666667,0.9388888888889255,0.9222222222222172,0.9777777777777601,0.9602272727273276,0.028257111863184334,1.154233463108288,33.333333333333336,0.9999999999700001,0.9431818181818301,0.0,0.994823157699842,0
301,307.8388888888889,0.9222222222222172,0.9694444444444343,0.9777777777777601,0.9431818181818301,0.02922538374868173,1.1937849861740322,38.888888888888886,1.1666666666316665,0.9914772727272804,0.0,0.9919988777373507,0
302,308.80833333333334,0.9694444444444343,1.0,0.9777777777777601,0.9914772727272804,0.026433949810085785,1.0797617810572544,30.555555555555557,0.9166666666391667,1.0227272727272911,0.0,0.9878689850509079,0
303,309.80833333333334,1.0,1.01111111111112,0.9777777777777601,1.0227272727272911,0.02781754194709968,1.1362781140628093,38.888888888888886,1.1666666666316665,1.034090909090937,0.0,0.993347169599869,0
304,310.81944444444446,1.01111111111112,0.9027777777777715,0.9777777777777601,1.034090909090937,0.02843925123874902,1.1616734082535778,38.888888888888886,1.1666666666316665,0.9232954545454648,0.0,0.9930461131068702,0
305,311.72222222222223,0.9027777777777715,0.9638888888889028,0.9777777777777601,0.9232954545454648,0.021705904992123243,0.8866327885971907,27.77777777777778,0.8333333333083334,0.9857954545454866,0.0,0.9927935195262404,0
306,312.68611111111113,0.9638888888889028,0.9777777777777601,0.9777777777777601,0.9857954545454866,0.027843439351573015,1.1373359592875976,36.111111111111114,1.0833333333008335,1.0,0.0,0.9922404752869716,0
307,313.6638888888889,0.9777777777777601,0.9138888888888914,0.9777777777777601,1.0,0.028838261016193502,1.1779719754767148,33.333333333333336,0.9999999999700001,0.9346590909091104,0.0,0.995501962518156,0
308,314.5777777777778,0.9138888888888914,0.9611111111111086,0.9777777777777601,0.9346590909091104,0.028847357373190153,1.178343539268823,33.333333333333336,0.9999999999700001,0.9829545454545606,0.0,0.9921810337905272,0
309,315.5388888888889,0.9611111111111086,0.9805555555555543,0.9777777777777601,0.9829545454545606,0.028431801489328112,1.1613691043277194,36.111111111111114,1.0833333333008335,1.002840909090926,0.0,0.9923018715233001,0
310,316.51944444444445,0.9805555555555543,0.8833333333333258,0.9777777777777601,1.002840909090926,0.028063253967157267,1.1463148452479208,36.111111111111114,1.0833333333008335,0.9034090909090995,0.0,0.9913182045334965,0
311,317.40277777777777,0.8833333333333258,0.9777777777777601,0.9777777777777601,0.9034090909090995,0.028162443370261775,1.1503664882043307,30.555555555555557,0.9166666666391667,1.0,0.0,0.9907689907540776,0
312,318.38055555555553,0.9777777777777601,0.9638888888889028,0.9777777777777601,1.0,0.027429792041150636,1.1204394848734411,33.333333333333336,0.9999999999700001,0.9857954545454866,0.0,0.9958211278613802,0
313,319.34444444444443,0.9638888888889028,0.8944444444444457,0.9777777777777601,0.9857954545454866,0.028998294824028135,1.1845089625943557,30.555555555555557,0.9166666666391667,0.9147727272727451,0.0,0.9925903694948632,0
314,320.2388888888889,0.8944444444444457,0.9250000000000114,0.9777777777777601,0.9147727272727451,0.023730837153870435,0.9693462829178175,30.555555555555557,0.9166666666391667,0.946022727272756,0.0,0.9989387914938153,0
315,321.1638888888889,0.9250000000000114,0.9527777777777828,0.9777777777777601,0.946022727272756,0.023219365699786693,0.948453933034839,33.333333333333336,0.9999999999700001,0.974431818181841,0.0,0.999208493378464,0
316,322.1166666666667,0.9527777777777828,0.8472222222222285,0.9777777777777601,0.974431818181841,0.0284401510891206,1.1617101649262236,38.888888888888886,1.1666666666316665,0.8664772727272949,0.0,0.9914622024468218,0
317,322.9638888888889,0.8472222222222285,0.9361111111110745,0.9777777777777601,0.8664772727272949,0.027610872210189295,1.1278361640394403,30.555555555555557,0.9166666666391667,0.9573863636363434,0.0,0.9913198284083342,0
318,323.9,0.9361111111110745,0.9194444444444798,0.9777777777777601,0.9573863636363434,0.023743373016868866,0.9698583420635571,33.333333333333336,0.9999999999700001,0.9403409090909622,0.0,0.9987195423791295,0
319,324.81944444444446,0.9194444444444798,0.8833333333333258,0.9777777777777601,0.9403409090909622,0.024272005874399108,0.9914516930335455,30.555555555555557,0.9166666666391667,0.9034090909090995,0.0,0.997875706302437,0
320,325.7027777777778,0.8833333333333258,0.955555555555577,0.9777777777777601,0.9034090909090995,0.02810130068332743,1.1478689599492962,33.333333333333336,0.9999999999700001,0.9772727272727669,0.0,0.9949781743573273,0
321,326.65833333333336,0.955555555555577,1.0277777777777715,0.9777777777777601,0.9772727272727669,0.027716642611353814,1.1321566245670973,33.333333333333336,0.9999999999700001,1.0511363636363762,0.0,0.9950033461923333,0
322,327.68611111111113,1.0277777777777715,0.8611111111110858,0.9777777777777601,1.0511363636363762,0.02315871543581122,0.9459765190455471,30.555555555555557,0.9166666666391667,0.8806818181818082,0.0,0.9978285833498228,0
323,328.5472222222222,0.8611111111110858,0.966666666666697,0.9777777777777601,0.8806818181818082,0.028072657574535708,1.1466989594618107,47.22222222222222,1.4166666666241667,0.9886363636364125,0.0,0.993448327931872,0
324,329.5138888888889,0.966666666666697,0.919444444444423,0.9777777777777601,0.9886363636364125,0.022035559900605326,0.9000983801442046,30.555555555555557,0.9166666666391667,0.9403409090909042,0.0,0.995922089071686,0
325,330.43333333333334,0.919444444444423,1.75,0.9777777777777601,0.9403409090909042,0.029773130513135137,1.216159093191853,33.333333333333336,0.9999999999700001,1.7897727272727597,0.0,0.9940672194321553,0
326,332.18333333333334,1.75,0.9277777777777487,0.9777777777777601,1.7897727272727597,0.025274460422000797,1.0323994937036653,38.888888888888886,1.1666666666316665,0.9488636363636238,0.0,0.9237756190272943,0
327,333.1111111111111,0.9277777777777487,1.6888888888889255,0.9777777777777601,0.9488636363636238,0.02273425616804675,0.9286384027882199,27.77777777777778,0.8333333333083334,1.727272727272796,0.0,0.9966294495026845,0
328,334.8,1.6888888888889255,1.75,0.9777777777777601,1.727272727272796,0.02483778476305687,1.0145623679380054,38.888888888888886,1.1666666666316665,1.7897727272727597,0.0,0.9278133726496693,0
329,336.55,1.75,1.76111111111112,0.9777777777777601,1.7897727272727597,0.01816290134004911,0.7419098107168183,33.333333333333336,0.9999999999700001,1.8011363636364053,0.0,0.9410191071471867,0
330,338.31111111111113,1.76111111111112,1.6861111111110745,0.9777777777777601,1.8011363636364053,0.01996936979599264,0.8156996004163171,36.111111111111114,1.0833333333008335,1.724431818181812,0.0,0.9354358804069369,0
331,339.9972222222222,1.6861111111110745,1.75,0.9777777777777601,1.724431818181812,0.024335440498160856,0.9940428412662454,38.888888888888886,1.1666666666316665,1.7897727272727597,0.0,0.9292644108314123,0
332,341.7472222222222,1.75,1.6333333333333258,0.9777777777777601,1.7897727272727597,0.01967328672611144,0.8036053358371414,33.333333333333336,0.9999999999700001,1.6704545454545678,0.0,0.9448803277468478,0
333,343.38055555555553,1.6333333333333258,1.6527777777778283,0.9777777777777601,1.6704545454545678,0.02462225676870432,1.005758579903233,30.555555555555557,0.9166666666391667,1.6903409090909913,0.0,0.9969067729709508,0
334,345.03333333333336,1.6527777777778283,1.6222222222222058,0.9777777777777601,1.6903409090909913,0.02317108401429425,0.946481745030613,30.555555555555557,0.9166666666391667,1.6590909090909223,0.0,0.9876099052709233,0
335,346.65555555555557,1.6222222222222058,1.6499999999999773,0.9777777777777601,1.6590909090909223,0.024250718451759794,0.9905821542189422,33.333333333333336,0.9999999999700001,1.6875000000000073,0.0,0.9980034182517996,0
336,348.30555555555554,1.6499999999999773,1.64722222222224,0.9777777777777601,1.6875000000000073,0.023779470341708523,0.9713328289276201,30.555555555555557,0.9166666666391667,1.6846590909091395,0.0,0.9945975430804287,0
337,349.9527777777778,1.64722222222224,1.6333333333333258,0.9777777777777601,1.6846590909091395,0.02417599576486238,0.9875299163933657,33.333333333333336,0.9999999999700001,1.6704545454545678,0.0,0.9965449131460622,0
338,351.5861111111111,1.6333333333333258,1.6611111111110972,0.9777777777777601,1.6704545454545678,0.024367468496865805,0.9953511061745854,30.555555555555557,0.9166666666391667,1.698863636363653,0.0,0.9972115517529079,0
339,353.2472222222222,1.6611111111110972,1.6388888888889142,0.9777777777777601,1.698863636363653,0.029080033992478212,1.1878478064198865,33.333333333333336,0.9999999999700001,1.6761363636364197,0.0,0.9939187477245532,0
340,354.8861111111111,1.6388888888889142,1.6611111111110972,0.9777777777777601,1.6761363636364197,0.030085475592593874,1.2289176208324009,36.111111111111114,1.0833333333008335,1.698863636363653,0.0,0.9887887715877599,0
341,356.5472222222222,1.6611111111110972,1.6111111111111427,0.9777777777777601,1.698863636363653,0.02353820756104525,0.9614778382197083,30.555555555555557,0.9166666666391667,1.6477272727273349,0.0,0.9945388905836026,0
342,358.15833333333336,1.6111111111111427,1.658333333333303,0.9777777777777601,1.6477272727273349,0.029698181006232897,1.2130975903274097,36.111111111111114,1.0833333333008335,1.6960227272727268,0.0,0.9909560799470222,0
343,359.81666666666666,1.658333333333303,1.6888888888888687,0.9777777777777601,1.6960227272727268,0.02473344768665214,1.0103004551985746,30.555555555555557,0.9166666666391667,1.727272727272738,0.0,0.9963670030988854,0
344,361.50555555555553,1.6888888888888687,1.6638888888888914,0.9777777777777601,1.727272727272738,0.022801913751450343,0.9314020485272315,33.333333333333336,0.9999999999700001,1.7017045454545787,0.0,0.9966489662595807,0
345,363.1694444444444,1.6638888888888914,1.6444444444444457,0.9777777777777601,1.7017045454545787,0.02366000524257734,0.9664529736983101,33.333333333333336,0.9999999999700001,1.6818181818182136,0.0,0.9970888333222343,0
346,364.81388888888887,1.6444444444444457,1.6194444444444684,0.9777777777777601,1.6818181818182136,0.028487577850636252,1.1636474313904421,33.333333333333336,0.9999999999700001,1.6562500000000544,0.0,0.9938068911462045,0
347,366.43333333333334,1.6194444444444684,1.6333333333333258,0.9777777777777601,1.6562500000000544,0.028839947038216577,1.1780408453261173,41.666666666666664,1.2499999999625,1.6704545454545678,0.0,0.9930335609738924,0
348,368.06666666666666,1.6333333333333258,1.6499999999999773,0.9777777777777601,1.6704545454545678,0.024775238446405078,1.0120075048641282,30.555555555555557,0.9166666666391667,1.6875000000000073,0.0,0.9960610148136417,0
349,369.71666666666664,1.6499999999999773,1.7000000000000455,0.9777777777777601,1.6875000000000073,0.028525163395917912,1.165182708396221,33.333333333333336,0.9999999999700001,1.7386363636364417,0.0,0.9942509669750973,0
350,371.4166666666667,1.7000000000000455,1.7166666666666401,0.9777777777777601,1.7386363636364417,0.025521373106338195,1.0424852690691029,36.111111111111114,1.0833333333008335,1.7556818181818228,0.0,0.9422912394934309,0
351,373.1333333333333,1.7166666666666401,1.7555555555555884,0.9777777777777601,1.7556818181818228,0.02043527558918471,0.8347307052143604,36.111111111111114,1.0833333333008335,1.7954545454546116,0.0,0.9297106492416816,0
352,374.8888888888889,1.7555555555555884,1.7444444444444116,0.9777777777777601,1.7954545454546116,0.019963191235729257,0.8154472214384385,36.111111111111114,1.0833333333008335,1.7840909090909078,0.0,0.9354638859876829,0
353,376.6333333333333,1.7444444444444116,1.6888888888888687,0.9777777777777601,1.7840909090909078,0.020450417092337206,0.8353491983464607,38.888888888888886,1.1666666666316665,1.727272727272738,0.0,0.932129813669405,0
354,378.3222222222222,1.6888888888888687,1.64722222222224,0.9777777777777601,1.727272727272738,0.019149131811457883,0.7821948978109523,33.333333333333336,0.9999999999700001,1.6846590909091395,0.0,0.9425541371543419,0
355,379.96944444444443,1.64722222222224,1.6416666666666515,0.9777777777777601,1.6846590909091395,0.025679857070099645,1.0489589488713844,36.111111111111114,1.0833333333008335,1.6789772727272876,0.0,0.9496806282498018,0
356,381.6111111111111,1.6416666666666515,1.6055555555555543,0.9777777777777601,1.6789772727272876,0.02834393975996274,1.1577801689598342,33.333333333333336,0.9999999999700001,1.642045454545483,0.0,0.992905666615036,0
357,383.21666666666664,1.6055555555555543,1.6333333333333826,0.9777777777777601,1.642045454545483,0.02325976406716459,0.950104106899326,30.555555555555557,0.9166666666391667,1.670454545454626,0.0,0.9964937360886807,0
358,384.85,1.6333333333333826,1.636111111111063,0.9777777777777601,1.670454545454626,0.029288053916185258,1.1963449082503368,33.333333333333336,0.9999999999700001,1.6732954545454357,0.0,0.9916344196688857,0
359,386.4861111111111,1.636111111111063,1.6416666666667084,0.9777777777777601,1.6732954545454357,0.024437458356443176,0.9982100196542643,33.333333333333336,0.9999999999700001,1.6789772727273458,0.0,0.9971813239851419,0
360,388.1277777777778,1.6416666666667084,1.6611111111110972,0.9777777777777601,1.6789772727273458,0.025448976323568788,1.0395280387018089,33.333333333333336,0.9999999999700001,1.698863636363653,0.0,0.9929769141956744,0
361,389.7888888888889,1.6611111111110972,1.6305555555555316,0.9777777777777601,1.698863636363653,0.02863935071378596,1.1698469792524933,33.333333333333336,0.9999999999700001,1.667613636363642,0.0,0.9925394963774368,0
362,391.4194444444444,1.6305555555555316,1.6277777777777942,0.9777777777777601,1.667613636363642,0.023536984461362185,0.9614278776083852,30.555555555555557,0.9166666666391667,1.6647727272727741,0.0,0.9975104642037282,0
363,393.0472222222222,1.6277777777777942,1.6055555555555543,0.9777777777777601,1.6647727272727741,0.02350229430881567,0.9600108702686618,30.555555555555557,0.9166666666391667,1.642045454545483,0.0,0.9973093717376927,0
364,394.65277777777777,1.6055555555555543,1.5972222222222285,0.9777777777777601,1.642045454545483,0.029295230526349483,1.1966380551099076,36.111111111111114,1.0833333333008335,1.6335227272727633,0.0,0.9893323507286408,0
365,396.25,1.5972222222222285,1.5611111111111313,0.9777777777777601,1.6335227272727633,0.02334454604570847,0.9535672420271369,30.555555555555557,0.9166666666391667,1.5965909090909587,0.0,0.9949354415594727,0
366,397.81111111111113,1.5611111111111313,1.5916666666666401,0.9777777777777601,1.5965909090909587,0.022957264057378014,0.9377477261206818,30.555555555555557,0.9166666666391667,1.6278409090909114,0.0,0.9932140275403791,0
367,399.40277777777777,1.5916666666666401,1.6444444444444457,0.9777777777777601,1.6278409090909114,0.025025339356032603,1.0222235113846678,30.555555555555557,0.9166666666391667,1.6818181818182136,0.0,0.996487541326895,0
368,401.0472222222222,1.6444444444444457,1.625,0.9777777777777601,1.6818181818182136,0.02402007768706021,0.9811610467164453,33.333333333333336,0.9999999999700001,1.6619318181818483,0.0,0.9976547831360416,0
369,402.6722222222222,1.625,1.6416666666666515,0.9777777777777601,1.6619318181818483,0.02535706408490076,1.0357736499994712,33.333333333333336,0.9999999999700001,1.6789772727272876,0.0,0.9948060690173604,0
370,404.31388888888887,1.6416666666666515,1.6694444444444798,0.9777777777777601,1.6789772727272876,0.024179767691215895,0.9876839903000936,30.555555555555557,0.9166666666391667,1.7073863636364306,0.0,0.9969850013562811,0
371,405.98333333333335,1.6694444444444798,1.625,0.9777777777777601,1.7073863636364306,0.01993275567262755,0.8142040036046194,33.333333333333336,0.9999999999700001,1.6619318181818483,0.0,0.94090655563259,0
372,407.60833333333335,1.625,1.63611111111112,0.9777777777777601,1.6619318181818483,0.019751696832092186,0.8068081956554783,33.333333333333336,0.9999999999700001,1.6732954545454939,0.0,0.9434572831217864,0
373,409.24444444444447,1.63611111111112,1.7194444444444343,0.9777777777777601,1.6732954545454939,0.020145458339531148,0.8228923839678077,36.111111111111114,1.0833333333008335,1.7585227272727488,0.0,0.9316792242022081,0
374,410.9638888888889,1.7194444444444343,1.6499999999999773,0.9777777777777601,1.7585227272727488,0.024888148382367248,1.0166195978138945,41.666666666666664,1.2499999999625,1.6875000000000073,0.0,0.9438961977605933,0
375,412.6138888888889,1.6499999999999773,1.7083333333333144,0.9777777777777601,1.6875000000000073,0.020883535204972853,0.853041007102532,38.888888888888886,1.1666666666316665,1.747159090909103,0.0,0.9207775687029849,0
376,414.3222222222222,1.7083333333333144,1.650000000000034,0.9777777777777601,1.747159090909103,0.02465984677086697,1.0072940389616292,44.44444444444444,1.3333333332933333,1.6875000000000655,0.0,0.9360763924823146,0
377,415.97222222222223,1.650000000000034,1.6055555555555543,0.9777777777777601,1.6875000000000655,0.025168731092888443,1.0280807108682382,36.111111111111114,1.0833333333008335,1.642045454545483,0.0,0.9328874106445446,0
378,417.5777777777778,1.6055555555555543,1.6499999999999773,0.9777777777777601,1.642045454545483,0.02597471556848109,1.0610031927191481,38.888888888888886,1.1666666666316665,1.6875000000000073,0.0,0.9234668979838419,0
379,419.22777777777776,1.6499999999999773,1.6277777777777942,0.9777777777777601,1.6875000000000073,0.019205735225986544,0.7845070079618942,33.333333333333336,0.9999999999700001,1.6647727272727741,0.0,0.937924267131067,0
380,420.85555555555555,1.6277777777777942,1.7250000000000227,0.9777777777777601,1.6647727272727741,0.0247820715004193,1.0122866183006545,38.888888888888886,1.1666666666316665,1.7642045454546007,0.0,0.9255611796667019,0
381,422.5805555555556,1.7250000000000227,1.647222222222183,0.9777777777777601,1.7642045454546007,0.019096766712597774,0.7800559124222134,33.333333333333336,0.9999999999700001,1.6846590909090813,0.0,0.945055428382044,0
382,424.22777777777776,1.647222222222183,1.7027777777777828,0.9777777777777601,1.6846590909090813,0.020673497111578877,0.844461468008211,36.111111111111114,1.0833333333008335,1.7414772727273093,0.0,0.9227310005728457,0
383,425.93055555555554,1.7027777777777828,1.6999999999999886,0.9777777777777601,1.7414772727273093,0.024446307667407453,0.9985714922240682,38.888888888888886,1.1666666666316665,1.7386363636363835,0.0,0.9282436202755868,0
384,427.63055555555553,1.6999999999999886,1.63611111111112,0.9777777777777601,1.7386363636363835,0.02502714623019836,1.0222973177466146,36.111111111111114,1.0833333333008335,1.6732954545454939,0.0,0.9376811500444819,0
385,429.26666666666665,1.63611111111112,1.6750000000000114,0.9777777777777601,1.6732954545454939,0.020790907399393148,0.8492573892532612,38.888888888888886,1.1666666666316665,1.7130681818182245,0.0,0.9252155791275289,0
386,430.94166666666666,1.6750000000000114,1.6000000000000227,0.9777777777777601,1.7130681818182245,0.02439145271828544,0.9963308025810398,41.666666666666664,1.2499999999625,1.6363636363636893,0.0,0.9343922318974427,0
387,432.5416666666667,1.6000000000000227,1.5972222222222285,0.9777777777777601,1.6363636363636893,0.020162503518005654,0.8235886375508061,36.111111111111114,1.0833333333008335,1.6335227272727633,0.0,0.9286893137192012,0
388,434.1388888888889,1.5972222222222285,1.6083333333332916,0.9777777777777601,1.6335227272727633,0.024368251025345306,0.9953830705367342,36.111111111111114,1.0833333333008335,1.6448863636363507,0.0,0.9468742776407799,0
389,435.7472222222222,1.6083333333332916,1.6277777777777942,0.9777777777777601,1.6448863636363507,0.025471985905480297,1.0404679234834875,38.888888888888886,1.1666666666316665,1.6647727272727741,0.0,0.9250603788421007,0
390,437.375,1.6277777777777942,1.6666666666666856,0.9777777777777601,1.6647727272727741,0.02448127836534561,0.9999999591524615,36.111111111111114,1.0833333333008335,1.7045454545455048,0.0,0.9328769074984694,0
391,439.0416666666667,1.6666666666666856,1.5972222222222285,0.9777777777777601,1.7045454545455048,0.025415869524911046,1.0381757074709255,38.888888888888886,1.1666666666316665,1.6335227272727633,0.0,0.9247298946505784,0
392,440.6388888888889,1.5972222222222285,1.6194444444444116,0.9777777777777601,1.6335227272727633,0.02457562602535846,1.003853828821806,44.44444444444444,1.3333333332933333,1.6562499999999964,0.0,0.9343970840807365,0
393,442.2583333333333,1.6194444444444116,1.5722222222222513,0.9777777777777601,1.6562499999999964,0.019608840889259772,0.8009728820388774,36.111111111111114,1.0833333333008335,1.6079545454546043,0.0,0.9454511876131724,0
394,443.8305555555556,1.5722222222222513,1.6305555555555316,0.9777777777777601,1.6079545454546043,0.020683083948365943,0.8448530666924136,36.111111111111114,1.0833333333008335,1.667613636363642,0.0,0.926046148767163,0
395,445.4611111111111,1.6305555555555316,1.64722222222224,0.9777777777777601,1.667613636363642,0.018909549672175553,0.7724085571664567,33.333333333333336,0.9999999999700001,1.6846590909091395,0.0,0.9449272028448966,0
396,447.10833333333335,1.64722222222224,1.5972222222222285,0.9777777777777601,1.6846590909091395,0.02640535038228018,1.0785935648305285,41.666666666666664,1.2499999999625,1.6335227272727633,0.0,0.9197148128367891,0
397,448.7055555555556,1.5972222222222285,1.6611111111110972,0.9777777777777601,1.6335227272727633,0.025034635926794974,1.0226032534162681,36.111111111111114,1.0833333333008335,1.698863636363653,0.0,0.9318198444953243,0
398,450.3666666666667,1.6611111111110972,1.5888888888889028,0.9777777777777601,1.698863636363653,0.02467427977402479,1.0078835916129605,38.888888888888886,1.1666666666316665,1.6250000000000435,0.0,0.9305762146461621,0
399,451.9555555555556,1.5888888888889028,1.658333333333303,0.9777777777777601,1.6250000000000435,0.024868096573351664,1.0158005307742868,38.888888888888886,1.1666666666316665,1.6960227272727268,0.0,0.9279773861045573,0
400,453.6138888888889,1.658333333333303,1.6388888888889142,0.9777777777777601,1.6960227272727268,0.024637501469129706,1.0063812883899048,36.111111111111114,1.0833333333008335,1.6761363636364197,0.0,0.9331837556553069,0
401,455.2527777777778,1.6388888888889142,1.6638888888888914,0.9777777777777601,1.6761363636364197,0.024394223852076954,0.9964439965751183,38.888888888888886,1.1666666666316665,1.7017045454545787,0.0,0.92988756730328,0
402,456.9166666666667,1.6638888888888914,1.724999999999966,0.9777777777777601,1.7017045454545787,0.024775909844854827,1.0120349298381146,36.111111111111114,1.0833333333008335,1.7642045454545425,0.0,0.9357957662326479,0
403,458.64166666666665,1.724999999999966,1.6999999999999886,0.9777777777777601,1.7642045454545425,0.02016484213355471,0.8236841642393486,36.111111111111114,1.0833333333008335,1.7386363636363835,0.0,0.9272769176244787,0
404,460.34166666666664,1.6999999999999886,1.661111111111154,0.9777777777777601,1.7386363636363835,0.02477165183817675,1.0118610007466429,36.111111111111114,1.0833333333008335,1.698863636363711,0.0,0.942265473140339,0
405,462.0027777777778,1.661111111111154,1.7222222222222285,0.9777777777777601,1.698863636363711,0.025593062860267784,1.0454136190486825,38.888888888888886,1.1666666666316665,1.7613636363636747,0.0,0.9188960846485192,0
406,463.725,1.7222222222222285,1.6999999999999886,0.9777777777777601,1.7613636363636747,0.01971471273551155,0.805297486348636,33.333333333333336,0.9999999999700001,1.7386363636363835,0.0,0.9373727063692274,0
407,465.425,1.6999999999999886,1.7111111111111086,0.9777777777777601,1.7386363636363835,0.024986961241628313,1.0206558598811841,38.888888888888886,1.1666666666316665,1.750000000000029,0.0,0.9347754708979232,0
408,467.1361111111111,1.7111111111111086,1.7027777777777828,0.9777777777777601,1.750000000000029,0.019949201620862805,0.8148757801073839,36.111111111111114,1.0833333333008335,1.7414772727273093,0.0,0.9344903248664744,0
409,468.8388888888889,1.7027777777777828,1.783333333333303,0.9777777777777601,1.7414772727273093,0.02524253894254303,1.0310955798443695,36.111111111111114,1.0833333333008335,1.8238636363636382,0.0,0.9364861697670672,0
410,470.6222222222222,1.783333333333303,1.75,0.9777777777777601,1.8238636363636382,0.024689982431898346,1.0085250065341016,44.44444444444444,1.3333333332933333,1.7897727272727597,0.0,0.9320098454789301,0
411,472.3722222222222,1.75,1.7333333333333485,0.9777777777777601,1.7897727272727597,0.025533382575505748,1.0429758263225997,38.888888888888886,1.1666666666316665,1.7727272727273202,0.0,0.9238677505723456,0
412,474.10555555555555,1.7333333333333485,1.7916666666666856,0.9777777777777601,1.7727272727273202,0.024336155884757366,0.9940720630477478,36.111111111111114,1.0833333333008335,1.8323863636364162,0.0,0.9352813841026004,0
413,475.89722222222224,1.7916666666666856,1.7027777777777828,0.9777777777777601,1.8323863636364162,0.020586046802953575,0.8408893381648217,36.111111111111114,1.0833333333008335,1.7414772727273093,0.0,0.9274829165698381,0
414,477.6,1.7027777777777828,1.6499999999999773,0.9777777777777601,1.7414772727273093,0.02452747107091905,1.0018868174691404,36.111111111111114,1.0833333333008335,1.6875000000000073,0.0,0.9308823206070813,0
415,479.25,1.6499999999999773,1.6638888888888914,0.9777777777777601,1.6875000000000073,0.02510507051060771,1.0254803327862474,36.111111111111114,1.0833333333008335,1.7017045454545787,0.0,0.9344761862792208,0
416,480.9138888888889,1.6638888888888914,1.6499999999999773,0.9777777777777601,1.7017045454545787,0.024468659533146118,0.9994845109190921,38.888888888888886,1.1666666666316665,1.6875000000000073,0.0,0.9272176796649974,0
417,482.56388888888887,1.6499999999999773,1.6833333333333371,0.9777777777777601,1.6875000000000073,0.020055708291614512,0.8192263154353078,36.111111111111114,1.0833333333008335,1.721590909090944,0.0,0.9436057226857579,0
418,484.2472222222222,1.6833333333333371,1.6888888888889255,0.9777777777777601,1.721590909090944,0.02625201567714177,1.0723302195678024,41.666666666666664,1.2499999999625,1.727272727272796,0.0,0.9200727249858908,0
419,485.93611111111113,1.6888888888889255,1.6833333333333371,0.9777777777777601,1.727272727272796,0.024856673736795364,1.0153339360189297,38.888888888888886,1.1666666666316665,1.721590909090944,0.0,0.9317449915392945,0
420,487.61944444444447,1.6833333333333371,1.6861111111110745,0.9777777777777601,1.721590909090944,0.02443606740806383,0.9981532028368674,36.111111111111114,1.0833333333008335,1.724431818181812,0.0,0.928975332960394,0
421,489.30555555555554,1.6861111111110745,1.6305555555555884,0.9777777777777601,1.724431818181812,0.020108129113965728,0.8213675769914918,36.111111111111114,1.0833333333008335,1.6676136363637002,0.0,0.936503561524618,0
422,490.93611111111113,1.6305555555555884,1.6222222222222058,0.9777777777777601,1.6676136363637002,0.025371593789380645,1.036367152661773,36.111111111111114,1.0833333333008335,1.6590909090909223,0.0,0.9373705170616914,0
423,492.55833333333334,1.6222222222222058,1.658333333333303,0.9777777777777601,1.6590909090909223,0.019629859187046354,0.8018314277657128,33.333333333333336,0.9999999999700001,1.6960227272727268,0.0,0.9364763195097938,0
424,494.21666666666664,1.658333333333303,1.6333333333333826,0.9777777777777601,1.6960227272727268,0.02383516273784338,0.9736077262196993,36.111111111111114,1.0833333333008335,1.670454545454626,0.0,0.9381863265405617,0
425,495.85,1.6333333333333826,1.6888888888888687,0.9777777777777601,1.670454545454626,0.02663388467863189,1.0879286282862077,41.666666666666664,1.2499999999625,1.727272727272738,0.0,0.9195759435627372,0
426,497.5388888888889,1.6888888888888687,1.6499999999999773,0.9777777777777601,1.727272727272738,0.019868934151461213,0.8115970515653121,33.333333333333336,0.9999999999700001,1.6875000000000073,0.0,0.9422318944430239,0
427,499.18888888888887,1.6499999999999773,1.6194444444444684,0.9777777777777601,1.6875000000000073,0.020280429313193807,0.8284056160031285,36.111111111111114,1.0833333333008335,1.6562500000000544,0.0,0.9346588537419197,0
428,500.80833333333334,1.6194444444444684,1.6555555555555657,0.9777777777777601,1.6562500000000544,0.024804818712891398,1.0132157859365705,38.888888888888886,1.1666666666316665,1.6931818181818592,0.0,0.9286154468280952,0
429,502.4638888888889,1.6555555555555657,1.6499999999999773,0.9777777777777601,1.6931818181818592,0.025563250617731115,1.0441958623256058,38.888888888888886,1.1666666666316665,1.6875000000000073,0.0,0.9237054856848799,0
430,504.1138888888889,1.6499999999999773,1.7527777777777942,0.9777777777777601,1.6875000000000073,0.019272478556640996,0.7872333087265891,36.111111111111114,1.0833333333008335,1.7926136363636855,0.0,0.938148121066295,0
431,505.8666666666667,1.7527777777777942,1.6888888888888687,0.9777777777777601,1.7926136363636855,0.025567738658548528,1.044379187745427,38.888888888888886,1.1666666666316665,1.727272727272738,0.0,0.9274603663937818,0
432,507.55555555555554,1.6888888888888687,1.7361111111111427,0.9777777777777601,1.727272727272738,0.025262809363643147,1.0319235766495043,38.888888888888886,1.1666666666316665,1.7755681818182463,0.0,0.9296789015970917,0
433,509.2916666666667,1.7361111111111427,1.669444444444423,0.9777777777777601,1.7755681818182463,0.0193514270036696,0.7904581584515736,33.333333333333336,0.9999999999700001,1.7073863636363726,0.0,0.941277952389401,0
434,510.9611111111111,1.669444444444423,1.6972222222221944,0.9777777777777601,1.7073863636363726,0.020041309344567125,0.8186381538922566,36.111111111111114,1.0833333333008335,1.7357954545454575,0.0,0.9333558816587912,0
435,512.6583333333333,1.6972222222221944,1.6916666666667197,0.9777777777777601,1.7357954545454575,0.02538262791232345,1.0368178694228596,41.666666666666664,1.2499999999625,1.730113636363722,0.0,0.9383829038135352,0
436,514.35,1.6916666666667197,1.7388888888888232,0.9777777777777601,1.730113636363722,0.02652759337323591,1.083586890102931,38.888888888888886,1.1666666666316665,1.778409090909056,0.0,0.9237273411573521,0
437,516.0888888888888,1.7388888888888232,1.64722222222224,0.9777777777777601,1.778409090909056,0.020016081699093163,0.8176076666739427,33.333333333333336,0.9999999999700001,1.6846590909091395,0.0,0.9424323228608463,0
438,517.7361111111111,1.64722222222224,1.7361111111110858,0.9777777777777601,1.6846590909091395,0.024788264075014034,1.0125395697294715,38.888888888888886,1.1666666666316665,1.775568181818188,0.0,0.9296515683171056,0
439,519.4722222222222,1.7361111111110858,1.7222222222222854,0.9777777777777601,1.775568181818188,0.025477083382445358,1.0406761428697782,36.111111111111114,1.0833333333008335,1.7613636363637328,0.0,0.9311571420409728,0
440,521.1944444444445,1.7222222222222854,1.7111111111111086,0.9777777777777601,1.7613636363637328,0.01999813999474305,0.8168747922157756,36.111111111111114,1.0833333333008335,1.750000000000029,0.0,0.931993738315391,0
441,522.9055555555556,1.7111111111111086,1.694444444444457,0.9777777777777601,1.750000000000029,0.020062364345978786,0.8194981988718284,36.111111111111114,1.0833333333008335,1.7329545454545898,0.0,0.9333485777316778,0
442,524.6,1.694444444444457,1.6138888888888232,0.9777777777777601,1.7329545454545898,0.019156534179017557,0.7824972663044123,33.333333333333336,0.9999999999700001,1.6505681818181446,0.0,0.9436012938001171,0
443,526.2138888888888,1.6138888888888232,1.6694444444444798,0.9777777777777601,1.6505681818181446,0.01919513280778504,0.7840739252768237,36.111111111111114,1.0833333333008335,1.7073863636364306,0.0,0.934395174317441,0
444,527.8833333333333,1.6694444444444798,1.6666666666666288,0.9777777777777601,1.7073863636364306,0.025507966365522036,1.041937636708225,36.111111111111114,1.0833333333008335,1.7045454545454466,0.0,0.9357783576814563,0
445,529.55,1.6666666666666288,1.6805555555556566,0.9777777777777601,1.7045454545454466,0.01971021828389469,0.8051138990634379,36.111111111111114,1.0833333333008335,1.7187500000001343,0.0,0.9321850926318993,0
446,531.2305555555556,1.6805555555556566,1.713888888888846,0.9777777777777601,1.7187500000001343,0.01935302207082426,0.7905233130184922,36.111111111111114,1.0833333333008335,1.752840909090897,0.0,0.9358568368210194,0
447,532.9444444444445,1.713888888888846,1.6111111111110858,0.9777777777777601,1.752840909090897,0.019868358446491676,0.8115735354344374,36.111111111111114,1.0833333333008335,1.6477272727272767,0.0,0.9348492790908316,0
448,534.5555555555555,1.6111111111110858,1.6750000000000682,0.9777777777777601,1.6477272727272767,0.019607883035840053,0.800933756084493,33.333333333333336,0.9999999999700001,1.7130681818182825,0.0,0.9339248647325997,0
449,536.2305555555556,1.6750000000000682,1.60277777777776,0.9777777777777601,1.7130681818182825,0.019413940639103646,0.7930116865781526,36.111111111111114,1.0833333333008335,1.639204545454557,0.0,0.9381711990570843,0
450,537.8333333333334,1.60277777777776,1.6861111111110176,0.9777777777777601,1.639204545454557,0.01970266844914018,0.8048055068980677,36.111111111111114,1.0833333333008335,1.7244318181817537,0.0,0.9350625312466297,0
451,539.5194444444444,1.6861111111110176,1.591666666666697,0.9777777777777601,1.7244318181817537,0.02444095657291356,0.9983529131860188,36.111111111111114,1.0833333333008335,1.6278409090909696,0.0,0.9397231962169277,0
452,541.1111111111111,1.591666666666697,1.625,0.9777777777777601,1.6278409090909696,0.02032365210999775,0.8301711608571742,36.111111111111114,1.0833333333008335,1.6619318181818483,0.0,0.9267354199288477,0
453,542.7361111111111,1.625,1.5944444444444343,0.9777777777777601,1.6619318181818483,0.024165017001657876,0.9870814609413175,36.111111111111114,1.0833333333008335,1.6306818181818374,0.0,0.9415508257980045,0
454,544.3305555555555,1.5944444444444343,1.6194444444445253,0.9777777777777601,1.6306818181818374,0.024844343395792053,1.0148302719407867,38.888888888888886,1.1666666666316665,1.6562500000001126,0.0,0.9267871041203011,0
455,545.95,1.6194444444445253,1.6638888888888914,0.9777777777777601,1.6562500000001126,0.02366053895213072,0.9664747744198089,36.111111111111114,1.0833333333008335,1.7017045454545787,0.0,0.9428066042445955,0
456,547.6138888888889,1.6638888888888914,1.6861111111110176,0.9777777777777601,1.7017045454545787,0.025208639226097198,1.029710859873655,38.888888888888886,1.1666666666316665,1.7244318181817537,0.0,0.9255270566016593,0
457,549.3,1.6861111111110176,1.6666666666667425,0.9777777777777601,1.7244318181817537,0.02588659460425607,1.0574036682453676,38.888888888888886,1.1666666666316665,1.704545454545563,0.0,0.9321923067393323,0
458,550.9666666666667,1.6666666666667425,1.6388888888889142,0.9777777777777601,1.704545454545563,0.024740050245179623,1.0105701534618454,38.888888888888886,1.1666666666316665,1.6761363636364197,0.0,0.9304087719476322,0
459,552.6055555555556,1.6388888888889142,1.6416666666666515,0.9777777777777601,1.6761363636364197,0.024693808585875783,1.0086812955057822,36.111111111111114,1.0833333333008335,1.6789772727272876,0.0,0.9300590111824207,0
460,554.2472222222223,1.6416666666666515,1.6333333333333258,0.9777777777777601,1.6789772727272876,0.024644965508331784,1.0066861760181487,36.111111111111114,1.0833333333008335,1.6704545454545678,0.0,0.9363552714044752,0
461,555.8805555555556,1.6333333333333258,1.588888888888846,0.9777777777777601,1.6704545454545678,0.024906142948632828,1.0173546315511857,38.888888888888886,1.1666666666316665,1.6249999999999856,0.0,0.924793062785028,0
462,557.4694444444444,1.588888888888846,1.5944444444444343,0.9777777777777601,1.6249999999999856,0.019222939901223386,0.7852097765950236,33.333333333333336,0.9999999999700001,1.6306818181818374,0.0,0.9434823160572119,0
463,559.0638888888889,1.5944444444444343,1.7055555555555202,0.9777777777777601,1.6306818181818374,0.02710728044077437,1.107265679878887,44.44444444444444,1.3333333332933333,1.7443181818181772,0.0,0.9168203981211522,0
464,560.7694444444444,1.7055555555555202,1.6333333333334394,0.9777777777777601,1.7443181818181772,0.01910379259643655,0.780342902482411,33.333333333333336,0.9999999999700001,1.6704545454546842,0.0,0.9464176301480323,0
465,562.4027777777778,1.6333333333334394,0.8694444444444116,0.9777777777777601,1.6704545454546842,0.025398108326957936,1.037450206254749,38.888888888888886,1.1666666666316665,0.889204545454528,0.0,0.9240509439628684,0
466,563.2722222222222,0.8694444444444116,0.8444444444444343,0.9777777777777601,0.889204545454528,0.029906841117636567,1.2216208422494084,33.333333333333336,0.9999999999700001,0.863636363636369,0.0,0.9937622440199252,0
467,564.1166666666667,0.8444444444444343,0.8861111111110631,0.9777777777777601,0.863636363636369,0.028752793051604043,1.174480819507536,33.333333333333336,0.9999999999700001,0.9062499999999672,0.0,0.9958708219583035,0
468,565.0027777777777,0.8861111111110631,0.9916666666666742,0.9777777777777601,0.9062499999999672,0.027776254405051666,1.1345916196018027,33.333333333333336,0.9999999999700001,1.0142045454545716,0.0,0.9955530315265929,0
469,565.9944444444444,0.9916666666666742,0.9416666666667197,0.9777777777777601,1.0142045454545716,0.030211555869949776,1.2340676898085499,36.111111111111114,1.0833333333008335,0.9630681818182535,0.0,0.9898151596173793,0
470,566.9361111111111,0.9416666666667197,0.9805555555554974,0.9777777777777601,0.9630681818182535,0.028916204765754547,1.18115578578327,38.888888888888886,1.1666666666316665,1.0028409090908679,0.0,0.9938513310604105,0
471,567.9166666666666,0.9805555555554974,1.036111111111154,0.9777777777777601,1.0028409090908679,0.02877654672122282,1.1754510984404418,36.111111111111114,1.0833333333008335,1.059659090909154,0.0,0.9917131695028744,0
472,568.9527777777778,1.036111111111154,0.9888888888889369,0.9777777777777601,1.059659090909154,0.02761407407378821,1.1279669522858848,41.666666666666664,1.2499999999625,1.0113636363637037,0.0,0.99332682116407,0
473,569.9416666666667,0.9888888888889369,0.9333333333332803,0.9777777777777601,1.0113636363637037,0.023165906648827193,0.946270262395666,27.77777777777778,0.8333333333083334,0.9545454545454175,0.0,0.9952728204809634,0
474,570.875,0.9333333333332803,1.0305555555555657,0.9777777777777601,0.9545454545454175,0.02301362574553321,0.9400499623442911,33.333333333333336,0.9999999999700001,1.053977272727302,0.0,0.998909861535571,0
475,571.9055555555556,1.0305555555555657,0.9388888888888687,0.9777777777777601,1.053977272727302,0.0227450889022192,0.9290808933137674,33.333333333333336,0.9999999999700001,0.9602272727272694,0.0,0.9994056512893106,0
476,572.8444444444444,0.9388888888888687,0.8944444444445026,0.9777777777777601,0.9602272727272694,0.023048745752161363,0.941484528165139,30.555555555555557,0.9166666666391667,0.9147727272728032,0.0,0.9975841316467232,0
477,573.7388888888889,0.8944444444445026,0.9138888888888914,0.9777777777777601,0.9147727272728032,0.02323659843837688,0.9491578479868731,30.555555555555557,0.9166666666391667,0.9346590909091104,0.0,0.9984709364779517,0
478,574.6527777777778,0.9138888888888914,0.908333333333303,0.9777777777777601,0.9346590909091104,0.02332396180938765,0.9527264266427107,33.333333333333336,0.9999999999700001,0.9289772727272585,0.0,0.9992440445839967,0
479,575.5611111111111,0.908333333333303,0.8555555555554974,0.9777777777777601,0.9289772727272585,0.02314516493487109,0.9454230144374787,27.77777777777778,0.8333333333083334,0.8749999999999564,0.0,0.9979773072762337,0
480,576.4166666666666,0.8555555555554974,0.9416666666667197,0.9777777777777601,0.8749999999999564,0.022885372244024958,0.9348111225110346,27.77777777777778,0.8333333333083334,0.9630681818182535,0.0,0.9992958649086847,0
481,577.3583333333333,0.9416666666667197,0.8972222222222399,0.9777777777777601,0.9630681818182535,0.02356518592443982,0.9625798379555864,30.555555555555557,0.9166666666391667,0.917613636363671,0.0,0.9986885875712007,0
482,578.2555555555556,0.8972222222222399,0.8361111111111086,0.9777777777777601,0.917613636363671,0.02206605602169671,0.9013440716228353,27.77777777777778,0.8333333333083334,0.8551136363636492,0.0,0.9897097778645191,0
483,579.0916666666667,0.8361111111111086,0.9166666666666288,0.9777777777777601,0.8551136363636492,0.023727591800205897,0.9692137182092455,33.333333333333336,0.9999999999700001,0.9374999999999782,0.0,0.9989060964457346,0
484,580.0083333333333,0.9166666666666288,0.9611111111111086,0.9777777777777601,0.9374999999999782,0.02334117081329898,0.9534293720915377,30.555555555555557,0.9166666666391667,0.9829545454545606,0.0,0.9986027150242194,0
485,580.9694444444444,0.9611111111111086,0.8694444444444116,0.9777777777777601,0.9829545454545606,0.028784665025819264,1.1757827111995338,33.333333333333336,0.9999999999700001,0.889204545454528,0.0,0.995703024745781,0
486,581.8388888888888,0.8694444444444116,0.9444444444444571,0.9777777777777601,0.889204545454528,0.028725259454982305,1.1733561398610666,36.111111111111114,1.0833333333008335,0.9659090909091212,0.0,0.9901660556439046,0
487,582.7833333333333,0.9444444444444571,0.9527777777777828,0.9777777777777601,0.9659090909091212,0.02816924865389199,1.1506444672890288,33.333333333333336,0.9999999999700001,0.974431818181841,0.0,0.995778643975042,0
488,583.7361111111111,0.9527777777777828,0.8722222222222626,0.9777777777777601,0.974431818181841,0.02725516949869222,1.113306583857426,30.555555555555557,0.9166666666391667,0.892045454545512,0.0,0.9876918840382432,0
489,584.6083333333333,0.8722222222222626,0.941666666666606,0.9777777777777601,0.892045454545512,0.023824859502123513,0.9731868644025488,33.333333333333336,0.9999999999700001,0.9630681818181372,0.0,0.9983632808362894,0
490,585.55,0.941666666666606,0.9611111111111086,0.9777777777777601,0.9630681818181372,0.027318772544162533,1.1159046117023412,30.555555555555557,0.9166666666391667,0.9829545454545606,0.0,0.9908373871336177,0
491,586.5111111111111,0.9611111111111086,0.8833333333333258,0.9777777777777601,0.9829545454545606,0.02748730680562956,1.122788821426511,38.888888888888886,1.1666666666316665,0.9034090909090995,0.0,0.9930843870573409,0
492,587.3944444444444,0.8833333333333258,0.9250000000000682,0.9777777777777601,0.9034090909090995,0.029169626006978425,1.191507419676334,30.555555555555557,0.9166666666391667,0.9460227272728141,0.0,0.9914570058244859,0
493,588.3194444444445,0.9250000000000682,0.9722222222221717,0.9777777777777601,0.9460227272728141,0.02720087071529959,1.1110886122154093,33.333333333333336,0.9999999999700001,0.9943181818181481,0.0,0.9959247832083684,0
494,589.2916666666666,0.9722222222221717,0.9555555555556339,0.9777777777777601,0.9943181818181481,0.02711177069675763,1.1074490957827803,30.555555555555557,0.9166666666391667,0.977272727272825,0.0,0.9893052653614348,0
495,590.2472222222223,0.9555555555556339,0.9194444444443661,0.9777777777777601,0.977272727272825,0.02857900898123276,1.1673821680123335,38.888888888888886,1.1666666666316665,0.940340909090846,0.0,0.9932639919682755,0
496,591.1666666666666,0.9194444444443661,1.0722222222223081,0.9777777777777601,0.940340909090846,0.02279526701114489,0.9311305455470866,30.555555555555557,0.9166666666391667,1.0965909090910169,0.0,0.9979074814655441,0
497,592.2388888888889,1.0722222222223081,1.0083333333333258,0.9777777777777601,1.0965909090910169,0.02295756532285893,0.9377600320739949,33.333333333333336,0.9999999999700001,1.0312500000000109,0.0,0.9994052290742221,0
498,593.2472222222223,1.0083333333333258,0.9777777777777601,0.9777777777777601,1.0312500000000109,0.023464375556979437,0.9584619825953358,30.555555555555557,0.9166666666391667,1.0,0.0,0.9973806126080441,0
499,594.225,0.9777777777777601,1.0249999999999773,0.9777777777777601,1.0,0.027721688003488714,1.1323627164162855,33.333333333333336,0.9999999999700001,1.0482954545454501,0.0,0.9947721681685257,0
500,595.25,1.0249999999999773,1.0083333333333258,0.9777777777777601,1.0482954545454501,0.026754326391490283,1.0928483757822836,36.111111111111114,1.0833333333008335,1.0312500000000109,0.0,0.9903795381148096,0
501,596.2583333333333,1.0083333333333258,1.0194444444445026,0.9777777777777601,1.0312500000000109,0.023246777025746967,0.949573618225764,30.555555555555557,0.9166666666391667,1.0426136363637146,0.0,0.9976389838345181,0
502,597.2777777777778,1.0194444444445026,1.0472222222222172,0.9777777777777601,1.0426136363637146,0.027928573601211357,1.1408134838224817,33.333333333333336,0.9999999999700001,1.0710227272727415,0.0,0.995240927185683,0
503,598.325,1.0472222222222172,1.0138888888888005,0.9777777777777601,1.0710227272727415,0.02730550880813359,1.1153628207350066,38.888888888888886,1.1666666666316665,1.0369318181817464,0.0,0.992698007032746,0
504,599.3388888888888,1.0138888888888005,0.9555555555556339,0.9777777777777601,1.0369318181817464,0.028785790999781517,1.1758287044642424,38.888888888888886,1.1666666666316665,0.977272727272825,0.0,0.9930962674127303,0
505,600.2944444444445,0.9555555555556339,0.9444444444444571,0.9777777777777601,0.977272727272825,0.022106364463115997,0.9029905722332708,27.77777777777778,0.8333333333083334,0.9659090909091212,0.0,0.9976085752818533,0
506,601.2388888888889,0.9444444444444571,0.9638888888888459,0.9777777777777601,0.9659090909091212,0.023998528029477866,0.9802807962499256,30.555555555555557,0.9166666666391667,0.9857954545454285,0.0,0.9987014247344891,0
507,602.2027777777778,0.9638888888888459,0.9361111111111313,0.9777777777777601,0.9857954545454285,0.02786692136415502,1.1382951416992506,44.44444444444444,1.3333333332933333,0.9573863636364016,0.0,0.986374686558196,0
508,603.1388888888889,0.9361111111111313,0.997222222222149,0.9777777777777601,0.9573863636364016,0.02274534567977788,0.9290913820449668,30.555555555555557,0.9166666666391667,1.0198863636363071,0.0,0.9979618290326715,0
509,604.1361111111111,0.997222222222149,1.0277777777778283,0.9777777777777601,1.0198863636363071,0.023282635428429274,0.9510383457078199,33.333333333333336,0.9999999999700001,1.0511363636364344,0.0,0.9992986537349688,0
510,605.1638888888889,1.0277777777778283,0.9555555555555202,0.9777777777777601,1.0511363636364344,0.022605600427923464,0.9233831324976727,30.555555555555557,0.9166666666391667,0.9772727272727088,0.0,0.9936057101173654,0
511,606.1194444444444,0.9555555555555202,1.0277777777778283,0.9777777777777601,0.9772727272727088,0.023546457134869102,0.9618148130036132,30.555555555555557,0.9166666666391667,1.0511363636364344,0.0,0.9984264295631454,0
512,607.1472222222222,1.0277777777778283,1.0361111111110404,0.9777777777777601,1.0511363636364344,0.021942052567173735,0.8962788357471927,27.77777777777778,0.8333333333083334,1.0596590909090378,0.0,0.9954119772213254,0
513,608.1833333333333,1.0361111111110404,1.002777777777851,0.9777777777777601,1.0596590909090378,0.029285206694494165,1.1962286062528553,38.888888888888886,1.1666666666316665,1.0255681818182754,0.0,0.991879224472975,0
514,609.1861111111111,1.002777777777851,1.0083333333333258,0.9777777777777601,1.0255681818182754,0.022373074845091694,0.9138850348140638,30.555555555555557,0.9166666666391667,1.0312500000000109,0.0,0.9967747525184273,0
515,610.1944444444445,1.0083333333333258,1.0027777777777374,0.9777777777777601,1.0312500000000109,0.02810539316137883,1.1480361276038262,33.333333333333336,0.9999999999700001,1.025568181818159,0.0,0.995870907024195,0
516,611.1972222222222,1.0027777777777374,0.9277777777778056,0.9777777777777601,1.025568181818159,0.028758733742018514,1.1747234820876167,38.888888888888886,1.1666666666316665,0.948863636363682,0.0,0.9933390596598601,0
517,612.125,0.9277777777778056,0.9833333333333485,0.9777777777777601,0.948863636363682,0.022494982414221085,0.9188646589305206,33.333333333333336,0.9999999999700001,1.0056818181818519,0.0,0.9986561708064848,0
518,613.1083333333333,0.9833333333333485,0.9833333333333485,0.9777777777777601,1.0056818181818519,0.02343858779026471,0.9574086158031072,33.333333333333336,0.9999999999700001,1.0056818181818519,0.0,0.9981772086652496,0
519,614.0916666666667,0.9833333333333485,0.908333333333303,0.9777777777777601,1.0056818181818519,0.02761388221750151,1.1279591154288384,38.888888888888886,1.1666666666316665,0.9289772727272585,0.0,0.9916232079505614,0
520,615.0,0.908333333333303,0.9861111111110858,0.9777777777777601,0.9289772727272585,0.027488682564692047,1.1228450177977036,30.555555555555557,0.9166666666391667,1.0085227272727197,0.0,0.9899475344669701,0
521,615.9861111111111,0.9861111111110858,0.9694444444444343,0.9777777777777601,1.0085227272727197,0.023867541056157685,0.9749303008217496,33.333333333333336,0.9999999999700001,0.9914772727272804,0.0,0.9988159984111131,0
522,616.9555555555555,0.9694444444444343,0.8944444444445026,0.9777777777777601,0.9914772727272804,0.028671391588799278,1.1711557701263344,38.888888888888886,1.1666666666316665,0.9147727272728032,0.0,0.9924963492252554,0
523,617.85,0.8944444444445026,0.9833333333333485,0.9777777777777601,0.9147727272728032,0.028845522463168443,1.1782685877111725,33.333333333333336,0.9999999999700001,1.0056818181818519,0.0,0.995269791857182,0
524,618.8333333333334,0.9833333333333485,0.997222222222149,0.9777777777777601,1.0056818181818519,0.027746799430535016,1.133388456397908,33.333333333333336,0.9999999999700001,1.0198863636363071,0.0,0.9957915993252071,0
525,619.8305555555555,0.997222222222149,0.8972222222222399,0.9777777777777601,1.0198863636363071,0.02296724469014947,0.9381554104014953,30.555555555555557,0.9166666666391667,0.917613636363671,0.0,0.9948245261948547,0
526,620.7277777777778,0.8972222222222399,0.9944444444444116,0.9777777777777601,0.917613636363671,0.027910599468116932,1.1400792847299346,30.555555555555557,0.9166666666391667,1.0170454545454393,0.0,0.9928744111262869,0
527,621.7222222222222,0.9944444444444116,0.9388888888889824,0.9777777777777601,1.0170454545454393,0.023199121090997667,0.947626990599074,33.333333333333336,0.9999999999700001,0.9602272727273857,0.0,0.9989698481026025,0
528,622.6611111111112,0.9388888888889824,0.8861111111110631,0.9777777777777601,0.9602272727273857,0.027561437538614918,1.1258168793919086,33.333333333333336,0.9999999999700001,0.9062499999999672,0.0,0.9872850674916374,0
529,623.5472222222222,0.8861111111110631,0.9583333333333712,0.9777777777777601,0.9062499999999672,0.02373720059825341,0.9696062139568784,30.555555555555557,0.9166666666391667,0.9801136363636929,0.0,0.9987637722543126,0
530,624.5055555555556,0.9583333333333712,0.9305555555555429,0.9777777777777601,0.9801136363636929,0.021922397740525068,0.8954759844600786,30.555555555555557,0.9166666666391667,0.9517045454545497,0.0,0.9977241998566906,0
531,625.4361111111111,0.9305555555555429,0.872222222222149,0.9777777777777601,0.9517045454545497,0.022994896017406334,0.939284899054609,30.555555555555557,0.9166666666391667,0.8920454545453957,0.0,0.9983040898913674,0
532,626.3083333333333,0.872222222222149,0.9833333333333485,0.9777777777777601,0.8920454545453957,0.023338293700600695,0.9533118491199907,30.555555555555557,0.9166666666391667,1.0056818181818519,0.0,0.9985066443979227,0
533,627.2916666666666,0.9833333333333485,0.9694444444444343,0.9777777777777601,1.0056818181818519,0.027228357111433125,1.1122113638381224,33.333333333333336,0.9999999999700001,0.9914772727272804,0.0,0.995719845943301,0
534,628.2611111111111,0.9694444444444343,0.9138888888888914,0.9777777777777601,0.9914772727272804,0.021666148568711848,0.8850088365635536,30.555555555555557,0.9166666666391667,0.9346590909091104,0.0,0.9885689575294001,0
535,629.175,0.9138888888888914,0.9222222222222172,0.9777777777777601,0.9346590909091104,0.02363410050009098,0.9653948287337528,30.555555555555557,0.9166666666391667,0.9431818181818301,0.0,0.9974449651311128,0
536,630.0972222222222,0.9222222222222172,0.969444444444548,0.9777777777777601,0.9431818181818301,0.027660359356484608,1.1298575921501526,33.333333333333336,0.9999999999700001,0.9914772727273966,0.0,0.9930341732484171,0
537,631.0666666666667,0.969444444444548,0.9333333333332803,0.9777777777777601,0.9914772727273966,0.0229444456677923,0.9372241264593072,30.555555555555557,0.9166666666391667,0.9545454545454175,0.0,0.9980660735936644,0
538,632.0,0.9333333333332803,0.9055555555555657,0.9777777777777601,0.9545454545454175,0.02345001792060589,0.9578755084916225,30.555555555555557,0.9166666666391667,0.9261363636363907,0.0,0.9979668157916244,0
539,632.9055555555556,0.9055555555555657,0.9277777777778056,0.9777777777777601,0.9261363636363907,0.02199750211337756,0.8985438132173782,27.77777777777778,0.8333333333083334,0.948863636363682,0.0,0.9977318839400653,0
540,633.8333333333334,0.9277777777778056,0.8805555555554747,0.9777777777777601,0.948863636363682,0.022094911577084285,0.9025227500308117,30.555555555555557,0.9166666666391667,0.9005681818181154,0.0,0.9945160486907136,0
541,634.7138888888888,0.8805555555554747,0.8500000000000227,0.9777777777777601,0.9005681818181154,0.028685098343426547,1.171715657312895,30.555555555555557,0.9166666666391667,0.8693181818182208,0.0,0.9943433211051835,0
542,635.5638888888889,0.8500000000000227,0.908333333333303,0.9777777777777601,0.8693181818182208,0.027513910941360815,1.1238755348835257,33.333333333333336,0.9999999999700001,0.9289772727272585,0.0,0.9946600009020942,0
543,636.4722222222222,0.908333333333303,0.9194444444444798,0.9777777777777601,0.9289772727272585,0.022052764668455377,0.9008011525603556,30.555555555555557,0.9166666666391667,0.9403409090909622,0.0,0.995049530330473,0
544,637.3916666666667,0.9194444444444798,0.9222222222222172,0.9777777777777601,0.9403409090909622,0.02366910757505391,0.966824781574064,30.555555555555557,0.9166666666391667,0.9431818181818301,0.0,0.9987333848063407,0
545,638.3138888888889,0.9222222222222172,0.8944444444445026,0.9777777777777601,0.9431818181818301,0.02322761858404389,0.9487910430417974,27.77777777777778,0.8333333333083334,0.9147727272728032,0.0,0.9985762674181863,0
546,639.2083333333334,0.8944444444445026,1.0194444444443889,0.9777777777777601,0.9147727272728032,0.021509074363849637,0.8785927419421035,27.77777777777778,0.8333333333083334,1.0426136363635983,0.0,0.9940607000862511,0
547,640.2277777777778,1.0194444444443889,0.9750000000000227,0.9777777777777601,1.0426136363635983,0.02343639529124298,0.9573190576150317,33.333333333333336,0.9999999999700001,0.9971590909091322,0.0,0.9991530308622999,0
548,641.2027777777778,0.9750000000000227,0.9194444444444798,0.9777777777777601,0.9971590909091322,0.028356212622233087,1.1582814851732228,38.888888888888886,1.1666666666316665,0.9403409090909622,0.0,0.9932888405925746,0
549,642.1222222222223,0.9194444444444798,1.0499999999999545,0.9777777777777601,0.9403409090909622,0.02798308742532744,1.1430402393487165,33.333333333333336,0.9999999999700001,1.0738636363636094,0.0,0.9957244078515801,0
550,643.1722222222222,1.0499999999999545,1.0722222222221944,0.9777777777777601,1.0738636363636094,0.02798267214332396,1.1430232761011148,41.666666666666664,1.2499999999625,1.0965909090909005,0.0,0.9945328569219416,0
551,644.2444444444444,1.0722222222221944,0.9250000000000682,0.9777777777777601,1.0965909090909005,0.02282340473207134,0.9322799021843169,30.555555555555557,0.9166666666391667,0.9460227272728141,0.0,0.9972688021058531,0
552,645.1694444444445,0.9250000000000682,0.9777777777777601,0.9777777777777601,0.9460227272728141,0.027716004098481538,1.1321305428880009,33.333333333333336,0.9999999999700001,1.0,0.0,0.9959472580024005,0
