beat_index,peak_time_s,rr_prev_s,rr_next_s,rr_baseline_s,prematurity_index,aa_ratio,morph_index,qrs_width_ms,width_index,pause_index,pvc_score,morphology_score,is_pvc_candidate
0,1.3666666666666667,,0.6833333333333331,0.73888888888888,,0.02876218300802569,1.1464760540606724,33.333333333333336,0.9999999999700001,0.9248120300751987,0.0,0.986623666784987,0
1,2.05,0.6833333333333331,0.7305555555555556,0.73888888888888,0.9248120300751987,0.026517836079966592,1.0570151807567787,27.77777777777778,0.8333333333083334,0.9887218045112901,0.0,0.9819294432685124,0
2,2.7805555555555554,0.7305555555555556,0.7000000000000002,0.73888888888888,0.9887218045112901,0.024923864609441036,0.9934786223076687,30.555555555555557,0.9166666666391667,0.9473684210526432,0.0,0.9846658289446025,0
3,3.4805555555555556,0.7000000000000002,1.130555555555555,0.73888888888888,0.9473684210526432,0.030305781324602953,1.208004711553408,19.444444444444443,0.5833333333158333,1.5300751879699426,0.0,0.6706930285070231,0
4,4.611111111111111,1.130555555555555,0.677777777777778,0.73888888888888,1.5300751879699426,0.02680079315989544,1.0682940018523415,30.555555555555557,0.9166666666391667,0.917293233082718,0.0,0.9907688773279857,0
5,5.288888888888889,0.677777777777778,0.7055555555555557,0.73888888888888,0.917293233082718,0.025565666950561422,1.0190612081402282,27.77777777777778,0.8333333333083334,0.9548872180451244,0.0,0.9932122436610153,0
6,5.9944444444444445,0.7055555555555557,0.30277777777777803,0.73888888888888,0.9548872180451244,0.026603073388260012,1.060412785620211,30.555555555555557,0.9166666666391667,0.40977443609023084,0.0,0.9830720908601156,0
7,6.2972222222222225,0.30277777777777803,1.5638888888888882,0.73888888888888,0.40977443609023084,0.03129328458952123,1.247367121778655,69.44444444444444,2.0833333332708333,2.116541353383483,1.0,0.7835469310218561,1
8,7.861111111111111,1.5638888888888882,0.6555555555555568,0.73888888888888,2.116541353383483,0.027888786068643867,1.1116619832228736,27.77777777777778,0.8333333333083334,0.8872180451127942,0.0,0.9832564452436017,0
9,8.516666666666667,0.6555555555555568,1.6722222222222207,0.73888888888888,0.8872180451127942,0.029338915842559866,1.1694649344317996,27.77777777777778,0.8333333333083334,2.2631578947368673,0.0,0.9710120108642644,0
10,10.188888888888888,1.6722222222222207,0.6722222222222225,0.73888888888888,2.2631578947368673,0.03073219411614114,1.225001754319852,30.555555555555557,0.9166666666391667,0.9097744360902368,0.0,0.9828678196554763,0
11,10.86111111111111,0.6722222222222225,0.05000000000000071,0.73888888888888,0.9097744360902368,0.02571115502403056,1.0248604408458002,27.77777777777778,0.8333333333083334,0.0676691729323326,0.0,0.972585914613665,0
12,10.911111111111111,0.05000000000000071,1.6222222222222218,0.73888888888888,0.0676691729323326,0.027744728634500542,1.1059197765687867,27.77777777777778,0.8333333333083334,2.195488721804537,1.0,0.4617894017713946,1
13,12.533333333333333,1.6222222222222218,0.6666666666666661,0.73888888888888,2.195488721804537,0.027479114417700987,1.0953322513070987,38.888888888888886,1.1666666666316665,0.9022556390977543,0.0,0.9795264848843617,0
14,13.2,0.6666666666666661,1.6416666666666675,0.73888888888888,0.9022556390977543,0.02431922876523445,0.9693775129928374,25.0,0.7499999999775,2.221804511278223,0.0,0.9618877129264868,0
15,14.841666666666667,1.6416666666666675,0.6722222222222225,0.73888888888888,2.221804511278223,0.03171299876954144,1.2640971542942194,44.44444444444444,1.3333333332933333,0.9097744360902368,0.0,0.9698107808564609,0
16,15.51388888888889,0.6722222222222225,0.7527777777777764,0.73888888888888,0.9097744360902368,0.027131553694150153,1.08147829429793,27.77777777777778,0.8333333333083334,1.0187969924812135,0.0,0.9623313894902186,0
17,16.266666666666666,0.7527777777777764,1.7416666666666671,0.73888888888888,1.0187969924812135,0.027228013504408656,1.0853232341138594,33.333333333333336,0.9999999999700001,2.357142857142886,0.0,0.9721578160833433,0
18,18.008333333333333,1.7416666666666671,0.6638888888888879,0.73888888888888,2.357142857142886,0.028994525953769636,1.1557373685982728,27.77777777777778,0.8333333333083334,0.8984962406015131,0.0,0.9799972622828645,0
19,18.67222222222222,0.6638888888888879,0.7250000000000014,0.73888888888888,0.8984962406015131,0.029051170225910354,1.1579952396920945,25.0,0.7499999999775,0.9812030075188106,0.0,0.9502066003467275,0
20,19.397222222222222,0.7250000000000014,0.6944444444444429,0.73888888888888,0.9812030075188106,0.024562783758932092,0.9790857457804296,27.77777777777778,0.8333333333083334,0.9398496240601595,0.0,0.9895386024429975,0
21,20.091666666666665,0.6944444444444429,0.7250000000000014,0.73888888888888,0.9398496240601595,0.026707662724670237,1.0645817727124272,33.333333333333336,0.9999999999700001,0.9812030075188106,0.0,0.9916070234113074,0
22,20.816666666666666,0.7250000000000014,0.7250000000000014,0.73888888888888,0.9812030075188106,0.026043187815058006,1.038095446129289,33.333333333333336,0.9999999999700001,0.9812030075188106,0.0,0.9936163047598972,0
23,21.541666666666668,0.7250000000000014,0.6916666666666664,0.73888888888888,0.9812030075188106,0.02621151674548669,1.0448051276540982,36.111111111111114,1.0833333333008335,0.9360902255639206,0.0,0.9946669343036794,0
24,22.233333333333334,0.6916666666666664,0.6999999999999993,0.73888888888888,0.9360902255639206,0.025004997048203158,0.9967126048681149,33.333333333333336,0.9999999999700001,0.947368421052642,0.0,0.9903183747101216,0
25,22.933333333333334,0.6999999999999993,1.905555555555555,0.73888888888888,0.947368421052642,0.025928285516905642,1.0335153788460976,38.888888888888886,1.1666666666316665,2.578947368421083,0.0,0.9947596445392559,0
26,24.83888888888889,1.905555555555555,2.636111111111113,0.73888888888888,2.578947368421083,0.027939366697063393,1.1136781542230423,33.333333333333336,0.9999999999700001,3.567669172932376,0.0,0.9901925374300964,0
27,27.475,2.636111111111113,1.125,0.73888888888888,3.567669172932376,0.029886388193248264,1.1912874762099883,44.44444444444444,1.3333333332933333,1.5225563909774618,0.0,0.9779131009022343,0
28,28.6,1.125,0.6805555555555536,0.73888888888888,1.5225563909774618,0.025801086534356973,1.0284451591220858,27.77777777777778,0.8333333333083334,0.9210526315789557,0.0,0.993092005295152,0
29,29.280555555555555,0.6805555555555536,0.7111111111111121,0.73888888888888,0.9210526315789557,0.027447289820054347,1.0940637057616578,30.555555555555557,0.9166666666391667,0.9624060150376069,0.0,0.9839074678255368,0
30,29.991666666666667,0.7111111111111121,1.8499999999999979,0.73888888888888,0.9624060150376069,0.026742449260840392,1.0659683827173656,27.77777777777778,0.8333333333083334,2.5037593984962676,0.0,0.9828914800907196,0
31,31.841666666666665,1.8499999999999979,0.6722222222222207,0.73888888888888,2.5037593984962676,0.02657979407664355,1.0594848597629891,25.0,0.7499999999775,0.9097744360902345,0.0,0.9852345517670875,0
32,32.513888888888886,0.6722222222222207,0.7472222222222271,0.73888888888888,0.9097744360902345,0.024186892145174565,0.9641025042797766,30.555555555555557,0.9166666666391667,1.0112781954887404,0.0,0.990575971741388,0
33,33.26111111111111,0.7472222222222271,0.7333333333333343,0.73888888888888,1.0112781954887404,0.02597153764741315,1.0352394319856013,30.555555555555557,0.9166666666391667,0.992481203007532,0.0,0.9923245287173162,0
34,33.99444444444445,0.7333333333333343,0.7083333333333286,0.73888888888888,0.992481203007532,0.026636898726492237,1.0617610817593783,30.555555555555557,0.9166666666391667,0.9586466165413584,0.0,0.9963290289761304,0
35,34.702777777777776,0.7083333333333286,0.7083333333333357,0.73888888888888,0.9586466165413584,0.02436975362029749,0.9713914608370778,33.333333333333336,0.9999999999700001,0.9586466165413681,0.0,0.9933485608381387,0
36,35.41111111111111,0.7083333333333357,0.7111111111111086,0.73888888888888,0.9586466165413681,0.02530435859781287,1.0086453169309741,30.555555555555557,0.9166666666391667,0.962406015037602,0.0,0.9848667371798354,0
37,36.12222222222222,0.7111111111111086,0.7250000000000014,0.73888888888888,0.962406015037602,0.026928508433432082,1.0733848012122758,30.555555555555557,0.9166666666391667,0.9812030075188106,0.0,0.9886692499890071,0
38,36.84722222222222,0.7250000000000014,0.7277777777777814,0.73888888888888,0.9812030075188106,0.027428273464202062,1.0933057036095242,36.111111111111114,1.0833333333008335,0.9849624060150542,0.0,0.9929756021101566,0
39,37.575,0.7277777777777814,0.7388888888888872,0.73888888888888,0.9849624060150542,0.027087463966360456,1.0797208540811412,36.111111111111114,1.0833333333008335,1.0000000000000095,0.0,0.9942905088751104,0
40,38.31388888888889,0.7388888888888872,0.7388888888888872,0.73888888888888,1.0000000000000095,0.024100981061976185,0.9606780423869546,33.333333333333336,0.9999999999700001,1.0000000000000095,0.0,0.9966917376899722,0
41,39.05277777777778,0.7388888888888872,0.7250000000000014,0.73888888888888,1.0000000000000095,0.025938488634687815,1.033922080597865,30.555555555555557,0.9166666666391667,0.9812030075188106,0.0,0.9952152237449001,0
42,39.77777777777778,0.7250000000000014,2.7722222222222186,0.73888888888888,0.9812030075188106,0.023988273982814695,0.9561854777111192,36.111111111111114,1.0833333333008335,3.7518796992481604,0.0,0.9933945944319489,0
43,42.55,2.7722222222222186,1.1388888888888928,0.73888888888888,3.7518796992481604,0.030975513620843945,1.234700600389701,33.333333333333336,0.9999999999700001,1.5413533834586703,0.0,0.9877386946888054,0
44,43.68888888888889,1.1388888888888928,0.6638888888888843,0.73888888888888,1.5413533834586703,0.025766393770087298,1.0270622869154367,30.555555555555557,0.9166666666391667,0.8984962406015083,0.0,0.9904343617350255,0
45,44.352777777777774,0.6638888888888843,0.7194444444444485,0.73888888888888,0.8984962406015083,0.027225336707465592,1.085216535550821,30.555555555555557,0.9166666666391667,0.973684210526333,0.0,0.9901661189638633,0
46,45.07222222222222,0.7194444444444485,1.9249999999999972,0.73888888888888,0.973684210526333,0.02808153286631742,1.1193449740434223,33.333333333333336,0.9999999999700001,2.6052631578947643,0.0,0.9844131633377651,0
47,46.99722222222222,1.9249999999999972,0.6777777777777771,0.73888888888888,2.6052631578947643,0.0290940264967006,1.159703513650773,38.888888888888886,1.1666666666316665,0.9172932330827169,0.0,0.9922861489622719,0
48,47.675,0.6777777777777771,0.7222222222222285,0.73888888888888,0.9172932330827169,0.026654103069593937,1.0624468561105964,25.0,0.7499999999775,0.9774436090225767,0.0,0.9688212144718491,0
49,48.397222222222226,0.7222222222222285,0.7277777777777743,0.73888888888888,0.9774436090225767,0.028134314757855803,1.121448888573133,36.111111111111114,1.0833333333008335,0.9849624060150447,0.0,0.9876820515777005,0
50,49.125,0.7277777777777743,1.9944444444444471,0.73888888888888,0.9849624060150447,0.02719149894384767,1.0838677441291098,33.333333333333336,0.9999999999700001,2.699248120300788,0.0,0.9925413103035702,0
51,51.11944444444445,1.9944444444444471,1.3611111111111072,0.73888888888888,2.699248120300788,0.027999054705485974,1.1160573502789177,30.555555555555557,0.9166666666391667,1.8421052631579113,0.0,0.9856655522279469,0
52,52.480555555555554,1.3611111111111072,0.6638888888888914,0.73888888888888,1.8421052631579113,0.02693040879119577,1.0734605504928367,27.77777777777778,0.8333333333083334,0.8984962406015179,0.0,0.9760510600164979,0
53,53.144444444444446,0.6638888888888914,0.7222222222222214,0.73888888888888,0.8984962406015179,0.02581278282829677,1.0289113796770237,25.0,0.7499999999775,0.977443609022567,0.0,0.971659475362954,0
54,53.86666666666667,0.7222222222222214,0.7194444444444414,0.73888888888888,0.977443609022567,0.027048579738806488,1.0781709078980288,27.77777777777778,0.8333333333083334,0.9736842105263234,0.0,0.9747827851459772,0
55,54.58611111111111,0.7194444444444414,0.7111111111111157,0.73888888888888,0.9736842105263234,0.025519889674624506,1.017236501348426,30.555555555555557,0.9166666666391667,0.9624060150376117,0.0,0.9902841276252997,0
56,55.297222222222224,0.7111111111111157,0.7250000000000014,0.73888888888888,0.9624060150376117,0.025119628912911945,1.0012818925290783,30.555555555555557,0.9166666666391667,0.9812030075188106,0.0,0.9910545628971509,0
57,56.022222222222226,0.7250000000000014,1.86944444444444,0.73888888888888,0.9812030075188106,0.024171087052410202,0.9634725047981137,30.555555555555557,0.9166666666391667,2.530075187969949,0.0,0.9944549191143103,0
58,57.891666666666666,1.86944444444444,0.8000000000000043,0.73888888888888,2.530075187969949,0.02101842711181655,0.8378057872378227,19.444444444444443,0.5833333333158333,1.082706766917312,0.0,0.7347820903334237,0
59,58.69166666666667,0.8000000000000043,1.1999999999999957,0.73888888888888,1.082706766917312,0.028151038753767475,1.1221155160275091,33.333333333333336,0.9999999999700001,1.6240601503759535,0.0,0.9916870379903204,0
60,59.891666666666666,1.1999999999999957,0.6777777777777771,0.73888888888888,1.6240601503759535,0.028877550984786813,1.1510746835431824,27.77777777777778,0.8333333333083334,0.9172932330827169,0.0,0.9846301375661903,0
61,60.56944444444444,0.6777777777777771,0.7277777777777814,0.73888888888888,0.9172932330827169,0.02493225377085804,0.993813018785,27.77777777777778,0.8333333333083334,0.9849624060150542,0.0,0.9920486658663481,0
62,61.297222222222224,0.7277777777777814,1.2555555555555529,0.73888888888888,0.9849624060150542,0.026608259426026945,1.0606195038694337,30.555555555555557,0.9166666666391667,1.6992481203007685,0.0,0.9813950164765699,0
63,62.55277777777778,1.2555555555555529,0.5750000000000028,0.73888888888888,1.6992481203007685,0.023630937583647246,0.9419418570243504,27.77777777777778,0.8333333333083334,0.7781954887218177,0.0,0.6608638854928197,0
64,63.12777777777778,0.5750000000000028,0.6666666666666643,0.73888888888888,0.7781954887218177,0.026166790972217375,1.0430223343230667,30.555555555555557,0.9166666666391667,0.902255639097752,0.0,0.9559121634611832,0
65,63.794444444444444,0.6666666666666643,0.7361111111111072,0.73888888888888,0.902255639097752,0.025060785416775772,0.9989363591862681,27.77777777777778,0.8333333333083334,0.996240601503766,0.0,0.9821721154354057,0
66,64.53055555555555,0.7361111111111072,1.8250000000000028,0.73888888888888,0.996240601503766,0.02583379738312247,1.0297490311128583,30.555555555555557,0.9166666666391667,2.4699248120301087,0.0,0.9914861804868661,0
67,66.35555555555555,1.8250000000000028,0.6666666666666714,0.73888888888888,2.4699248120301087,0.026386261696404942,1.0517705551997014,30.555555555555557,0.9166666666391667,0.9022556390977615,0.0,0.9945018797044609,0
68,67.02222222222223,0.6666666666666714,0.7138888888888886,0.73888888888888,0.9022556390977615,0.025129226046356964,1.0016644394198784,30.555555555555557,0.9166666666391667,0.9661654135338458,0.0,0.99032587785306,0
69,67.73611111111111,0.7138888888888886,0.7111111111111086,0.73888888888888,0.9661654135338458,0.027213062744203473,1.0847272887866057,38.888888888888886,1.1666666666316665,0.962406015037602,0.0,0.9952991873202075,0
70,68.44722222222222,0.7111111111111086,1.9777777777777743,0.73888888888888,0.962406015037602,0.027303818666926046,1.088344868583542,38.888888888888886,1.1666666666316665,2.6766917293233354,0.0,0.9930675742552366,0
71,70.425,1.9777777777777743,2.077777777777783,0.73888888888888,2.6766917293233354,0.027445374551006194,1.0939873621092937,30.555555555555557,0.9166666666391667,2.8120300751880105,0.0,0.9920880691442104,0
72,72.50277777777778,2.077777777777783,1.9722222222222143,0.73888888888888,2.8120300751880105,0.02701814177214823,1.0769576342081195,33.333333333333336,0.9999999999700001,2.669172932330848,0.0,0.9966764930187566,0
73,74.475,1.9722222222222143,0.6638888888888914,0.73888888888888,2.669172932330848,0.025656293558201593,1.0226736333685642,30.555555555555557,0.9166666666391667,0.8984962406015179,0.0,0.9968337998005286,0
74,75.13888888888889,0.6638888888888914,0.7138888888888886,0.73888888888888,0.8984962406015179,0.026509699509155188,1.0566908526765757,33.333333333333336,0.9999999999700001,0.9661654135338458,0.0,0.992893098577073,0
75,75.85277777777777,0.7138888888888886,0.7000000000000028,0.73888888888888,0.9661654135338458,0.026097117220981104,1.0402451011983531,33.333333333333336,0.9999999999700001,0.9473684210526467,0.0,0.9913286554363505,0
76,76.55277777777778,0.7000000000000028,0.7305555555555543,0.73888888888888,0.9473684210526467,0.026796757366682647,1.0681331329684909,30.555555555555557,0.9166666666391667,0.9887218045112883,0.0,0.9933110436993449,0
77,77.28333333333333,0.7305555555555543,0.7250000000000085,0.73888888888888,0.9887218045112883,0.02645301633367783,1.0544314308748726,36.111111111111114,1.0833333333008335,0.9812030075188203,0.0,0.9965564268171261,0
78,78.00833333333334,0.7250000000000085,0.7083333333333286,0.73888888888888,0.9812030075188203,0.026633676843767787,1.0616326557844953,36.111111111111114,1.0833333333008335,0.9586466165413584,0.0,0.9972235487516535,0
79,78.71666666666667,0.7083333333333286,0.7055555555555486,0.73888888888888,0.9586466165413584,0.025899943749280882,1.0323856607748902,33.333333333333336,0.9999999999700001,0.9548872180451148,0.0,0.9933286210491277,0
80,79.42222222222222,0.7055555555555486,0.7222222222222285,0.73888888888888,0.9548872180451148,0.02463023549160973,0.9817744080526304,30.555555555555557,0.9166666666391667,0.9774436090225767,0.0,0.990557900233753,0
81,80.14444444444445,0.7222222222222285,0.7305555555555543,0.73888888888888,0.9774436090225767,0.025760576169674296,1.0268303942401227,33.333333333333336,0.9999999999700001,0.9887218045112883,0.0,0.9966585294702441,0
82,80.875,0.7305555555555543,0.7222222222222285,0.73888888888888,0.9887218045112883,0.026303625781712886,1.0484766432816317,33.333333333333336,0.9999999999700001,0.9774436090225767,0.0,0.9946900408126456,0
83,81.59722222222223,0.7222222222222285,1.7638888888888857,0.73888888888888,0.9774436090225767,0.02577589918422802,1.0274411778255328,33.333333333333336,0.9999999999700001,2.387218045112806,0.0,0.9979165190965724,0
84,83.36111111111111,1.7638888888888857,0.6888888888888829,0.73888888888888,2.387218045112806,0.026778795955357818,1.0674171814715094,33.333333333333336,0.9999999999700001,0.9323308270676722,0.0,0.9970243988741887,0
85,84.05,0.6888888888888829,0.7277777777777743,0.73888888888888,0.9323308270676722,0.0246981945274764,0.9844832917022632,30.555555555555557,0.9166666666391667,0.9849624060150447,0.0,0.9976842815282401,0
86,84.77777777777777,0.7277777777777743,0.7222222222222285,0.73888888888888,0.9849624060150447,0.02530071389879942,1.008500037271846,33.333333333333336,0.9999999999700001,0.9774436090225767,0.0,0.9899071496015152,0
87,85.5,0.7222222222222285,1.4305555555555571,0.73888888888888,0.9774436090225767,0.029117032676464396,1.160620552325732,36.111111111111114,1.0833333333008335,1.9360902255639352,0.0,0.9862569611388539,0
88,86.93055555555556,1.4305555555555571,0.6694444444444372,0.73888888888888,1.9360902255639352,0.028666313473807742,1.1426546429645759,33.333333333333336,0.9999999999700001,0.9060150375939859,0.0,0.990070989660468,0
89,87.6,0.6694444444444372,0.7222222222222285,0.73888888888888,0.9060150375939859,0.02802816170947749,1.1172175710824779,30.555555555555557,0.9166666666391667,0.9774436090225767,0.0,0.9923620120972725,0
90,88.32222222222222,0.7222222222222285,1.8944444444444457,0.73888888888888,0.9774436090225767,0.02496500530590148,0.9951185125526516,33.333333333333336,0.9999999999700001,2.5639097744361226,0.0,0.9890310171914922,0
91,90.21666666666667,1.8944444444444457,0.6972222222222229,0.73888888888888,2.5639097744361226,0.026519097740056043,1.0570654712051957,30.555555555555557,0.9166666666391667,0.9436090225564031,0.0,0.9932145806407673,0
92,90.91388888888889,0.6972222222222229,0.7361111111111143,0.73888888888888,0.9436090225564031,0.026144248073679,1.0421237622864394,36.111111111111114,1.0833333333008335,0.9962406015037756,0.0,0.9981968346410197,0
93,91.65,0.7361111111111143,0.7194444444444343,0.73888888888888,0.9962406015037756,0.025846691500141353,1.0302629975387128,33.333333333333336,0.9999999999700001,0.9736842105263138,0.0,0.991191379010084,0
94,92.36944444444444,0.7194444444444343,0.7222222222222285,0.73888888888888,0.9736842105263138,0.02342351917169136,0.9336740477828765,30.555555555555557,0.9166666666391667,0.9774436090225767,0.0,0.9954440524924281,0
95,93.09166666666667,0.7222222222222285,0.7138888888888886,0.73888888888888,0.9774436090225767,0.024001234489556815,0.9567020904669794,30.555555555555557,0.9166666666391667,0.9661654135338458,0.0,0.9954873869237653,0
96,93.80555555555556,0.7138888888888886,1.4888888888888943,0.73888888888888,0.9661654135338458,0.024450680839819574,0.9746172632484557,30.555555555555557,0.9166666666391667,2.0150375939849936,0.0,0.9922482213279005,0
97,95.29444444444445,1.4888888888888943,0.6972222222222086,0.73888888888888,2.0150375939849936,0.025983460434879424,1.035714680694085,33.333333333333336,0.9999999999700001,0.9436090225563839,0.0,0.9904988967278754,0
98,95.99166666666666,0.6972222222222086,0.7472222222222342,0.73888888888888,0.9436090225563839,0.024557674651192886,0.9788820940034076,30.555555555555557,0.9166666666391667,1.0112781954887502,0.0,0.9933907292181255,0
99,96.7388888888889,0.7472222222222342,1.9055555555555515,0.73888888888888,1.0112781954887502,0.026127161996621993,1.0414427020832475,33.333333333333336,0.9999999999700001,2.578947368421078,0.0,0.9964292926830798,0
100,98.64444444444445,1.9055555555555515,0.6638888888888914,0.73888888888888,2.578947368421078,0.026889859399650756,1.0718442299791913,33.333333333333336,0.9999999999700001,0.8984962406015179,0.0,0.992898988964968,0
101,99.30833333333334,0.6638888888888914,0.75,0.73888888888888,0.8984962406015179,0.02571088177954485,1.0248495491739238,30.555555555555557,0.9166666666391667,1.0150375939849745,0.0,0.9969011143244888,0
102,100.05833333333334,0.75,0.7333333333333343,0.73888888888888,1.0150375939849745,0.027040141866950845,1.0778345697964657,36.111111111111114,1.0833333333008335,0.992481203007532,0.0,0.9936942732500117,0
103,100.79166666666667,0.7333333333333343,1.9083333333333314,0.73888888888888,0.992481203007532,0.02810216769133273,1.1201674892451783,33.333333333333336,0.9999999999700001,2.5827067669173216,0.0,0.9879473940462697,0
104,102.7,1.9083333333333314,0.6666666666666572,0.73888888888888,2.5827067669173216,0.03159036783238934,1.259209019311813,36.111111111111114,1.0833333333008335,0.9022556390977423,0.0,0.9746243585833805,0
105,103.36666666666666,0.6666666666666572,0.7638888888888999,0.73888888888888,0.9022556390977423,0.027200200566025658,1.084214595460101,27.77777777777778,0.8333333333083334,1.0338345864661926,0.0,0.9820885056569064,0
106,104.13055555555556,0.7638888888888999,1.9638888888888886,0.73888888888888,1.0338345864661926,0.025834879249924073,1.0297921549043096,33.333333333333336,0.9999999999700001,2.657894736842137,0.0,0.9974109658297843,0
107,106.09444444444445,1.9638888888888886,0.6749999999999972,0.73888888888888,2.657894736842137,0.02756944633852117,1.098932930160604,30.555555555555557,0.9166666666391667,0.9135338345864733,0.0,0.9904356801326455,0
108,106.76944444444445,0.6749999999999972,0.7361111111111143,0.73888888888888,0.9135338345864733,0.026874529097354282,1.071233155900443,27.77777777777778,0.8333333333083334,0.9962406015037756,0.0,0.9812613272595669,0
109,107.50555555555556,0.7361111111111143,0.7222222222222143,0.73888888888888,0.9962406015037756,0.02953573731337417,1.1773103439109978,36.111111111111114,1.0833333333008335,0.9774436090225574,0.0,0.9816767560786183,0
110,108.22777777777777,0.7222222222222143,1.9611111111111086,0.73888888888888,0.9774436090225574,0.025093736092613703,1.0002497908128858,27.77777777777778,0.8333333333083334,2.654135338345893,0.0,0.9939014839119407,0
111,110.18888888888888,1.9611111111111086,0.6722222222222314,0.73888888888888,2.654135338345893,0.028421387533600934,1.1328917635132127,30.555555555555557,0.9166666666391667,0.9097744360902489,0.0,0.9878338874945838,0
112,110.86111111111111,0.6722222222222314,0.7194444444444343,0.73888888888888,0.9097744360902489,0.028308688649087015,1.1283995254804282,25.0,0.7499999999775,0.9736842105263138,0.0,0.9768059668874143,0
113,111.58055555555555,0.7194444444444343,1.9583333333333428,0.73888888888888,0.9736842105263138,0.03010232422326673,1.199894802279641,38.888888888888886,1.1666666666316665,2.6503759398496687,0.0,0.9839587822139786,0
114,113.53888888888889,1.9583333333333428,0.7000000000000028,0.73888888888888,2.6503759398496687,0.026279454586726567,1.04751316647453,30.555555555555557,0.9166666666391667,0.9473684210526467,0.0,0.9930234545415954,0
115,114.2388888888889,0.7000000000000028,0.7166666666666544,0.73888888888888,0.9473684210526467,0.02612252075208969,1.0412576995847986,30.555555555555557,0.9166666666391667,0.9699248120300701,0.0,0.9932857315218937,0
116,114.95555555555555,0.7166666666666544,1.9027777777777857,0.73888888888888,0.9699248120300701,0.024897160363281844,0.9924141767210901,30.555555555555557,0.9166666666391667,2.5751879699248534,0.0,0.9906322284704787,0
117,116.85833333333333,1.9027777777777857,0.6833333333333371,0.73888888888888,2.5751879699248534,0.028334132268555596,1.1294137218104225,30.555555555555557,0.9166666666391667,0.9248120300752042,0.0,0.9871525583744019,0
118,117.54166666666667,0.6833333333333371,0.7305555555555543,0.73888888888888,0.9248120300752042,0.02745138801993789,1.0942270622089039,27.77777777777778,0.8333333333083334,0.9887218045112883,0.0,0.9853068395948797,0
119,118.27222222222223,0.7305555555555543,1.86666666666666,0.73888888888888,0.9887218045112883,0.02932137925776231,1.1687659167482394,36.111111111111114,1.0833333333008335,2.5263157894737054,0.0,0.9836934515543263,0
120,120.13888888888889,1.86666666666666,0.6861111111111171,0.73888888888888,2.5263157894737054,0.02645711826310783,1.0545949359838425,30.555555555555557,0.9166666666391667,0.9285714285714478,0.0,0.9942269568469633,0
121,120.825,0.6861111111111171,0.75,0.73888888888888,0.9285714285714478,0.025087981246555334,1.0000203995598336,27.77777777777778,0.8333333333083334,1.0150375939849745,0.0,0.9875062250863891,0
122,121.575,0.75,1.875,0.73888888888888,1.0150375939849745,0.02811133211078985,1.1205327879241422,36.111111111111114,1.0833333333008335,2.5375939849624363,0.0,0.9930015963034806,0
123,123.45,1.875,0.6749999999999972,0.73888888888888,2.5375939849624363,0.026707340829084738,1.0645689417815976,33.333333333333336,0.9999999999700001,0.9135338345864733,0.0,0.9917169293352661,0
124,124.125,0.6749999999999972,0.7249999999999943,0.73888888888888,0.9135338345864733,0.024852917908230937,0.9906506487136866,30.555555555555557,0.9166666666391667,0.9812030075188011,0.0,0.9916755585525369,0
125,124.85,0.7249999999999943,0.7055555555555628,0.73888888888888,0.9812030075188011,0.02731940190607578,1.088966024861036,36.111111111111114,1.0833333333008335,0.954887218045134,0.0,0.9895364365672294,0
126,125.55555555555556,0.7055555555555628,0.7277777777777743,0.73888888888888,0.954887218045134,0.025446285260440214,1.0143025898886489,33.333333333333336,0.9999999999700001,0.9849624060150447,0.0,0.9877759332088271,0
127,126.28333333333333,0.7277777777777743,0.7138888888888886,0.73888888888888,0.9849624060150447,0.02926638717380488,1.166573902762288,38.888888888888886,1.1666666666316665,0.9661654135338458,0.0,0.988689141427199,0
128,126.99722222222222,0.7138888888888886,1.8750000000000142,0.73888888888888,0.9661654135338458,0.026378737387155925,1.0514706321940333,30.555555555555557,0.9166666666391667,2.537593984962456,0.0,0.9864752340258054,0
129,128.87222222222223,1.8750000000000142,0.6833333333333087,0.73888888888888,2.537593984962456,0.025977531380883212,1.0354783454191168,30.555555555555557,0.9166666666391667,0.9248120300751657,0.0,0.9942149963523113,0
130,129.55555555555554,0.6833333333333087,0.7472222222222342,0.73888888888888,0.9248120300751657,0.02556438690828847,1.0190101849681095,30.555555555555557,0.9166666666391667,1.0112781954887502,0.0,0.9941600141665521,0
131,130.30277777777778,0.7472222222222342,0.7416666666666742,0.73888888888888,1.0112781954887502,0.02669112259754383,1.0639224743665314,33.333333333333336,0.9999999999700001,1.003759398496263,0.0,0.9921181209039089,0
132,131.04444444444445,0.7416666666666742,0.7333333333333201,0.73888888888888,1.003759398496263,0.025732239884161127,1.025700894688826,33.333333333333336,0.9999999999700001,0.9924812030075127,0.0,0.9936268948509237,0
133,131.77777777777777,0.7333333333333201,0.7166666666666686,0.73888888888888,0.9924812030075127,0.02524725123774311,1.006368986903718,33.333333333333336,0.9999999999700001,0.9699248120300894,0.0,0.9922275286597362,0
134,132.49444444444444,0.7166666666666686,0.7166666666666686,0.73888888888888,0.9699248120300894,0.02328560936306769,0.9281768887820104,27.77777777777778,0.8333333333083334,0.9699248120300894,0.0,0.9815245785750202,0
135,133.2111111111111,0.7166666666666686,0.7194444444444343,0.73888888888888,0.9699248120300894,0.026052523201016666,1.0384675596247783,30.555555555555557,0.9166666666391667,0.9736842105263138,0.0,0.9906263880594952,0
136,133.93055555555554,0.7194444444444343,0.7277777777777885,0.73888888888888,0.9736842105263138,0.028651833354594054,1.1420774576398804,33.333333333333336,0.9999999999700001,0.9849624060150639,0.0,0.9802458358040842,0
137,134.65833333333333,0.7277777777777885,0.7333333333333485,0.73888888888888,0.9849624060150639,0.026248292331566968,1.0462710222561638,30.555555555555557,0.9166666666391667,0.9924812030075512,0.0,0.9902422667315972,0
138,135.39166666666668,0.7333333333333485,0.7416666666666458,0.73888888888888,0.9924812030075512,0.027389861848587396,1.0917745959920075,36.111111111111114,1.0833333333008335,1.0037593984962243,0.0,0.9907603680481947,0
139,136.13333333333333,0.7416666666666458,2.4000000000000057,0.73888888888888,1.0037593984962243,0.027336738183365423,1.0896570581798068,33.333333333333336,0.9999999999700001,3.248120300751926,0.0,0.9879012958941977,0
140,138.53333333333333,2.4000000000000057,1.38055555555556,0.73888888888888,3.248120300751926,0.025809585928507794,1.0287839495353592,30.555555555555557,0.9166666666391667,1.8684210526316072,0.0,0.9941308496037808,0
141,139.9138888888889,1.38055555555556,0.6888888888888971,0.73888888888888,1.8684210526316072,0.02642140548871173,1.0531714056260189,33.333333333333336,0.9999999999700001,0.9323308270676914,0.0,0.9944968711892975,0
142,140.6027777777778,0.6888888888888971,0.7333333333333201,0.73888888888888,0.9323308270676914,0.027253943024967368,1.0863567987221348,33.333333333333336,0.9999999999700001,0.9924812030075127,0.0,0.9968481993341447,0
143,141.3361111111111,0.7333333333333201,0.7055555555555486,0.73888888888888,0.9924812030075127,0.024955011823241165,0.9947201669693723,30.555555555555557,0.9166666666391667,0.9548872180451148,0.0,0.9863998035770261,0
144,142.04166666666666,0.7055555555555486,0.7333333333333485,0.73888888888888,0.9548872180451148,0.027665641360311757,1.1027673153660655,33.333333333333336,0.9999999999700001,0.9924812030075512,0.0,0.9926125412358322,0
145,142.775,0.7333333333333485,1.688888888888897,0.73888888888888,0.9924812030075512,0.02704022801501822,1.077838003704675,30.555555555555557,0.9166666666391667,2.2857142857143242,0.0,0.9911269814502518,0
146,144.4638888888889,1.688888888888897,0.7083333333333144,0.73888888888888,2.2857142857143242,0.026507128663423727,1.0565883773857057,30.555555555555557,0.9166666666391667,0.9586466165413392,0.0,0.9934287803747004,0
147,145.17222222222222,0.7083333333333144,0.7305555555555543,0.73888888888888,0.9586466165413392,0.026536669475481712,1.0577658900116609,33.333333333333336,0.9999999999700001,0.9887218045112883,0.0,0.9979180269241877,0
148,145.90277777777777,0.7305555555555543,1.8222222222222229,0.73888888888888,0.9887218045112883,0.02693128790804765,1.073495592562457,33.333333333333336,0.9999999999700001,2.466165413533865,0.0,0.9896257341995871,0
149,147.725,1.8222222222222229,0.7027777777777828,0.73888888888888,2.466165413533865,0.027953723457496003,1.1142504224005056,33.333333333333336,0.9999999999700001,0.9511278195488904,0.0,0.9928145221062789,0
150,148.42777777777778,0.7027777777777828,0.7194444444444343,0.73888888888888,0.9511278195488904,0.027174579504911218,1.0831933262108533,33.333333333333336,0.9999999999700001,0.9736842105263138,0.0,0.9926070107828926,0
151,149.1472222222222,0.7194444444444343,1.8555555555555543,0.73888888888888,0.9736842105263138,0.028013743701146718,1.1166428615309163,33.333333333333336,0.9999999999700001,2.51127819548875,0.0,0.9921770318733083,0
152,151.00277777777777,1.8555555555555543,0.6805555555555713,0.73888888888888,2.51127819548875,0.025894042226126172,1.0321504228940426,30.555555555555557,0.9166666666391667,0.9210526315789798,0.0,0.9972286303135881,0
153,151.68333333333334,0.6805555555555713,0.7166666666666686,0.73888888888888,0.9210526315789798,0.027157481210754293,1.0825117790275005,33.333333333333336,0.9999999999700001,0.9699248120300894,0.0,0.9908581736220221,0
154,152.4,0.7166666666666686,1.9083333333333314,0.73888888888888,0.9699248120300894,0.027492884150020592,1.0958811202288647,41.666666666666664,1.2499999999625,2.5827067669173216,0.0,0.9920149457862797,0
155,154.30833333333334,1.9083333333333314,0.6888888888888971,0.73888888888888,2.5827067669173216,0.028472741422951954,1.1349387571091925,30.555555555555557,0.9166666666391667,0.9323308270676914,0.0,0.9900330594500432,0
156,154.99722222222223,0.6888888888888971,0.7333333333333201,0.73888888888888,0.9323308270676914,0.024965152876927275,0.995124394812955,27.77777777777778,0.8333333333083334,0.9924812030075127,0.0,0.9879756784599913,0
157,155.73055555555555,0.7333333333333201,1.9027777777777715,0.73888888888888,0.9924812030075127,0.026079596804047752,1.039546727974539,36.111111111111114,1.0833333333008335,2.5751879699248343,0.0,0.993885570368224,0
158,157.63333333333333,1.9027777777777715,0.6777777777777771,0.73888888888888,2.5751879699248343,0.026042302798293514,1.038060168885985,27.77777777777778,0.8333333333083334,0.9172932330827169,0.0,0.9862351804381116,0
159,158.3111111111111,0.6777777777777771,0.7138888888889028,0.73888888888888,0.9172932330827169,0.026793383088209884,1.067998632417275,30.555555555555557,0.9166666666391667,0.966165413533865,0.0,0.9930819902178705,0
160,159.025,0.7138888888889028,0.7166666666666686,0.73888888888888,0.966165413533865,0.024534918508079328,0.9779750219235452,33.333333333333336,0.9999999999700001,0.9699248120300894,0.0,0.9920025850818032,0
161,159.74166666666667,0.7166666666666686,0.7277777777777601,0.73888888888888,0.9699248120300894,0.026066804749126083,1.0390368297986659,30.555555555555557,0.9166666666391667,0.9849624060150255,0.0,0.9891227026824507,0
162,160.46944444444443,0.7277777777777601,0.7166666666666686,0.73888888888888,0.9849624060150255,0.025084847712477733,0.9998954952094389,30.555555555555557,0.9166666666391667,0.9699248120300894,0.0,0.9937978145959145,0
163,161.1861111111111,0.7166666666666686,2.5333333333333314,0.73888888888888,0.9699248120300894,0.027355058876308732,1.0903873308349612,30.555555555555557,0.9166666666391667,3.428571428571467,0.0,0.9941646201226104,0
164,163.71944444444443,2.5333333333333314,1.4361111111111313,0.73888888888888,3.428571428571467,0.029019189999593832,1.1567204907043314,33.333333333333336,0.9999999999700001,1.9436090225564415,0.0,0.9928810990791024,0
165,165.15555555555557,1.4361111111111313,0.6777777777777771,0.73888888888888,1.9436090225564415,0.02870887657589788,1.144351231061497,30.555555555555557,0.9166666666391667,0.9172932330827169,0.0,0.9909680814350499,0
166,165.83333333333334,0.6777777777777771,0.7249999999999943,0.73888888888888,0.9172932330827169,0.027707911956828007,1.1044522440337963,27.77777777777778,0.8333333333083334,0.9812030075188011,0.0,0.9858907817817929,0
167,166.55833333333334,0.7249999999999943,1.88055555555556,0.73888888888888,0.9812030075188011,0.02675328965241213,1.0664004865444698,33.333333333333336,0.9999999999700001,2.5451127819549235,0.0,0.9845210074187791,0
168,168.4388888888889,1.88055555555556,0.7055555555555486,0.73888888888888,2.5451127819549235,0.025876439933047012,1.0314487860431059,30.555555555555557,0.9166666666391667,0.9548872180451148,0.0,0.9944632272479528,0
169,169.14444444444445,0.7055555555555486,0.7333333333333201,0.73888888888888,0.9548872180451148,0.026223292097458228,1.0452744995046195,33.333333333333336,0.9999999999700001,0.9924812030075127,0.0,0.9963296621629993,0
170,169.87777777777777,0.7333333333333201,0.7333333333333485,0.73888888888888,0.9924812030075127,0.026209879646322896,1.0447398720026448,33.333333333333336,0.9999999999700001,0.9924812030075512,0.0,0.998324384297917,0
171,170.61111111111111,0.7333333333333485,0.7333333333333201,0.73888888888888,0.9924812030075512,0.024055621073517604,0.9588699688980362,30.555555555555557,0.9166666666391667,0.9924812030075127,0.0,0.9988384611716253,0
172,171.34444444444443,0.7333333333333201,0.7222222222222285,0.73888888888888,0.9924812030075127,0.02558404171381458,1.0197936360669575,33.333333333333336,0.9999999999700001,0.9774436090225767,0.0,0.9974243842544402,0
173,172.06666666666666,0.7222222222222285,1.9000000000000057,0.73888888888888,0.9774436090225767,0.02458755365288918,0.9800730870498839,33.333333333333336,0.9999999999700001,2.57142857142861,0.0,0.9972971999158242,0
174,173.96666666666667,1.9000000000000057,0.6805555555555429,0.73888888888888,2.57142857142861,0.026924127203888492,1.0732101630508515,33.333333333333336,0.9999999999700001,0.9210526315789413,0.0,0.997055901394273,0
175,174.6472222222222,0.6805555555555429,1.7277777777777885,0.73888888888888,0.9210526315789413,0.02554230974666115,1.0181301774547615,30.555555555555557,0.9166666666391667,2.338345864661697,0.0,0.9945984607247672,0
176,176.375,1.7277777777777885,0.6611111111110972,0.73888888888888,2.338345864661697,0.028260222460908275,1.1264676372032756,33.333333333333336,0.9999999999700001,0.8947368421052551,0.0,0.9851546335092859,0
177,177.0361111111111,0.6611111111110972,1.6583333333333599,0.73888888888888,0.8947368421052551,0.025474975256593705,1.0154461885359383,25.0,0.7499999999775,2.244360902255702,0.0,0.9750527503840674,0
178,178.69444444444446,1.6583333333333599,0.6805555555555429,0.73888888888888,2.244360902255702,0.026210552699813473,1.04476670027607,30.555555555555557,0.9166666666391667,0.9210526315789413,0.0,0.9952699640456308,0
179,179.375,0.6805555555555429,1.6527777777777715,0.73888888888888,0.9210526315789413,0.02490294735362448,0.992644849262568,27.77777777777778,0.8333333333083334,2.236842105263176,0.0,0.9863900100173792,0
180,181.02777777777777,1.6527777777777715,0.6777777777777771,0.73888888888888,2.236842105263176,0.025800135455074685,1.0284072485913602,33.333333333333336,0.9999999999700001,0.9172932330827169,0.0,0.9967698996364356,0
181,181.70555555555555,0.6777777777777771,0.7194444444444628,0.73888888888888,0.9172932330827169,0.023305120654752258,0.9289546193420972,30.555555555555557,0.9166666666391667,0.9736842105263522,0.0,0.9942858798596105,0
182,182.425,0.7194444444444628,1.8083333333333087,0.73888888888888,0.9736842105263522,0.0252501554176145,1.0064847490723372,30.555555555555557,0.9166666666391667,2.4473684210526274,0.0,0.9983389000410767,0
183,184.23333333333332,1.8083333333333087,0.6888888888888971,0.73888888888888,2.4473684210526274,0.02663976792104162,1.0618754493942826,27.77777777777778,0.8333333333083334,0.9323308270676914,0.0,0.9930029171955645,0
184,184.92222222222222,0.6888888888888971,0.7111111111111086,0.73888888888888,0.9323308270676914,0.026164239835341836,1.0429206446377735,33.333333333333336,0.9999999999700001,0.962406015037602,0.0,0.9976503689033178,0
185,185.63333333333333,0.7111111111111086,1.76666666666668,0.73888888888888,0.962406015037602,0.02448094301725919,0.9758235298857472,33.333333333333336,0.9999999999700001,2.390977443609069,0.0,0.9938642387073047,0
186,187.4,1.76666666666668,0.6833333333333371,0.73888888888888,2.390977443609069,0.02555482078475023,1.0186288741488396,30.555555555555557,0.9166666666391667,0.9248120300752042,0.0,0.9976427907355705,0
187,188.08333333333334,0.6833333333333371,0.7305555555555543,0.73888888888888,0.9248120300752042,0.023750987843312286,0.9467271248168309,30.555555555555557,0.9166666666391667,0.9887218045112883,0.0,0.9958053062249164,0
188,188.8138888888889,0.7305555555555543,1.7722222222222115,0.73888888888888,0.9887218045112883,0.02643439889877835,1.0536893299260561,36.111111111111114,1.0833333333008335,2.398496240601518,0.0,0.998330191369255,0
189,190.5861111111111,1.7722222222222115,0.6500000000000057,0.73888888888888,2.398496240601518,0.028275197259109038,1.1270645406979365,33.333333333333336,0.9999999999700001,0.879699248120319,0.0,0.9926397276281171,0
190,191.23611111111111,0.6500000000000057,1.6583333333333314,0.73888888888888,0.879699248120319,0.025329303739505152,1.0096396436692252,27.77777777777778,0.8333333333083334,2.2443609022556634,0.0,0.9827355057963938,0
191,192.89444444444445,1.6583333333333314,0.6861111111111029,0.73888888888888,2.2443609022556634,0.02635557291474498,1.0505472838891885,30.555555555555557,0.9166666666391667,0.9285714285714286,0.0,0.9955537374707617,0
192,193.58055555555555,0.6861111111111029,0.7111111111111086,0.73888888888888,0.9285714285714286,0.024044018771402442,0.9584074949076823,30.555555555555557,0.9166666666391667,0.962406015037602,0.0,0.9927283332372193,0
193,194.29166666666666,0.7111111111111086,1.7833333333333314,0.73888888888888,0.962406015037602,0.026249687118416794,1.0463266192087108,36.111111111111114,1.0833333333008335,2.4135338345864925,0.0,0.9982810905176195,0
194,196.075,1.7833333333333314,0.6722222222222456,0.73888888888888,2.4135338345864925,0.027840993254076213,1.1097569359793216,33.333333333333336,0.9999999999700001,0.9097744360902681,0.0,0.9915310875494613,0
195,196.74722222222223,0.6722222222222456,0.73888888888888,0.73888888888888,0.9097744360902681,0.024603644732181868,0.9807144861080818,27.77777777777778,0.8333333333083334,1.0,0.0,0.9887301889477724,0
196,197.48611111111111,0.73888888888888,0.7222222222222285,0.73888888888888,1.0,0.02605171300104363,1.0384352646189428,33.333333333333336,0.9999999999700001,0.9774436090225767,0.0,0.9945925327674996,0
197,198.20833333333334,0.7222222222222285,1.799999999999983,0.73888888888888,0.9774436090225767,0.024906036363568227,0.9927679788570871,33.333333333333336,0.9999999999700001,2.4360902255639156,0.0,0.9986990037797578,0
198,200.00833333333333,1.799999999999983,0.6750000000000114,0.73888888888888,2.4360902255639156,0.027385113522417383,1.091585325161999,36.111111111111114,1.0833333333008335,0.9135338345864925,0.0,0.9968677742292,0
199,200.68333333333334,0.6750000000000114,1.7166666666666686,0.73888888888888,0.9135338345864925,0.026139461509271853,1.0419329672597726,27.77777777777778,0.8333333333083334,2.3233082706767223,0.0,0.9848567179723471,0
200,202.4,1.7166666666666686,0.6444444444444457,0.73888888888888,2.3233082706767223,0.02924767128011498,1.1658278771932333,38.888888888888886,1.1666666666316665,0.8721804511278317,0.0,0.989400208149394,0
201,203.04444444444445,0.6444444444444457,0.7361111111111143,0.73888888888888,0.8721804511278317,0.026179251972465848,1.0435190364819582,25.0,0.7499999999775,0.9962406015037756,0.0,0.9758962422428528,0
202,203.78055555555557,0.7361111111111143,0.674999999999983,0.73888888888888,0.9962406015037756,0.03688351140233847,1.4701965633364993,36.111111111111114,1.0833333333008335,0.913533834586454,0.0,0.9345827686433504,0
203,204.45555555555555,0.674999999999983,0.7194444444444628,0.73888888888888,0.913533834586454,0.03647805655119682,1.4540349153243532,41.666666666666664,1.2499999999625,0.9736842105263522,0.0,0.9763982020426549,0
204,205.175,0.7194444444444628,1.8138888888888687,0.73888888888888,0.9736842105263522,0.03527049274678698,1.405900773867845,44.44444444444444,1.3333333332933333,2.4548872180451147,0.0,0.9808897602373954,0
205,206.98888888888888,1.8138888888888687,1.9333333333333371,0.73888888888888,2.4548872180451147,0.03110402530072079,1.2398231449338617,33.333333333333336,0.9999999999700001,2.616541353383495,0.0,0.9900479096141422,0
206,208.92222222222222,1.9333333333333371,0.6777777777777771,0.73888888888888,2.616541353383495,0.038076905863965047,1.5177659071836516,41.666666666666664,1.2499999999625,0.9172932330827169,0.0,0.9682505559236738,0
207,209.6,0.6777777777777771,0.7249999999999943,0.73888888888888,0.9172932330827169,0.034798151759939056,1.387073008582386,41.666666666666664,1.2499999999625,0.9812030075188011,0.0,0.9857222439582513,0
208,210.325,0.7249999999999943,1.8666666666666742,0.73888888888888,0.9812030075188011,0.030294607485550386,1.2075593163307254,36.111111111111114,1.0833333333008335,2.5263157894737245,0.0,0.9921313756177556,0
209,212.19166666666666,1.8666666666666742,0.6555555555555657,0.73888888888888,2.5263157894737245,0.028936768043402568,1.1534351072869546,33.333333333333336,0.9999999999700001,0.8872180451128062,0.0,0.9920525201512376,0
210,212.84722222222223,0.6555555555555657,0.7333333333333201,0.73888888888888,0.8872180451128062,0.02480214235923492,0.9886267080747068,27.77777777777778,0.8333333333083334,0.9924812030075127,0.0,0.9889902125232675,0
211,213.58055555555555,0.7333333333333201,1.86944444444444,0.73888888888888,0.9924812030075127,0.023971405881626856,0.9555131061430803,30.555555555555557,0.9166666666391667,2.530075187969949,0.0,0.9971940874128927,0
212,215.45,1.86944444444444,0.6638888888888914,0.73888888888888,2.530075187969949,0.026940784702952626,1.0738741399051897,33.333333333333336,0.9999999999700001,0.8984962406015179,0.0,0.9947549756485745,0
213,216.11388888888888,0.6638888888888914,0.7222222222222285,0.73888888888888,0.8984962406015179,0.024799294389633797,0.9885131864776336,25.0,0.7499999999775,0.9774436090225767,0.0,0.9721115778084024,0
214,216.8361111111111,0.7222222222222285,1.8527777777777885,0.73888888888888,0.9774436090225767,0.026845558736747602,1.0700783817755517,36.111111111111114,1.0833333333008335,2.507518796992526,0.0,0.9878127026352757,0
215,218.6888888888889,1.8527777777777885,0.6916666666666629,0.73888888888888,2.507518796992526,0.025829924033427397,1.0295946373148228,30.555555555555557,0.9166666666391667,0.9360902255639159,0.0,0.9958944051273639,0
216,219.38055555555556,0.6916666666666629,0.7333333333333201,0.73888888888888,0.9360902255639159,0.023877014217251812,0.9517506037322332,30.555555555555557,0.9166666666391667,0.9924812030075127,0.0,0.9964942969270815,0
217,220.11388888888888,0.7333333333333201,0.6888888888888971,0.73888888888888,0.9924812030075127,0.023822593806864654,0.9495813769616637,33.333333333333336,0.9999999999700001,0.9323308270676914,0.0,0.9968776664735826,0
218,220.80277777777778,0.6888888888888971,0.6999999999999886,0.73888888888888,0.9323308270676914,0.024976802444494087,0.9955887528295835,30.555555555555557,0.9166666666391667,0.9473684210526275,0.0,0.9932483836448252,0
219,221.50277777777777,0.6999999999999886,0.7166666666666686,0.73888888888888,0.9473684210526275,0.024644145297633008,0.9823288603874155,33.333333333333336,0.9999999999700001,0.9699248120300894,0.0,0.9916041909760254,0
220,222.21944444444443,0.7166666666666686,1.9250000000000114,0.73888888888888,0.9699248120300894,0.024654525572336033,0.982742623709145,30.555555555555557,0.9166666666391667,2.6052631578947834,0.0,0.9955309707667227,0
221,224.14444444444445,1.9250000000000114,0.6722222222222172,0.73888888888888,2.6052631578947834,0.026632464062199712,1.0615843136601781,33.333333333333336,0.9999999999700001,0.9097744360902296,0.0,0.9909817718502562,0
222,224.81666666666666,0.6722222222222172,0.7222222222222285,0.73888888888888,0.9097744360902296,0.0253502572656275,1.0104748624681843,30.555555555555557,0.9166666666391667,0.9774436090225767,0.0,0.9909493410577508,0
223,225.5388888888889,0.7222222222222285,0.7027777777777828,0.73888888888888,0.9774436090225767,0.027137515753668982,1.0817159451907468,33.333333333333336,0.9999999999700001,0.9511278195488904,0.0,0.988119863495907,0
224,226.24166666666667,0.7027777777777828,0.7194444444444343,0.73888888888888,0.9511278195488904,0.029367928929954795,1.170621411669406,36.111111111111114,1.0833333333008335,0.9736842105263138,0.0,0.9896135539496891,0
225,226.9611111111111,0.7194444444444343,0.73888888888888,0.73888888888888,0.9736842105263138,0.029407924252796883,1.1722156467071319,30.555555555555557,0.9166666666391667,1.0,0.0,0.9870295157906049,0
226,227.7,0.73888888888888,0.7138888888889028,0.73888888888888,1.0,0.02953671822598743,1.1773494436143102,36.111111111111114,1.0833333333008335,0.966165413533865,0.0,0.9819590757275285,0
227,228.4138888888889,0.7138888888889028,0.74444444444444,0.73888888888888,0.966165413533865,0.027630407488183188,1.1013628743096975,33.333333333333336,0.9999999999700001,1.0075187969924873,0.0,0.9847329629039361,0
228,229.15833333333333,0.74444444444444,0.7194444444444343,0.73888888888888,1.0075187969924873,0.02568325657690908,1.0237483937678251,30.555555555555557,0.9166666666391667,0.9736842105263138,0.0,0.9899800647227912,0
229,229.87777777777777,0.7194444444444343,0.7305555555555543,0.73888888888888,0.9736842105263138,0.027092179124460273,1.0799088028140673,36.111111111111114,1.0833333333008335,0.9887218045112883,0.0,0.9891133179409892,0
230,230.60833333333332,0.7305555555555543,0.7305555555555827,0.73888888888888,0.9887218045112883,0.028003990201428776,1.1162540817965412,38.888888888888886,1.1666666666316665,0.9887218045113267,0.0,0.9878049354518974,0
231,231.3388888888889,0.7305555555555827,0.74444444444444,0.73888888888888,0.9887218045113267,0.02726582097962447,1.0868302603707791,36.111111111111114,1.0833333333008335,1.0075187969924873,0.0,0.9848995006809708,0
232,232.08333333333334,0.74444444444444,0.7277777777777601,0.73888888888888,1.0075187969924873,0.02838209185217755,1.1313254165579993,38.888888888888886,1.1666666666316665,0.9849624060150255,0.0,0.9848426013629419,0
233,232.8111111111111,0.7277777777777601,0.7472222222222342,0.73888888888888,0.9849624060150255,0.027050957879513667,1.078265701863188,38.888888888888886,1.1666666666316665,1.0112781954887502,0.0,0.9929564321147573,0
234,233.55833333333334,0.7472222222222342,0.7305555555555543,0.73888888888888,1.0112781954887502,0.026116646598146054,1.0410235526553961,30.555555555555557,0.9166666666391667,0.9887218045112883,0.0,0.996341618073104,0
235,234.2888888888889,0.7305555555555543,0.7166666666666686,0.73888888888888,0.9887218045112883,0.026224363984504957,1.0453172254976844,33.333333333333336,0.9999999999700001,0.9699248120300894,0.0,0.9911743859048442,0
236,235.00555555555556,0.7166666666666686,1.5972222222222285,0.73888888888888,0.9699248120300894,0.02665640736049435,1.0625387063828158,33.333333333333336,0.9999999999700001,2.1616541353383805,0.0,0.9863810469657687,0
237,236.6027777777778,1.5972222222222285,0.6972222222222229,0.73888888888888,2.1616541353383805,0.027968425267230625,1.1148364444283676,30.555555555555557,0.9166666666391667,0.9436090225564031,0.0,0.9928760467678882,0
238,237.3,0.6972222222222229,0.7583333333333258,0.73888888888888,0.9436090225564031,0.02581851711809027,1.0291399515463238,30.555555555555557,0.9166666666391667,1.0263157894736863,0.0,0.9960604786250009,0
239,238.05833333333334,0.7583333333333258,0.7277777777777601,0.73888888888888,1.0263157894736863,0.024115125484511887,0.9612418466618656,30.555555555555557,0.9166666666391667,0.9849624060150255,0.0,0.9982985525982154,0
240,238.7861111111111,0.7277777777777601,0.7305555555555827,0.73888888888888,0.9849624060150255,0.025005394670637622,0.9967284543117938,33.333333333333336,0.9999999999700001,0.9887218045113267,0.0,0.9933538743416429,0
241,239.51666666666668,0.7305555555555827,2.805555555555543,0.73888888888888,0.9887218045113267,0.025378051276372885,1.0115827466561473,30.555555555555557,0.9166666666391667,3.796992481203036,0.0,0.9933096015551988,0
242,242.32222222222222,2.805555555555543,1.3166666666666629,0.73888888888888,3.796992481203036,0.026734933847846365,1.0656688143211968,30.555555555555557,0.9166666666391667,1.7819548872180613,0.0,0.9916712277829909,0
243,243.63888888888889,1.3166666666666629,0.6805555555555713,0.73888888888888,1.7819548872180613,0.028033276993514343,1.1174214690500395,30.555555555555557,0.9166666666391667,0.9210526315789798,0.0,0.9891835926729015,0
244,244.31944444444446,0.6805555555555713,0.7472222222222058,0.73888888888888,0.9210526315789798,0.0254525789650583,1.0145534603331472,30.555555555555557,0.9166666666391667,1.0112781954887118,0.0,0.9930996085885764,0
245,245.06666666666666,0.7472222222222058,0.7277777777777885,0.73888888888888,1.0112781954887118,0.02731603986611869,1.0888320121436244,33.333333333333336,0.9999999999700001,0.9849624060150639,0.0,0.9949644691914121,0
246,245.79444444444445,0.7277777777777885,0.7249999999999943,0.73888888888888,0.9849624060150639,0.02497404502828704,0.9954788407394067,27.77777777777778,0.8333333333083334,0.9812030075188011,0.0,0.9886329290547436,0
247,246.51944444444445,0.7249999999999943,0.6972222222222229,0.73888888888888,0.9812030075188011,0.026339299902261012,1.0498986328763258,33.333333333333336,0.9999999999700001,0.9436090225564031,0.0,0.988247060128534,0
248,247.21666666666667,0.6972222222222229,0.7305555555555543,0.73888888888888,0.9436090225564031,0.026208693316190156,1.0446925842467392,30.555555555555557,0.9166666666391667,0.9887218045112883,0.0,0.9825152185812814,0
249,247.94722222222222,0.7305555555555543,0.74444444444444,0.73888888888888,0.9887218045112883,0.025614480590297466,1.0210069460229647,30.555555555555557,0.9166666666391667,1.0075187969924873,0.0,0.99081868815207,0
250,248.69166666666666,0.74444444444444,0.7305555555555543,0.73888888888888,1.0075187969924873,0.026145014098285933,1.0421542964384691,36.111111111111114,1.0833333333008335,0.9887218045112883,0.0,0.9964125150082677,0
251,249.42222222222222,0.7305555555555543,2.0083333333333258,0.73888888888888,0.9887218045112883,0.02611716407052495,1.0410441793821947,36.111111111111114,1.0833333333008335,2.718045112781977,0.0,0.9901860915791078,0
252,251.43055555555554,2.0083333333333258,0.7027777777777828,0.73888888888888,2.718045112781977,0.027023086290292472,1.0771547253555356,30.555555555555557,0.9166666666391667,0.9511278195488904,0.0,0.9934498592219347,0
253,252.13333333333333,0.7027777777777828,0.7388888888889085,0.73888888888888,0.9511278195488904,0.025612456000866982,1.0209262448014786,30.555555555555557,0.9166666666391667,1.0000000000000384,0.0,0.9883930928661002,0
254,252.87222222222223,0.7388888888889085,1.9388888888888687,0.73888888888888,1.0000000000000384,0.028005695412548888,1.1163220524271356,36.111111111111114,1.0833333333008335,2.6240601503759438,0.0,0.991737164037406,0
255,254.8111111111111,1.9388888888888687,0.6972222222222229,0.73888888888888,2.6240601503759438,0.026864371574959012,1.0708282716052728,33.333333333333336,0.9999999999700001,0.9436090225564031,0.0,0.9940127012409492,0
256,255.50833333333333,0.6972222222222229,1.7444444444444684,0.73888888888888,0.9436090225564031,0.028377813053714077,1.131154861354413,33.333333333333336,0.9999999999700001,2.3609022556391586,0.0,0.9906307540214686,0
257,257.2527777777778,1.7444444444444684,0.6777777777777487,0.73888888888888,2.3609022556391586,0.02619576644375775,1.0441773121725189,30.555555555555557,0.9166666666391667,0.9172932330826784,0.0,0.9936388459377785,0
258,257.93055555555554,0.6777777777777487,0.7444444444444684,0.73888888888888,0.9172932330826784,0.025796740785433876,1.02827193523724,30.555555555555557,0.9166666666391667,1.0075187969925257,0.0,0.9930782667840274,0
259,258.675,0.7444444444444684,0.7277777777777601,0.73888888888888,1.0075187969925257,0.027358782245032832,1.0905357463109848,33.333333333333336,0.9999999999700001,0.9849624060150255,0.0,0.9877196173065388,0
260,259.40277777777777,0.7277777777777601,0.7277777777777601,0.73888888888888,0.9849624060150255,0.027071270503449738,1.0790753739569698,33.333333333333336,0.9999999999700001,0.9849624060150255,0.0,0.9943701699348175,0
261,260.13055555555553,0.7277777777777601,1.7111111111111086,0.73888888888888,0.9849624060150255,0.026830008021950114,1.069458521936197,33.333333333333336,0.9999999999700001,2.3157894736842346,0.0,0.9897992594931657,0
262,261.84166666666664,1.7111111111111086,0.7000000000000455,0.73888888888888,2.3157894736842346,0.028629981018348755,1.1412064117869447,33.333333333333336,0.9999999999700001,0.9473684210527045,0.0,0.9893688350801576,0
263,262.5416666666667,0.7000000000000455,0.7638888888888573,0.73888888888888,0.9473684210527045,0.02729982187978759,1.0881855545027526,30.555555555555557,0.9166666666391667,1.0338345864661351,0.0,0.9910497428952068,0
264,263.30555555555554,0.7638888888888573,1.9250000000000114,0.73888888888888,1.0338345864661351,0.02580643678730579,1.028658423076608,33.333333333333336,0.9999999999700001,2.6052631578947834,0.0,0.9969176919872098,0
265,265.23055555555555,1.9250000000000114,0.6750000000000114,0.73888888888888,2.6052631578947834,0.027351653882985976,1.090251605973337,30.555555555555557,0.9166666666391667,0.9135338345864925,0.0,0.9907411186138234,0
266,265.90555555555557,0.6750000000000114,0.7305555555555543,0.73888888888888,0.9135338345864925,0.028003049809203914,1.1162165972576614,27.77777777777778,0.8333333333083334,0.9887218045112883,0.0,0.9836362842771973,0
267,266.6361111111111,0.7305555555555543,0.73888888888888,0.73888888888888,0.9887218045112883,0.028231152748616338,1.1253089028668786,36.111111111111114,1.0833333333008335,1.0,0.0,0.9837473042319349,0
268,267.375,0.73888888888888,0.7472222222222058,0.73888888888888,1.0,0.02790875805726009,1.1124580774099553,33.333333333333336,0.9999999999700001,1.0112781954887118,0.0,0.9949588173623803,0
269,268.1222222222222,0.7472222222222058,0.7333333333333485,0.73888888888888,1.0112781954887118,0.026204657782113963,1.0445317256922124,36.111111111111114,1.0833333333008335,0.9924812030075512,0.0,0.9925643249120115,0
270,268.85555555555555,0.7333333333333485,1.9805555555555543,0.73888888888888,0.9924812030075512,0.02629713924650253,1.0482180865062152,36.111111111111114,1.0833333333008335,2.680451127819579,0.0,0.9918020934191585,0
271,270.8361111111111,1.9805555555555543,0.6916666666666629,0.73888888888888,2.680451127819579,0.029104315521343342,1.1601136396961171,33.333333333333336,0.9999999999700001,0.9360902255639159,0.0,0.9891175672843702,0
272,271.52777777777777,0.6916666666666629,1.8277777777777828,0.73888888888888,0.9360902255639159,0.030838954595497275,1.2292572843353482,33.333333333333336,0.9999999999700001,2.4736842105263523,0.0,0.9819834463262209,0
273,273.35555555555555,1.8277777777777828,0.6833333333333371,0.73888888888888,2.4736842105263523,0.02877694130547122,1.1470643277190133,36.111111111111114,1.0833333333008335,0.9248120300752042,0.0,0.9815640184785688,0
274,274.0388888888889,0.6833333333333371,0.7472222222222058,0.73888888888888,0.9248120300752042,0.02530676501001092,1.0087412378129355,27.77777777777778,0.8333333333083334,1.0112781954887118,0.0,0.987864151882022,0
275,274.7861111111111,0.7472222222222058,0.716666666666697,0.73888888888888,1.0112781954887118,0.02615816481244774,1.0426784909641802,30.555555555555557,0.9166666666391667,0.9699248120301278,0.0,0.9948278674259443,0
276,275.5027777777778,0.716666666666697,0.7472222222222058,0.73888888888888,0.9699248120301278,0.0269554982144772,1.0744606283726807,33.333333333333336,0.9999999999700001,1.0112781954887118,0.0,0.9919465591911049,0
277,276.25,0.7472222222222058,0.041666666666685614,0.73888888888888,1.0112781954887118,0.02772994412881179,1.1053304582358026,30.555555555555557,0.9166666666391667,0.05639097744363534,0.0,0.9751199615817856,0
278,276.2916666666667,0.041666666666685614,1.6916666666666629,0.73888888888888,0.05639097744363534,0.028320081305176492,1.1288536428676617,30.555555555555557,0.9166666666391667,2.2894736842105488,1.0,0.5802732896170644,1
279,277.98333333333335,1.6916666666666629,0.6888888888888687,0.73888888888888,2.2894736842105488,0.030411498315032082,1.2122186475401355,33.333333333333336,0.9999999999700001,0.932330827067653,0.0,0.9867053337393599,0
280,278.6722222222222,0.6888888888888687,0.7277777777777601,0.73888888888888,0.932330827067653,0.02772087297214176,1.1049688770615946,36.111111111111114,1.0833333333008335,0.9849624060150255,0.0,0.990290316919916,0
281,279.4,0.7277777777777601,1.88611111111112,0.73888888888888,0.9849624060150255,0.027224908627242025,1.0851994720433187,36.111111111111114,1.0833333333008335,2.5526315789474108,0.0,0.9936363982841575,0
282,281.2861111111111,1.88611111111112,0.6833333333333371,0.73888888888888,2.5526315789474108,0.027729825229254563,1.105325718835627,30.555555555555557,0.9166666666391667,0.9248120300752042,0.0,0.992063510034668,0
283,281.96944444444443,0.6833333333333371,0.7222222222222285,0.73888888888888,0.9248120300752042,0.02592916831712194,1.0335505677366008,27.77777777777778,0.8333333333083334,0.9774436090225767,0.0,0.9915504390478078,0
284,282.69166666666666,0.7222222222222285,0.7111111111111086,0.73888888888888,0.9774436090225767,0.02583595163252216,1.0298349006503176,27.77777777777778,0.8333333333083334,0.962406015037602,0.0,0.9900250502144916,0
285,283.40277777777777,0.7111111111111086,2.661111111111097,0.73888888888888,0.962406015037602,0.027959148181180164,1.1144666547985143,27.77777777777778,0.8333333333083334,3.6015037593985206,0.0,0.9887558646041528,0
286,286.06388888888887,2.661111111111097,1.1277777777777942,0.73888888888888,3.6015037593985206,0.029705146328530465,1.1840630781928323,30.555555555555557,0.9166666666391667,1.5263157894737247,0.0,0.9770829043466466,0
287,287.19166666666666,1.1277777777777942,0.6888888888888687,0.73888888888888,1.5263157894737247,0.02529546567223136,1.008290840143628,30.555555555555557,0.9166666666391667,0.932330827067653,0.0,0.9972221631166801,0
288,287.88055555555553,0.6888888888888687,0.7388888888889369,0.73888888888888,0.932330827067653,0.025612810688271537,1.0209403828318182,30.555555555555557,0.9166666666391667,1.0000000000000768,0.0,0.9962883396435582,0
289,288.61944444444447,0.7388888888889369,1.9249999999999545,0.73888888888888,1.0000000000000768,0.02679143523662247,1.067920990007406,33.333333333333336,0.9999999999700001,2.6052631578947065,0.0,0.9970928620729271,0
290,290.5444444444444,1.9249999999999545,0.6583333333333599,0.73888888888888,2.6052631578947065,0.027719984585081646,1.104933465476498,30.555555555555557,0.9166666666391667,0.8909774436090692,0.0,0.9952052737607924,0
291,291.2027777777778,0.6583333333333599,0.7305555555555543,0.73888888888888,0.8909774436090692,0.025950779940267846,1.0344120186361814,33.333333333333336,0.9999999999700001,0.9887218045112883,0.0,0.9915883236526908,0
292,291.93333333333334,0.7305555555555543,1.9972222222222058,0.73888888888888,0.9887218045112883,0.026563187264407775,1.0588229033128378,30.555555555555557,0.9166666666391667,2.7030075187970026,0.0,0.9933708771159535,0
293,293.93055555555554,1.9972222222222058,1.4472222222222513,0.73888888888888,2.7030075187970026,0.027261091142941698,1.0866417265416568,33.333333333333336,0.9999999999700001,1.9586466165414163,0.0,0.995257550920799,0
294,295.3777777777778,1.4472222222222513,0.6833333333333371,0.73888888888888,1.9586466165414163,0.02573973343212365,1.0259995915331022,27.77777777777778,0.8333333333083334,0.9248120300752042,0.0,0.9970990818008134,0
295,296.06111111111113,0.6833333333333371,0.7194444444444343,0.73888888888888,0.9248120300752042,0.02626153489395545,1.0467988779014938,27.77777777777778,0.8333333333083334,0.9736842105263138,0.0,0.9871834689710339,0
296,296.78055555555557,0.7194444444444343,0.7277777777777601,0.73888888888888,0.9736842105263138,0.027513094764512913,1.0966867261714606,33.333333333333336,0.9999999999700001,0.9849624060150255,0.0,0.989858710598979,0
297,297.5083333333333,0.7277777777777601,0.73888888888888,0.73888888888888,0.9849624060150255,0.02822388205669202,1.1250190891839131,33.333333333333336,0.9999999999700001,1.0,0.0,0.9926191561198703,0
298,298.2472222222222,0.73888888888888,0.7333333333333485,0.73888888888888,1.0,0.027507773564068593,1.0964746202653628,30.555555555555557,0.9166666666391667,0.9924812030075512,0.0,0.9925547318673915,0
299,298.98055555555555,0.7333333333333485,0.7305555555555543,0.73888888888888,0.9924812030075512,0.02758353181104008,1.0994943846562015,36.111111111111114,1.0833333333008335,0.9887218045112883,0.0,0.9974881188988358,0
300,299.7111111111111,0.7305555555555543,0.7361111111110858,0.73888888888888,0.9887218045112883,0.026097004310329207,1.0402406005191587,33.333333333333336,0.9999999999700001,0.9962406015037372,0.0,0.9984075263025495,0
301,300.4472222222222,0.7361111111110858,1.8916666666667084,0.73888888888888,0.9962406015037372,0.025672887389005236,1.0233350723718624,30.555555555555557,0.9166666666391667,2.5601503759399367,0.0,0.9957482152827843,0
302,302.3388888888889,1.8916666666667084,1.419444444444423,0.73888888888888,2.5601503759399367,0.028533497668683253,1.1373605336776165,30.555555555555557,0.9166666666391667,1.9210526315789413,0.0,0.9934966582075093,0
303,303.7583333333333,1.419444444444423,0.6777777777778056,0.73888888888888,1.9210526315789413,0.027614317604335192,1.1007215229025669,36.111111111111114,1.0833333333008335,0.9172932330827553,0.0,0.9906817511318122,0
304,304.43611111111113,0.6777777777778056,0.73888888888888,0.73888888888888,0.9172932330827553,0.024865350025948467,0.9911461995993908,30.555555555555557,0.9166666666391667,1.0,0.0,0.9962633314117539,0
305,305.175,0.73888888888888,0.7222222222222285,0.73888888888888,1.0,0.025510451630275537,1.0168602958343926,33.333333333333336,0.9999999999700001,0.9774436090225767,0.0,0.9988044236097445,0
306,305.89722222222224,0.7222222222222285,0.7361111111110858,0.73888888888888,0.9774436090225767,0.026953358456014653,1.0743753364517545,33.333333333333336,0.9999999999700001,0.9962406015037372,0.0,0.9927977631560454,0
307,306.6333333333333,0.7361111111110858,1.8944444444444457,0.73888888888888,0.9962406015037372,0.02597309301947397,1.0353014299508596,33.333333333333336,0.9999999999700001,2.5639097744361226,0.0,0.995504251801038,0
308,308.52777777777777,1.8944444444444457,0.6722222222222172,0.73888888888888,2.5639097744361226,0.028887455674150735,1.1514694897780038,33.333333333333336,0.9999999999700001,0.9097744360902296,0.0,0.989082225037277,0
309,309.2,0.6722222222222172,0.73888888888888,0.73888888888888,0.9097744360902296,0.026652313503750153,1.0623755230554355,27.77777777777778,0.8333333333083334,1.0,0.0,0.9852260660576919,0
310,309.93888888888887,0.73888888888888,0.7305555555555543,0.73888888888888,1.0,0.026838434646295973,1.0697944117059823,33.333333333333336,0.9999999999700001,0.9887218045112883,0.0,0.9936757054155617,0
311,310.6694444444444,0.7305555555555543,0.7444444444444684,0.73888888888888,0.9887218045112883,0.0256549809880273,1.0226213136168374,33.333333333333336,0.9999999999700001,1.0075187969925257,0.0,0.9984440428828191,0
312,311.4138888888889,0.7444444444444684,0.7416666666666742,0.73888888888888,1.0075187969925257,0.02466844129142846,0.9832973117420405,30.555555555555557,0.9166666666391667,1.003759398496263,0.0,0.9981172429276368,0
313,312.15555555555557,0.7416666666666742,2.7805555555555657,0.73888888888888,1.003759398496263,0.02663859536663249,1.0618287107461146,36.111111111111114,1.0833333333008335,3.7631578947369007,0.0,0.9970303390913624,0
314,314.93611111111113,2.7805555555555657,1.3944444444444457,0.73888888888888,3.7631578947369007,0.027662408562163177,1.102638454296517,33.333333333333336,0.9999999999700001,1.8872180451128062,0.0,0.9974815431710535,0
315,316.3305555555556,1.3944444444444457,0.6777777777777487,0.73888888888888,1.8872180451128062,0.025138128183625343,1.0020192833900077,30.555555555555557,0.9166666666391667,0.9172932330826784,0.0,0.9966503063810073,0
316,317.0083333333333,0.6777777777777487,1.6750000000000114,0.73888888888888,0.9172932330826784,0.026211948315469122,1.0448223302652622,30.555555555555557,0.9166666666391667,2.266917293233125,0.0,0.9941095891129511,0
317,318.68333333333334,1.6750000000000114,0.658333333333303,0.73888888888888,2.266917293233125,0.029621530032508277,1.1807300877486808,33.333333333333336,0.9999999999700001,0.8909774436089922,0.0,0.994121018036433,0
318,319.34166666666664,0.658333333333303,0.7305555555555543,0.73888888888888,0.8909774436089922,0.025328117329347012,1.009592352723464,25.0,0.7499999999775,0.9887218045112883,0.0,0.9796853975986137,0
319,320.0722222222222,0.7305555555555543,0.7250000000000227,0.73888888888888,0.9887218045112883,0.025972914952530988,1.035294332106927,30.555555555555557,0.9166666666391667,0.9812030075188395,0.0,0.9889756180118505,0
320,320.7972222222222,0.7250000000000227,0.7194444444444343,0.73888888888888,0.9812030075188395,0.02726757934724049,1.0869003498478345,33.333333333333336,0.9999999999700001,0.9736842105263138,0.0,0.9881867872465965,0
321,321.51666666666665,0.7194444444444343,0.705555555555577,0.73888888888888,0.9736842105263138,0.029582247676117078,1.1791642719364033,30.555555555555557,0.9166666666391667,0.9548872180451533,0.0,0.9841812339404659,0
322,322.22222222222223,0.705555555555577,0.7166666666666401,0.73888888888888,0.9548872180451533,0.026784796446414103,1.0676563642660393,38.888888888888886,1.1666666666316665,0.9699248120300509,0.0,0.9903433980021452,0
323,322.93888888888887,0.7166666666666401,0.7222222222222285,0.73888888888888,0.9699248120300509,0.02657909756869083,1.0594570965821126,30.555555555555557,0.9166666666391667,0.9774436090225767,0.0,0.9850796354889313,0
324,323.6611111111111,0.7222222222222285,0.75,0.73888888888888,0.9774436090225767,0.029155956744555848,1.1621720865740546,30.555555555555557,0.9166666666391667,1.0150375939849745,0.0,0.9867515577781438,0
325,324.4111111111111,0.75,1.8583333333333485,0.73888888888888,1.0150375939849745,0.026892892593608154,1.0719651347185328,33.333333333333336,0.9999999999700001,2.515037593985013,0.0,0.9939914801143019,0
326,326.26944444444445,1.8583333333333485,0.6722222222222172,0.73888888888888,2.515037593985013,0.026303053989028023,1.0484538513182782,27.77777777777778,0.8333333333083334,0.9097744360902296,0.0,0.9887678408398755,0
327,326.94166666666666,0.6722222222222172,1.7555555555555316,0.73888888888888,0.9097744360902296,0.027091976012923746,1.0799007066791924,27.77777777777778,0.8333333333083334,2.3759398496240562,0.0,0.9904560552246481,0
328,328.6972222222222,1.7555555555555316,0.6944444444444571,0.73888888888888,2.3759398496240562,0.0313424876792202,1.2493283833459685,38.888888888888886,1.1666666666316665,0.9398496240601787,0.0,0.9789790324050317,0
329,329.39166666666665,0.6944444444444571,0.7472222222222626,0.73888888888888,0.9398496240601787,0.02645263404541315,1.0544161926594324,30.555555555555557,0.9166666666391667,1.0112781954887886,0.0,0.9925214511301614,0
330,330.1388888888889,0.7472222222222626,1.8111111111110745,0.73888888888888,1.0112781954887886,0.02491933256469163,0.9932979725711839,27.77777777777778,0.8333333333083334,2.451127819548852,0.0,0.9882026679836364,0
331,331.95,1.8111111111110745,0.6750000000000114,0.73888888888888,2.451127819548852,0.02883774588102109,1.1494880307399489,30.555555555555557,0.9166666666391667,0.9135338345864925,0.0,0.9809389431381856,0
332,332.625,0.6750000000000114,0.7472222222222058,0.73888888888888,0.9135338345864925,0.029087176577309665,1.1594304721868562,30.555555555555557,0.9166666666391667,1.0112781954887118,0.0,0.9826882653830769,0
333,333.3722222222222,0.7472222222222058,0.7027777777777828,0.73888888888888,1.0112781954887118,0.03026982709893493,1.2065715568182762,38.888888888888886,1.1666666666316665,0.9511278195488904,0.0,0.9805023193184452,0
334,334.075,0.7027777777777828,0.73888888888888,0.73888888888888,0.9511278195488904,0.026432094033631625,1.0535974567640705,30.555555555555557,0.9166666666391667,1.0,0.0,0.985282803850454,0
335,334.81388888888887,0.73888888888888,0.716666666666697,0.73888888888888,1.0,0.024152014025642352,0.9627122437128652,27.77777777777778,0.8333333333083334,0.9699248120301278,0.0,0.9924212125388048,0
336,335.53055555555557,0.716666666666697,1.8472222222222285,0.73888888888888,0.9699248120301278,0.0259149417055315,1.0329834873618495,30.555555555555557,0.9166666666391667,2.5000000000000386,0.0,0.9900542760667711,0
337,337.3777777777778,1.8472222222222285,0.6861111111110745,0.73888888888888,2.5000000000000386,0.026859687971514865,1.07064158065786,33.333333333333336,0.9999999999700001,0.9285714285713901,0.0,0.9952928648138988,0
338,338.06388888888887,0.6861111111110745,0.7444444444444684,0.73888888888888,0.9285714285713901,0.02676808514562894,1.0669902428462203,30.555555555555557,0.9166666666391667,1.0075187969925257,0.0,0.9937018199299366,0
339,338.80833333333334,0.7444444444444684,0.7222222222222285,0.73888888888888,1.0075187969925257,0.027696850554637536,1.1040113306047923,33.333333333333336,0.9999999999700001,0.9774436090225767,0.0,0.9950592626440179,0
340,339.53055555555557,0.7222222222222285,0.73888888888888,0.73888888888888,0.9774436090225767,0.026467841282187463,1.0550223612804066,36.111111111111114,1.0833333333008335,1.0,0.0,0.9972967827924777,0
341,340.26944444444445,0.73888888888888,0.29444444444442297,0.73888888888888,1.0,0.02690749944077651,1.0725473714875282,30.555555555555557,0.9166666666391667,0.3984962406014795,0.0,0.9771527382282625,0
342,340.56388888888887,0.29444444444442297,1.3555555555555543,0.73888888888888,0.3984962406014795,0.04231842668305352,1.6868352038544867,86.11111111111111,2.5833333332558337,1.8345864661654339,1.0,0.8606682721978793,1
343,341.9194444444444,1.3555555555555543,0.6694444444444798,0.73888888888888,1.8345864661654339,0.03481063430181095,1.3875705694019502,33.333333333333336,0.9999999999700001,0.9060150375940437,0.0,0.9766807842584495,0
344,342.5888888888889,0.6694444444444798,0.7194444444444343,0.73888888888888,0.9060150375940437,0.02744759656294303,1.0940759326978582,36.111111111111114,1.0833333333008335,0.9736842105263138,0.0,0.9802642847367864,0
345,343.30833333333334,0.7194444444444343,0.7111111111111086,0.73888888888888,0.9736842105263138,0.026240705133636803,1.0459685924739068,33.333333333333336,0.9999999999700001,0.962406015037602,0.0,0.9944616857179376,0
346,344.01944444444445,0.7111111111111086,0.7166666666666401,0.73888888888888,0.962406015037602,0.024592506231660174,0.9802704994982093,30.555555555555557,0.9166666666391667,0.9699248120300509,0.0,0.991947387296044,0
347,344.7361111111111,0.7166666666666401,1.602777777777817,0.73888888888888,0.9699248120300509,0.026650601796860896,1.062307293499996,27.77777777777778,0.8333333333083334,2.169172932330906,0.0,0.9858142120530862,0
348,346.3388888888889,1.602777777777817,0.6722222222222172,0.73888888888888,2.169172932330906,0.027593414412857883,1.0998883104695782,30.555555555555557,0.9166666666391667,0.9097744360902296,0.0,0.9832670307683655,0
349,347.0111111111111,0.6722222222222172,0.73888888888888,0.73888888888888,0.9097744360902296,0.026051698270787585,1.0384346774630298,27.77777777777778,0.8333333333083334,1.0,0.0,0.986116918403767,0
350,347.75,0.73888888888888,0.705555555555577,0.73888888888888,1.0,0.02609655603644495,1.0402227320815016,33.333333333333336,0.9999999999700001,0.9548872180451533,0.0,0.9936693311461375,0
351,348.4555555555556,0.705555555555577,0.7249999999999659,0.73888888888888,0.9548872180451533,0.026518832934213293,1.0570549159021574,36.111111111111114,1.0833333333008335,0.9812030075187625,0.0,0.9920081020644447,0
352,349.18055555555554,0.7249999999999659,1.966666666666697,0.73888888888888,0.9812030075187625,0.026164346476239816,1.042924895401211,30.555555555555557,0.9166666666391667,2.6616541353384187,0.0,0.9904861171708159,0
353,351.14722222222224,1.966666666666697,0.6916666666666629,0.73888888888888,2.6616541353384187,0.02786730901612029,1.1108058963805356,33.333333333333336,0.9999999999700001,0.9360902255639159,0.0,0.9938532778684084,0
354,351.8388888888889,0.6916666666666629,0.7333333333332916,0.73888888888888,0.9360902255639159,0.02601374765427608,1.0369219455172265,33.333333333333336,0.9999999999700001,0.9924812030074742,0.0,0.9939408623312744,0
355,352.5722222222222,0.7333333333332916,1.9416666666667197,0.73888888888888,0.9924812030074742,0.024695307795261908,0.9843682250066137,38.888888888888886,1.1666666666316665,2.6278195488722838,0.0,0.9918376459105407,0
356,354.5138888888889,1.9416666666667197,2.5638888888888687,0.73888888888888,2.6278195488722838,0.02616079066148427,1.0427831587163157,27.77777777777778,0.8333333333083334,3.469924812030089,0.0,0.9920374383617174,0
357,357.0777777777778,2.5638888888888687,1.3888888888888573,0.73888888888888,3.469924812030089,0.026982198105899823,1.075524900377122,33.333333333333336,0.9999999999700001,1.8796992481202806,0.0,0.99153005546274,0
358,358.46666666666664,1.3888888888888573,0.6861111111111313,0.73888888888888,1.8796992481202806,0.02707840279676331,1.0793596709970195,33.333333333333336,0.9999999999700001,0.928571428571467,0.0,0.9890246686079218,0
359,359.15277777777777,0.6861111111111313,0.7583333333333258,0.73888888888888,0.928571428571467,0.025297018648761906,1.0083527426217636,25.0,0.7499999999775,1.0263157894736863,0.0,0.9867583673013189,0
360,359.9111111111111,0.7583333333333258,0.7305555555555543,0.73888888888888,1.0263157894736863,0.026463536517264734,1.0548507710398156,33.333333333333336,0.9999999999700001,0.9887218045112883,0.0,0.9941347887787949,0
361,360.64166666666665,0.7305555555555543,0.7416666666666742,0.73888888888888,0.9887218045112883,0.02438194268014155,0.9718773233054735,30.555555555555557,0.9166666666391667,1.003759398496263,0.0,0.9946779287755022,0
362,361.3833333333333,0.7416666666666742,0.7083333333333144,0.73888888888888,1.003759398496263,0.0261141653819559,1.040924650046155,30.555555555555557,0.9166666666391667,0.9586466165413392,0.0,0.9961847359168845,0
363,362.09166666666664,0.7083333333333144,0.7277777777778169,0.73888888888888,0.9586466165413392,0.027097696874904032,1.0801287433086497,36.111111111111114,1.0833333333008335,0.9849624060151024,0.0,0.9909594720607517,0
364,362.81944444444446,0.7277777777778169,0.73888888888888,0.73888888888888,0.9849624060151024,0.026025962004391376,1.0374088160694093,33.333333333333336,0.9999999999700001,1.0,0.0,0.9913590974806135,0
365,363.55833333333334,0.73888888888888,2.7583333333333258,0.73888888888888,1.0,0.027711493173229306,1.1045949932419266,33.333333333333336,0.9999999999700001,3.7330827067669516,0.0,0.9900632775845695,0
366,366.31666666666666,2.7583333333333258,1.2861111111110972,0.73888888888888,3.7330827067669516,0.027302007036292333,1.0882726560140101,30.555555555555557,0.9166666666391667,1.7406015037594005,0.0,0.993666867525878,0
367,367.60277777777776,1.2861111111110972,0.6861111111111313,0.73888888888888,1.7406015037594005,0.028451641321851646,1.1340976957529312,33.333333333333336,0.9999999999700001,0.928571428571467,0.0,0.9906242569165931,0
368,368.2888888888889,0.6861111111111313,0.7416666666666742,0.73888888888888,0.928571428571467,0.0282926265273844,1.1277592806873151,30.555555555555557,0.9166666666391667,1.003759398496263,0.0,0.9895176712932925,0
369,369.03055555555557,0.7416666666666742,0.7166666666666401,0.73888888888888,1.003759398496263,0.02690684044701912,1.072521103642615,33.333333333333336,0.9999999999700001,0.9699248120300509,0.0,0.9974559398927454,0
370,369.7472222222222,0.7166666666666401,0.7194444444444343,0.73888888888888,0.9699248120300509,0.026748844653121127,1.0662233064866824,33.333333333333336,0.9999999999700001,0.9736842105263138,0.0,0.9900000765656305,0
371,370.46666666666664,0.7194444444444343,1.6694444444444798,0.73888888888888,0.9736842105263138,0.026789990501676002,1.067863402096915,36.111111111111114,1.0833333333008335,2.2593984962406766,0.0,0.9891520155935084,0
372,372.1361111111111,1.6694444444444798,0.6888888888888687,0.73888888888888,2.2593984962406766,0.02527674698127672,1.0075447030740992,30.555555555555557,0.9166666666391667,0.932330827067653,0.0,0.9961545772347651,0
373,372.825,0.6888888888888687,0.7555555555555884,0.73888888888888,0.932330827067653,0.02667979965114786,1.0634711356451008,33.333333333333336,0.9999999999700001,1.0225563909775004,0.0,0.9953013352014262,0
374,373.5805555555556,0.7555555555555884,1.8916666666666515,0.73888888888888,1.0225563909775004,0.02789538489190162,1.1119250158601348,33.333333333333336,0.9999999999700001,2.56015037593986,0.0,0.9919843661343903,0
375,375.47222222222223,1.8916666666666515,0.6777777777777487,0.73888888888888,2.56015037593986,0.026326742113766517,1.0493980726859924,30.555555555555557,0.9166666666391667,0.9172932330826784,0.0,0.9961816798847962,0
376,376.15,0.6777777777777487,0.7444444444444684,0.73888888888888,0.9172932330826784,0.02441120333047923,0.9730436685348683,30.555555555555557,0.9166666666391667,1.0075187969925257,0.0,0.9965688456802548,0
377,376.89444444444445,0.7444444444444684,0.7472222222222058,0.73888888888888,1.0075187969925257,0.02530277225610299,1.0085820844988798,33.333333333333336,0.9999999999700001,1.0112781954887118,0.0,0.9954208856402557,0
378,377.64166666666665,0.7472222222222058,0.716666666666697,0.73888888888888,1.0112781954887118,0.02650983686190464,1.056696327630899,38.888888888888886,1.1666666666316665,0.9699248120301278,0.0,0.9946757496813421,0
379,378.35833333333335,0.716666666666697,0.7166666666666401,0.73888888888888,0.9699248120301278,0.027693475031063224,1.1038767804231602,36.111111111111114,1.0833333333008335,0.9699248120300509,0.0,0.9891938956452602,0
380,379.075,0.7166666666666401,0.7194444444444343,0.73888888888888,0.9699248120300509,0.025698669977897763,1.0243627802050517,33.333333333333336,0.9999999999700001,0.9736842105263138,0.0,0.9886446042127899,0
381,379.7944444444444,0.7194444444444343,2.7000000000000455,0.73888888888888,0.9736842105263138,0.026316531498858577,1.0489910720947675,33.333333333333336,0.9999999999700001,3.65413533834597,0.0,0.9934891941087123,0
382,382.49444444444447,2.7000000000000455,1.3583333333332916,0.73888888888888,3.65413533834597,0.029206809116284645,1.164199089408401,30.555555555555557,0.9166666666391667,1.8383458646616198,0.0,0.9916523949822991,0
383,383.85277777777776,1.3583333333332916,0.6472222222222399,0.73888888888888,1.8383458646616198,0.030688388598049846,1.2232556428542036,91.66666666666667,2.7499999999175,0.8759398496240945,0.0,0.9215462527785101,0
384,384.5,0.6472222222222399,0.73888888888888,0.73888888888888,0.8759398496240945,0.028985314294725322,1.1553701869240052,27.77777777777778,0.8333333333083334,1.0,0.0,0.972619606359612,0
385,385.2388888888889,0.73888888888888,0.7361111111111427,0.73888888888888,1.0,0.02946563646159742,1.1745160863294757,38.888888888888886,1.1666666666316665,0.9962406015038141,0.0,0.9705606980988895,0
386,385.975,0.7361111111111427,0.7305555555555543,0.73888888888888,0.9962406015038141,0.028927277597105627,1.1530568130031462,33.333333333333336,0.9999999999700001,0.9887218045112883,0.0,0.9826347482814348,0
387,386.7055555555556,0.7305555555555543,0.7277777777777601,0.73888888888888,0.9887218045112883,0.026783160802376332,1.0675911666166902,36.111111111111114,1.0833333333008335,0.9849624060150255,0.0,0.9749107208346978,0
388,387.43333333333334,0.7277777777777601,0.705555555555577,0.73888888888888,0.9849624060150255,0.025922750927834675,1.0332947671547958,30.555555555555557,0.9166666666391667,0.9548872180451533,0.0,0.9824847966925074,0
389,388.1388888888889,0.705555555555577,0.4277777777777487,0.73888888888888,0.9548872180451533,0.02699080059596369,1.0758678002488307,33.333333333333336,0.9999999999700001,0.5789473684210202,0.0,0.9869840230438414,0
390,388.56666666666666,0.4277777777777487,1.1861111111111313,0.73888888888888,0.5789473684210202,0.020253130760079677,0.8073006638512741,27.77777777777778,0.8333333333083334,1.6052631578947834,1.0,0.5819877365594953,1
391,389.7527777777778,1.1861111111111313,0.6888888888888687,0.73888888888888,1.6052631578947834,0.02430673533892697,0.9688795183138277,30.555555555555557,0.9166666666391667,0.932330827067653,0.0,0.9807353792980172,0
392,390.44166666666666,0.6888888888888687,0.7472222222222058,0.73888888888888,0.932330827067653,0.02615091389413005,1.0423894654677892,33.333333333333336,0.9999999999700001,1.0112781954887118,0.0,0.9976296244551767,0
393,391.18888888888887,0.7472222222222058,0.7527777777777942,0.73888888888888,1.0112781954887118,0.025923975157553406,1.0333435656085435,36.111111111111114,1.0833333333008335,1.0187969924812375,0.0,0.9937096321713416,0
394,391.94166666666666,0.7527777777777942,0.7333333333333485,0.73888888888888,1.0187969924812375,0.022455753583366853,0.8950983919417191,33.333333333333336,0.9999999999700001,0.9924812030075512,0.0,0.9921066005015735,0
395,392.675,0.7333333333333485,0.7249999999999659,0.73888888888888,0.9924812030075512,0.025228506029248324,1.0056217928308047,33.333333333333336,0.9999999999700001,0.9812030075187625,0.0,0.9954690386056575,0
396,393.4,0.7249999999999659,0.7333333333333485,0.73888888888888,0.9812030075187625,0.025142990375554886,1.0022130929703137,33.333333333333336,0.9999999999700001,0.9924812030075512,0.0,0.9977282669132814,0
397,394.1333333333333,0.7333333333333485,0.7527777777777942,0.73888888888888,0.9924812030075512,0.02458407443978367,0.9799344037478784,33.333333333333336,0.9999999999700001,1.0187969924812375,0.0,0.9981947802517438,0
398,394.8861111111111,0.7527777777777942,2.8472222222222285,0.73888888888888,1.0187969924812375,0.025173517505823993,1.0034299207696138,33.333333333333336,0.9999999999700001,3.8533834586466713,0.0,0.9971230805696256,0
399,397.73333333333335,2.8472222222222285,1.13611111111112,0.73888888888888,3.8533834586466713,0.025649610293218075,1.022407234838786,33.333333333333336,0.9999999999700001,1.5375939849624365,0.0,0.9959157513729935,0
400,398.86944444444447,1.13611111111112,0.702777777777726,0.73888888888888,1.5375939849624365,0.024487628904146876,0.9760900329260328,30.555555555555557,0.9166666666391667,0.9511278195488134,0.0,0.9936299178697177,0
401,399.5722222222222,0.702777777777726,0.7305555555556111,0.73888888888888,0.9511278195488134,0.024111974667725255,0.9611162534134117,33.333333333333336,0.9999999999700001,0.9887218045113653,0.0,0.9974150172312166,0
402,400.3027777777778,0.7305555555556111,0.7222222222221717,0.73888888888888,0.9887218045113653,0.025106906470059694,1.0007747691276596,36.111111111111114,1.0833333333008335,0.9774436090224997,0.0,0.9937448427107942,0
403,401.025,0.7222222222221717,1.9194444444444798,0.73888888888888,0.9774436090224997,0.023554365521034366,0.9388896535051945,36.111111111111114,1.0833333333008335,2.5977443609023347,0.0,0.9966704208933814,0
404,402.94444444444446,1.9194444444444798,0.6972222222221944,0.73888888888888,2.5977443609023347,0.025592999500052005,1.0201506982348651,33.333333333333336,0.9999999999700001,0.9436090225563647,0.0,0.9982764848809279,0
405,403.64166666666665,0.6972222222221944,0.7472222222222626,0.73888888888888,0.9436090225563647,0.02501828090631725,0.9972421065832349,33.333333333333336,0.9999999999700001,1.0112781954887886,0.0,0.9986245423522282,0
406,404.3888888888889,0.7472222222222626,1.8111111111110745,0.73888888888888,1.0112781954887886,0.02449003782027969,0.9761860536161779,33.333333333333336,0.9999999999700001,2.451127819548852,0.0,0.9937619116088767,0
407,406.2,1.8111111111110745,0.6694444444444798,0.73888888888888,2.451127819548852,0.02548128840317955,1.0156978339477079,33.333333333333336,0.9999999999700001,0.9060150375940437,0.0,0.9972518809578168,0
408,406.86944444444447,0.6694444444444798,0.7305555555555543,0.73888888888888,0.9060150375940437,0.025008718155136028,0.9968609301879261,30.555555555555557,0.9166666666391667,0.9887218045112883,0.0,0.9914470703678931,0
409,407.6,0.7305555555555543,0.7444444444444116,0.73888888888888,0.9887218045112883,0.025051882762914743,0.9985814946244783,36.111111111111114,1.0833333333008335,1.0075187969924488,0.0,0.9978095309316246,0
410,408.34444444444443,0.7444444444444116,0.7638888888889142,0.73888888888888,1.0075187969924488,0.02460890618884186,0.9809242105948661,27.77777777777778,0.8333333333083334,1.033834586466212,0.0,0.982536206505638,0
411,409.10833333333335,0.7638888888889142,0.7249999999999659,0.73888888888888,1.033834586466212,0.025591996286579637,1.0201107096073379,33.333333333333336,0.9999999999700001,0.9812030075187625,0.0,0.9953927149619224,0
412,409.8333333333333,0.7249999999999659,0.7361111111111427,0.73888888888888,0.9812030075187625,0.024889353419492465,0.9921029877509266,30.555555555555557,0.9166666666391667,0.9962406015038141,0.0,0.9891825655431901,0
413,410.56944444444446,0.7361111111111427,0.7194444444444343,0.73888888888888,0.9962406015038141,0.030282802627415006,1.207088768348675,44.44444444444444,1.3333333332933333,0.9736842105263138,0.0,0.9842986406785219,0
414,411.2888888888889,0.7194444444444343,0.7416666666666742,0.73888888888888,0.9736842105263138,0.025146904473672554,1.0023691110223474,36.111111111111114,1.0833333333008335,1.003759398496263,0.0,0.9971439652736447,0
415,412.03055555555557,0.7416666666666742,0.7527777777777942,0.73888888888888,1.003759398496263,0.025237619045273996,1.005985042541398,33.333333333333336,0.9999999999700001,1.0187969924812375,0.0,0.9934577940750107,0
416,412.78333333333336,0.7527777777777942,0.7361111111110858,0.73888888888888,1.0187969924812375,0.025575978916069046,1.019472248620761,33.333333333333336,0.9999999999700001,0.9962406015037372,0.0,0.9929967169835094,0
417,413.51944444444445,0.7361111111110858,1.9166666666666856,0.73888888888888,0.9962406015037372,0.025499438452380504,1.0164213046516912,30.555555555555557,0.9166666666391667,2.5939849624060716,0.0,0.9958014390494632,0
418,415.43611111111113,1.9166666666666856,0.6833333333333371,0.73888888888888,2.5939849624060716,0.02617937479195264,1.0435239321326306,33.333333333333336,0.9999999999700001,0.9248120300752042,0.0,0.9970029778576153,0
419,416.11944444444447,0.6833333333333371,0.7333333333332916,0.73888888888888,0.9248120300752042,0.0245497097415293,0.9785646084287032,30.555555555555557,0.9166666666391667,0.9924812030074742,0.0,0.9962006067273435,0
420,416.85277777777776,0.7333333333332916,1.9916666666666742,0.73888888888888,0.9924812030074742,0.025900702626527532,1.0324159100293022,36.111111111111114,1.0833333333008335,2.695488721804554,0.0,0.9929102028176304,0
421,418.84444444444443,1.9916666666666742,0.6805555555555429,0.73888888888888,2.695488721804554,0.026513592758497333,1.0568460396852255,30.555555555555557,0.9166666666391667,0.9210526315789413,0.0,0.9957220100217596,0
422,419.525,0.6805555555555429,0.7333333333333485,0.73888888888888,0.9210526315789413,0.02522395416386787,1.0054403530333267,27.77777777777778,0.8333333333083334,0.9924812030075512,0.0,0.9883044220561479,0
423,420.2583333333333,0.7333333333333485,0.7555555555555884,0.73888888888888,0.9924812030075512,0.02769884661762933,1.1040908947471193,33.333333333333336,0.9999999999700001,1.0225563909775004,0.0,0.9951110819281002,0
424,421.0138888888889,0.7555555555555884,0.7472222222222058,0.73888888888888,1.0225563909775004,0.02551643206944331,1.0170986793498826,36.111111111111114,1.0833333333008335,1.0112781954887118,0.0,0.9969689885315088,0
425,421.7611111111111,0.7472222222222058,0.7305555555555543,0.73888888888888,1.0112781954887118,0.025217112287949064,1.0051676321865268,33.333333333333336,0.9999999999700001,0.9887218045112883,0.0,0.9962336490283825,0
426,422.4916666666667,0.7305555555555543,2.59166666666664,0.73888888888888,0.9887218045112883,0.025028088257386706,0.9976330328613884,33.333333333333336,0.9999999999700001,3.5075187969924873,0.0,0.9944844829671453,0
427,425.0833333333333,2.59166666666664,1.2305555555555543,0.73888888888888,3.5075187969924873,0.026689298274876806,1.0638497558857387,30.555555555555557,0.9166666666391667,1.6654135338346048,0.0,0.992845446873738,0
428,426.31388888888887,1.2305555555555543,0.6944444444444571,0.73888888888888,1.6654135338346048,0.025951685980920153,1.0344481339029394,30.555555555555557,0.9166666666391667,0.9398496240601787,0.0,0.9956048206469343,0
429,427.0083333333333,0.6944444444444571,0.7222222222222285,0.73888888888888,0.9398496240601787,0.026362890023293784,1.050838947763722,36.111111111111114,1.0833333333008335,0.9774436090225767,0.0,0.9911524620841694,0
430,427.73055555555555,0.7222222222222285,1.8611111111110858,0.73888888888888,0.9774436090225767,0.02548965002224387,1.0160311325720766,33.333333333333336,0.9999999999700001,2.518796992481199,0.0,0.9951771904041034,0
431,429.59166666666664,1.8611111111110858,0.7111111111111654,0.73888888888888,2.518796992481199,0.02703572501305456,1.07765851162922,33.333333333333336,0.9999999999700001,0.962406015037679,0.0,0.9931827764161727,0
432,430.3027777777778,0.7111111111111654,0.7416666666666174,0.73888888888888,0.962406015037679,0.02428465830500584,0.9679995158909172,30.555555555555557,0.9166666666391667,1.003759398496186,0.0,0.995135667225715,0
433,431.0444444444444,0.7416666666666174,0.7222222222222285,0.73888888888888,1.003759398496186,0.02404324594434104,0.9583766896061661,30.555555555555557,0.9166666666391667,0.9774436090225767,0.0,0.9968584636883319,0
434,431.76666666666665,0.7222222222222285,0.7277777777778169,0.73888888888888,0.9774436090225767,0.025501861734304253,1.0165178979699745,38.888888888888886,1.1666666666316665,0.9849624060151024,0.0,0.9968349140881734,0
435,432.49444444444447,0.7277777777778169,1.85277777777776,0.73888888888888,0.9849624060151024,0.024566618490704954,0.9792386002473561,33.333333333333336,0.9999999999700001,2.5075187969924873,0.0,0.993858358900779,0
436,434.34722222222223,1.85277777777776,0.6916666666666629,0.73888888888888,2.5075187969924873,0.026350616893949654,1.0503497342399257,33.333333333333336,0.9999999999700001,0.9360902255639159,0.0,0.9942697773197238,0
437,435.0388888888889,0.6916666666666629,0.75,0.73888888888888,0.9360902255639159,0.026098088503854023,1.0402838170550461,30.555555555555557,0.9166666666391667,1.0150375939849745,0.0,0.9939982895558105,0
438,435.7888888888889,0.75,1.8388888888889028,0.73888888888888,1.0150375939849745,0.024477062686936606,0.9756688578361518,33.333333333333336,0.9999999999700001,2.488721804511327,0.0,0.9927986431117543,0
439,437.6277777777778,1.8388888888889028,0.6750000000000114,0.73888888888888,2.488721804511327,0.026899124474616204,1.0722135408407487,30.555555555555557,0.9166666666391667,0.9135338345864925,0.0,0.9948917697938003,0
440,438.3027777777778,0.6750000000000114,0.7444444444444116,0.73888888888888,0.9135338345864925,0.025945751167276796,1.0342115690453442,33.333333333333336,0.9999999999700001,1.0075187969924488,0.0,0.9983907547599241,0
441,439.0472222222222,0.7444444444444116,0.7250000000000227,0.73888888888888,1.0075187969924488,0.026288251126080187,1.0478638012550927,33.333333333333336,0.9999999999700001,0.9812030075188395,0.0,0.9923598317191047,0
442,439.77222222222224,0.7250000000000227,0.7277777777777601,0.73888888888888,0.9812030075188395,0.025637223994705624,1.0219135103311918,36.111111111111114,1.0833333333008335,0.9849624060150255,0.0,0.9938154485355049,0
443,440.5,0.7277777777777601,0.7222222222222285,0.73888888888888,0.9849624060150255,0.02468936695541552,0.9841314199413308,33.333333333333336,0.9999999999700001,0.9774436090225767,0.0,0.9970067691336268,0
444,441.22222222222223,0.7222222222222285,0.7222222222222285,0.73888888888888,0.9774436090225767,0.025092471057350327,1.0001993658282244,33.333333333333336,0.9999999999700001,0.9774436090225767,0.0,0.9977482094835071,0
445,441.94444444444446,0.7222222222222285,1.4805555555555543,0.73888888888888,0.9774436090225767,0.026519753469981203,1.0570916089520042,41.666666666666664,1.2499999999625,2.0037593984962627,0.0,0.9943097462223017,0
446,443.425,1.4805555555555543,0.6999999999999886,0.73888888888888,2.0037593984962627,0.027085519002043604,1.0796433267594268,33.333333333333336,0.9999999999700001,0.9473684210526275,0.0,0.993100827837385,0
447,444.125,0.6999999999999886,0.7583333333333258,0.73888888888888,0.9473684210526275,0.02389146662789679,0.9523266845785061,30.555555555555557,0.9166666666391667,1.0263157894736863,0.0,0.9970861976151829,0
448,444.8833333333333,0.7583333333333258,0.7277777777777601,0.73888888888888,1.0263157894736863,0.025618903336442355,1.0211832390584026,36.111111111111114,1.0833333333008335,0.9849624060150255,0.0,0.996021443373629,0
449,445.6111111111111,0.7277777777777601,0.7222222222222285,0.73888888888888,0.9849624060150255,0.024339690962206343,0.970193147148117,30.555555555555557,0.9166666666391667,0.9774436090225767,0.0,0.9940042486414808,0
450,446.3333333333333,0.7222222222222285,0.7361111111111427,0.73888888888888,0.9774436090225767,0.0252943960343612,1.0082482038039484,33.333333333333336,0.9999999999700001,0.9962406015038141,0.0,0.9930192777588991,0
451,447.06944444444446,0.7361111111111427,2.0749999999999886,0.73888888888888,0.9962406015038141,0.025091273298179676,1.0001516225047327,36.111111111111114,1.0833333333008335,2.8082706766917473,0.0,0.9972163576132678,0
452,449.14444444444445,2.0749999999999886,0.6666666666666856,0.73888888888888,2.8082706766917473,0.02639309059922806,1.0520427589319434,30.555555555555557,0.9166666666391667,0.9022556390977808,0.0,0.9942185526575504,0
453,449.81111111111113,0.6666666666666856,0.73888888888888,0.73888888888888,0.9022556390977808,0.0236009082728279,0.9407448725755441,30.555555555555557,0.9166666666391667,1.0,0.0,0.9962344611197731,0
454,450.55,0.73888888888888,0.7333333333333485,0.73888888888888,1.0,0.024589240563293507,0.9801403282041236,33.333333333333336,0.9999999999700001,0.9924812030075512,0.0,0.9988512538646102,0
455,451.28333333333336,0.7333333333333485,0.7333333333332916,0.73888888888888,0.9924812030075512,0.02448623840148033,0.976034606743331,33.333333333333336,0.9999999999700001,0.9924812030074742,0.0,0.9981524153237775,0
456,452.01666666666665,0.7333333333332916,1.7555555555555884,0.73888888888888,0.9924812030074742,0.024330636021191045,0.9698322123386112,33.333333333333336,0.9999999999700001,2.375939849624133,0.0,0.998143614423521,0
457,453.77222222222224,1.7555555555555884,0.6944444444444002,0.73888888888888,2.375939849624133,0.02690257651457087,1.0723511410063753,33.333333333333336,0.9999999999700001,0.9398496240601018,0.0,0.9936666372377507,0
458,454.46666666666664,0.6944444444444002,0.7250000000000227,0.73888888888888,0.9398496240601018,0.02418524407346108,0.9640368112566025,30.555555555555557,0.9166666666391667,0.9812030075188395,0.0,0.9886182339114011,0
459,455.19166666666666,0.7250000000000227,0.7361111111111427,0.73888888888888,0.9812030075188395,0.024854481672442974,0.9907129811945973,30.555555555555557,0.9166666666391667,0.9962406015038141,0.0,0.9958132216133156,0
460,455.9277777777778,0.7361111111111427,0.7638888888888573,0.73888888888888,0.9962406015038141,0.026342786569858438,1.0500376133183806,33.333333333333336,0.9999999999700001,1.0338345864661351,0.0,0.9931968854790129,0
461,456.69166666666666,0.7638888888888573,0.7361111111111427,0.73888888888888,1.0338345864661351,0.02562643005154417,1.0214832579626547,33.333333333333336,0.9999999999700001,0.9962406015038141,0.0,0.9974116131329218,0
462,457.4277777777778,0.7361111111111427,0.73888888888888,0.73888888888888,0.9962406015038141,0.026093372547120148,1.0400958364881379,33.333333333333336,0.9999999999700001,1.0,0.0,0.9975315710612402,0
463,458.1666666666667,0.73888888888888,1.7888888888888914,0.73888888888888,1.0,0.025143761413885492,1.0022438269720602,33.333333333333336,0.9999999999700001,2.4210526315789798,0.0,0.9949940113248509,0
464,459.9555555555556,1.7888888888888914,0.6777777777777487,0.73888888888888,2.4210526315789798,0.02570371093537867,1.0245637154761953,30.555555555555557,0.9166666666391667,0.9172932330826784,0.0,0.9948612173617405,0
465,460.6333333333333,0.6777777777777487,0.7638888888889142,0.73888888888888,0.9172932330826784,0.026474620166237847,1.0552925712375176,33.333333333333336,0.9999999999700001,1.033834586466212,0.0,0.9942475390841508,0
466,461.39722222222224,0.7638888888889142,0.7444444444444116,0.73888888888888,1.033834586466212,0.02580642642938265,1.0286580102042315,33.333333333333336,0.9999999999700001,1.0075187969924488,0.0,0.9937972151873354,0
467,462.14166666666665,0.7444444444444116,2.713888888888903,0.73888888888888,1.0075187969924488,0.025535438577234917,1.0178562889530312,36.111111111111114,1.0833333333008335,3.6729323308271304,0.0,0.998029648184409,0
468,464.85555555555555,2.713888888888903,1.3361111111111086,0.73888888888888,3.6729323308271304,0.027359232201848882,1.0905536818312067,33.333333333333336,0.9999999999700001,1.8082706766917476,0.0,0.9946078680754085,0
469,466.19166666666666,1.3361111111111086,0.6972222222222513,0.73888888888888,1.8082706766917476,0.0263207439150305,1.0491589812645792,30.555555555555557,0.9166666666391667,0.9436090225564416,0.0,0.9948716508023263,0
470,466.8888888888889,0.6972222222222513,0.7222222222221717,0.73888888888888,0.9436090225564416,0.023502707548145912,0.9368305389761825,30.555555555555557,0.9166666666391667,0.9774436090224997,0.0,0.9969381716105037,0
471,467.6111111111111,0.7222222222221717,1.841666666666697,0.73888888888888,0.9774436090224997,0.025667797705408557,1.0231321948515884,38.888888888888886,1.1666666666316665,2.4924812030075896,0.0,0.9925144089586762,0
472,469.4527777777778,1.841666666666697,0.705555555555577,0.73888888888888,2.4924812030075896,0.026260369805266824,1.0467524368409526,33.333333333333336,0.9999999999700001,0.9548872180451533,0.0,0.9956200800232129,0
473,470.15833333333336,0.705555555555577,0.7638888888888573,0.73888888888888,0.9548872180451533,0.026450251766266596,1.054321233733858,33.333333333333336,0.9999999999700001,1.0338345864661351,0.0,0.9977194608985536,0
474,470.9222222222222,0.7638888888888573,1.8388888888889028,0.73888888888888,1.0338345864661351,0.025169316437283148,1.0032624639224683,33.333333333333336,0.9999999999700001,2.488721804511327,0.0,0.9933171403468015,0
475,472.7611111111111,1.8388888888889028,0.6916666666666629,0.73888888888888,2.488721804511327,0.0268472141288903,1.0701443665949637,33.333333333333336,0.9999999999700001,0.9360902255639159,0.0,0.9976439725602617,0
476,473.4527777777778,0.6916666666666629,0.75,0.73888888888888,0.9360902255639159,0.02693650125128426,1.0737033992223584,33.333333333333336,0.9999999999700001,1.0150375939849745,0.0,0.9955445362469348,0
477,474.2027777777778,0.75,0.7250000000000227,0.73888888888888,1.0150375939849745,0.026350639220310397,1.0503506241806495,36.111111111111114,1.0833333333008335,0.9812030075188395,0.0,0.9937104542030357,0
478,474.9277777777778,0.7250000000000227,1.713888888888846,0.73888888888888,0.9812030075188395,0.025346494447794736,1.010324874529513,33.333333333333336,0.9999999999700001,2.319548872180421,0.0,0.9982133688307591,0
479,476.64166666666665,1.713888888888846,0.6722222222222172,0.73888888888888,2.319548872180421,0.02559067093387321,1.0200578803370186,30.555555555555557,0.9166666666391667,0.9097744360902296,0.0,0.9942078178047703,0
480,477.31388888888887,0.6722222222222172,0.7361111111111427,0.73888888888888,0.9097744360902296,0.026883707073829484,1.0715989949694253,36.111111111111114,1.0833333333008335,0.9962406015038141,0.0,0.9971147659761639,0
481,478.05,0.7361111111111427,0.7277777777777601,0.73888888888888,0.9962406015038141,0.025552192989294883,1.0185241288114053,30.555555555555557,0.9166666666391667,0.9849624060150255,0.0,0.996168300688864,0
482,478.77777777777777,0.7277777777777601,2.01111111111112,0.73888888888888,0.9849624060150255,0.02419615812909626,0.9644718513728179,30.555555555555557,0.9166666666391667,2.72180451127824,0.0,0.9955617307506077,0
483,480.7888888888889,2.01111111111112,0.6805555555555429,0.73888888888888,2.72180451127824,0.027606717359710965,1.1004185730720812,33.333333333333336,0.9999999999700001,0.9210526315789413,0.0,0.9962611744556245,0
484,481.46944444444443,0.6805555555555429,0.7444444444444684,0.73888888888888,0.9210526315789413,0.024163028764067725,0.9631512970991436,33.333333333333336,0.9999999999700001,1.0075187969925257,0.0,0.9952553400066884,0
485,482.2138888888889,0.7444444444444684,0.75,0.73888888888888,1.0075187969925257,0.025675271379510495,1.0234300995131134,30.555555555555557,0.9166666666391667,1.0150375939849745,0.0,0.9949764057334212,0
486,482.9638888888889,0.75,0.73888888888888,0.73888888888888,1.0150375939849745,0.02731178662600826,1.0886624757097096,36.111111111111114,1.0833333333008335,1.0,0.0,0.9943331826808661,0
487,483.7027777777778,0.73888888888888,0.7194444444444343,0.73888888888888,1.0,0.025534248062187036,1.0178088343841614,36.111111111111114,1.0833333333008335,0.9736842105263138,0.0,0.9971480919870376,0
488,484.4222222222222,0.7194444444444343,1.9499999999999886,0.73888888888888,0.9736842105263138,0.0253081643993709,1.0087970182240076,33.333333333333336,0.9999999999700001,2.6390977443609183,0.0,0.9933390515404396,0
489,486.3722222222222,1.9499999999999886,0.6527777777777715,0.73888888888888,2.6390977443609183,0.025197022465520236,1.004366841080422,33.333333333333336,0.9999999999700001,0.8834586466165434,0.0,0.9976331022773468,0
490,487.025,0.6527777777777715,0.7472222222222626,0.73888888888888,0.8834586466165434,0.02483930040701056,0.9901078478052524,30.555555555555557,0.9166666666391667,1.0112781954887886,0.0,0.9919602624169405,0
491,487.77222222222224,0.7472222222222626,0.7305555555555543,0.73888888888888,1.0112781954887886,0.025802185023536015,1.0284889454904245,33.333333333333336,0.9999999999700001,0.9887218045112883,0.0,0.9928774560810258,0
492,488.5027777777778,0.7305555555555543,0.7277777777777601,0.73888888888888,0.9887218045112883,0.02574077611870122,1.0260411535797918,36.111111111111114,1.0833333333008335,0.9849624060150255,0.0,0.9925046128073804,0
493,489.23055555555555,0.7277777777777601,0.7305555555555543,0.73888888888888,0.9849624060150255,0.025425842854883782,1.0134877446298134,30.555555555555557,0.9166666666391667,0.9887218045112883,0.0,0.9968791288679109,0
494,489.9611111111111,0.7305555555555543,0.7138888888889028,0.73888888888888,0.9887218045112883,0.025736460731514924,1.025869139930073,33.333333333333336,0.9999999999700001,0.966165413533865,0.0,0.9968152930950049,0
495,490.675,0.7138888888889028,1.8305555555555202,0.73888888888888,0.966165413533865,0.026991144835343747,1.0758815218153053,33.333333333333336,0.9999999999700001,2.4774436090225382,0.0,0.9951350901969127,0
496,492.50555555555553,1.8305555555555202,0.6750000000000114,0.73888888888888,2.4774436090225382,0.026996400734794982,1.0760910247887656,30.555555555555557,0.9166666666391667,0.9135338345864925,0.0,0.9957892519467982,0
497,493.18055555555554,0.6750000000000114,0.6972222222222513,0.73888888888888,0.9135338345864925,0.02559620941458772,1.020278647151321,33.333333333333336,0.9999999999700001,0.9436090225564416,0.0,0.9970182531468921,0
498,493.8777777777778,0.6972222222222513,1.8222222222221944,0.73888888888888,0.9436090225564416,0.0257396451652457,1.025996073167966,33.333333333333336,0.9999999999700001,2.4661654135338265,0.0,0.9904691510546495,0
499,495.7,1.8222222222221944,0.6861111111111313,0.73888888888888,2.4661654135338265,0.02581810001027651,1.0291233254049663,36.111111111111114,1.0833333333008335,0.928571428571467,0.0,0.9971183469717568,0
500,496.3861111111111,0.6861111111111313,0.73888888888888,0.73888888888888,0.928571428571467,0.024367615404789086,0.971306230419132,30.555555555555557,0.9166666666391667,1.0,0.0,0.9971183537004621,0
501,497.125,0.73888888888888,0.7027777777777828,0.73888888888888,1.0,0.025318521022725086,1.0092098387902764,33.333333333333336,0.9999999999700001,0.9511278195488904,0.0,0.998211611378589,0
502,497.8277777777778,0.7027777777777828,0.7194444444444343,0.73888888888888,0.9511278195488904,0.024964769404915904,0.9951091094127364,30.555555555555557,0.9166666666391667,0.9736842105263138,0.0,0.9973931841936396,0
503,498.5472222222222,0.7194444444444343,0.6999999999999886,0.73888888888888,0.9736842105263138,0.023821951048605478,0.9495557562724243,33.333333333333336,0.9999999999700001,0.9473684210526275,0.0,0.9963793735198596,0
504,499.2472222222222,0.6999999999999886,0.7277777777778169,0.73888888888888,0.9473684210526275,0.024311735166292044,0.9690788141164758,33.333333333333336,0.9999999999700001,0.9849624060151024,0.0,0.9940889016235963,0
505,499.975,0.7277777777778169,0.7361111111110858,0.73888888888888,0.9849624060151024,0.023807739827763616,0.9489892893811728,33.333333333333336,0.9999999999700001,0.9962406015037372,0.0,0.997986083268402,0
506,500.7111111111111,0.7361111111110858,0.7277777777777601,0.73888888888888,0.9962406015037372,0.024526428779200995,0.9776366167732213,33.333333333333336,0.9999999999700001,0.9849624060150255,0.0,0.9971538567309872,0
507,501.43888888888887,0.7277777777777601,1.955555555555577,0.73888888888888,0.9849624060150255,0.023612946227977747,0.9412247119297165,30.555555555555557,0.9166666666391667,2.646616541353444,0.0,0.9961034206643224,0
508,503.39444444444445,1.955555555555577,0.6888888888888687,0.73888888888888,2.646616541353444,0.026901550366346904,1.072310238187338,33.333333333333336,0.9999999999700001,0.932330827067653,0.0,0.9966805421222131,0
509,504.0833333333333,0.6888888888888687,0.7138888888889028,0.73888888888888,0.932330827067653,0.024661259122375503,0.983011026628246,30.555555555555557,0.9166666666391667,0.966165413533865,0.0,0.9959141008950814,0
510,504.7972222222222,0.7138888888889028,0.7277777777777601,0.73888888888888,0.966165413533865,0.02657477031646863,1.0592846099856936,33.333333333333336,0.9999999999700001,0.9849624060150255,0.0,0.9973871981082707,0
511,505.525,0.7277777777777601,0.7583333333333826,0.73888888888888,0.9849624060150255,0.02569919940002133,1.0243838832550876,33.333333333333336,0.9999999999700001,1.0263157894737631,0.0,0.9978266641608633,0
512,506.28333333333336,0.7583333333333826,0.7194444444444343,0.73888888888888,1.0263157894737631,0.02469319040828138,0.9842838248249698,33.333333333333336,0.9999999999700001,0.9736842105263138,0.0,0.9979577827379295,0
513,507.0027777777778,0.7194444444444343,0.7249999999999659,0.73888888888888,0.9736842105263138,0.02591863290739955,1.033130620649724,36.111111111111114,1.0833333333008335,0.9812030075187625,0.0,0.9988627697063301,0
514,507.72777777777776,0.7249999999999659,0.7250000000000227,0.73888888888888,0.9812030075187625,0.024146955517271255,0.9625106088538175,30.555555555555557,0.9166666666391667,0.9812030075188395,0.0,0.9984334204704604,0
515,508.4527777777778,0.7250000000000227,1.6499999999999773,0.73888888888888,0.9812030075188395,0.02514450062655602,1.0022732923859121,36.111111111111114,1.0833333333008335,2.2330827067669135,0.0,0.997621784145787,0
516,510.10277777777776,1.6499999999999773,0.6972222222222513,0.73888888888888,2.2330827067669135,0.0263930333335183,1.0520404762900126,33.333333333333336,0.9999999999700001,0.9436090225564416,0.0,0.9978730810265568,0
517,510.8,0.6972222222222513,0.7361111111110858,0.73888888888888,0.9436090225564416,0.02446250473838594,0.9750885701923061,33.333333333333336,0.9999999999700001,0.9962406015037372,0.0,0.9985218837737325,0
518,511.5361111111111,0.7361111111110858,0.7222222222222285,0.73888888888888,0.9962406015037372,0.02500324644217686,0.9966428247721922,33.333333333333336,0.9999999999700001,0.9774436090225767,0.0,0.9946645609197637,0
519,512.2583333333333,0.7222222222222285,0.7416666666666742,0.73888888888888,0.9774436090225767,0.024952653569432395,0.9946261657066587,33.333333333333336,0.9999999999700001,1.003759398496263,0.0,0.9992761892220858,0
520,513.0,0.7416666666666742,1.805555555555543,0.73888888888888,1.003759398496263,0.023566436847668487,0.9393708230646436,30.555555555555557,0.9166666666391667,2.4436090225564033,0.0,0.9939426589644886,0
521,514.8055555555555,1.805555555555543,0.6777777777778056,0.73888888888888,2.4436090225564033,0.025967259210234243,1.0350688911830115,36.111111111111114,1.0833333333008335,0.9172932330827553,0.0,0.9951957978061109,0
522,515.4833333333333,0.6777777777778056,0.75,0.73888888888888,0.9172932330827553,0.02411635734278277,0.9612909491937969,33.333333333333336,0.9999999999700001,1.0150375939849745,0.0,0.9990064564802701,0
523,516.2333333333333,0.75,1.966666666666697,0.73888888888888,1.0150375939849745,0.023631833330183524,0.9419775619621176,33.333333333333336,0.9999999999700001,2.6616541353384187,0.0,0.997166194632362,0
524,518.2,1.966666666666697,0.6805555555555429,0.73888888888888,2.6616541353384187,0.02842790673568639,1.133151622407806,33.333333333333336,0.9999999999700001,0.9210526315789413,0.0,0.9973108951029304,0
525,518.8805555555556,0.6805555555555429,1.7749999999999773,0.73888888888888,0.9210526315789413,0.02406536595494161,0.9592584051025888,27.77777777777778,0.8333333333083334,2.4022556390977425,0.0,0.9898985995295904,0
526,520.6555555555556,1.7749999999999773,0.7027777777777828,0.73888888888888,2.4022556390977425,0.026328132460241467,1.0494534926428134,33.333333333333336,0.9999999999700001,0.9511278195488904,0.0,0.99722311374903,0
527,521.3583333333333,0.7027777777777828,0.7305555555554974,0.73888888888888,0.9511278195488904,0.02489925007777642,0.9924974738625897,33.333333333333336,0.9999999999700001,0.9887218045112114,0.0,0.9984254325762159,0
528,522.0888888888888,0.7305555555554974,0.7277777777778738,0.73888888888888,0.9887218045112114,0.024632230497726875,0.9818539300673668,33.333333333333336,0.9999999999700001,0.9849624060151793,0.0,0.9977728413229568,0
529,522.8166666666667,0.7277777777778738,0.7444444444444116,0.73888888888888,0.9849624060151793,0.024653235327262716,0.982691193847927,33.333333333333336,0.9999999999700001,1.0075187969924488,0.0,0.9985615667834645,0
530,523.5611111111111,0.7444444444444116,0.7277777777777601,0.73888888888888,1.0075187969924488,0.02384915773362951,0.9506402293418613,33.333333333333336,0.9999999999700001,0.9849624060150255,0.0,0.9977830653270151,0
531,524.2888888888889,0.7277777777777601,0.7277777777777601,0.73888888888888,0.9849624060150255,0.024855436732002082,0.9907510503812934,33.333333333333336,0.9999999999700001,0.9849624060150255,0.0,0.9988479390825882,0
532,525.0166666666667,0.7277777777777601,1.5194444444445026,0.73888888888888,0.9849624060150255,0.023797699754095163,0.9485890866552992,33.333333333333336,0.9999999999700001,2.056390977443712,0.0,0.9973647314327763,0
533,526.5361111111112,1.5194444444445026,0.6972222222221944,0.73888888888888,2.056390977443712,0.026409186917685103,1.0526843668260448,36.111111111111114,1.0833333333008335,0.9436090225563647,0.0,0.9967332031049376,0
534,527.2333333333333,0.6972222222221944,0.75,0.73888888888888,0.9436090225563647,0.024391931853875934,0.9722754971326523,30.555555555555557,0.9166666666391667,1.0150375939849745,0.0,0.9969801325411631,0
535,527.9833333333333,0.75,1.8833333333333258,0.73888888888888,1.0150375939849745,0.025074159760091787,0.9994694676901087,33.333333333333336,0.9999999999700001,2.548872180451148,0.0,0.9968333789130011,0
536,529.8666666666667,1.8833333333333258,0.6861111111111313,0.73888888888888,2.548872180451148,0.02771777044479475,1.1048452086561256,33.333333333333336,0.9999999999700001,0.928571428571467,0.0,0.9951515899104455,0
537,530.5527777777778,0.6861111111111313,1.7111111111111086,0.73888888888888,0.928571428571467,0.025087468473220742,0.9999999601394632,27.77777777777778,0.8333333333083334,2.3157894736842346,0.0,0.9909040727345133,0
538,532.2638888888889,1.7111111111111086,0.691666666666606,0.73888888888888,2.3157894736842346,0.02679582787972922,1.0680960831195845,36.111111111111114,1.0833333333008335,0.9360902255638389,0.0,0.9948478899829729,0
539,532.9555555555555,0.691666666666606,0.7361111111111995,0.73888888888888,0.9360902255638389,0.024574429619656665,0.9795499560403367,33.333333333333336,0.9999999999700001,0.996240601503891,0.0,0.9984262396728747,0
540,533.6916666666667,0.7361111111111995,0.7027777777776691,0.73888888888888,0.996240601503891,0.02531201602492975,1.008950546086312,33.333333333333336,0.9999999999700001,0.9511278195487365,0.0,0.9961412388948921,0
541,534.3944444444444,0.7027777777776691,0.7305555555556111,0.73888888888888,0.9511278195487365,0.024903929633427677,0.9926840034628052,33.333333333333336,0.9999999999700001,0.9887218045113653,0.0,0.9989238793236515,0
542,535.125,0.7305555555556111,0.7472222222222626,0.73888888888888,0.9887218045113653,0.024168532539685504,0.9633706805496607,33.333333333333336,0.9999999999700001,1.0112781954887886,0.0,0.9991918703056791,0
543,535.8722222222223,0.7472222222222626,0.7166666666665833,0.73888888888888,1.0112781954887886,0.025934636315438075,1.0337685250846695,33.333333333333336,0.9999999999700001,0.9699248120299739,0.0,0.9978853101674661,0
544,536.5888888888888,0.7166666666665833,1.4805555555556111,0.73888888888888,0.9699248120299739,0.02345005926598438,0.9347319501879537,30.555555555555557,0.9166666666391667,2.00375939849634,0.0,0.9935940931220957,0
545,538.0694444444445,1.4805555555556111,0.6694444444444798,0.73888888888888,2.00375939849634,0.02630084274075812,1.0483657097752557,33.333333333333336,0.9999999999700001,0.9060150375940437,0.0,0.9937021601687213,0
546,538.7388888888889,0.6694444444444798,0.7361111111110858,0.73888888888888,0.9060150375940437,0.025616534347747483,1.0210888098973667,33.333333333333336,0.9999999999700001,0.9962406015037372,0.0,0.9981664253922323,0
547,539.475,0.7361111111110858,1.8472222222221717,0.73888888888888,0.9962406015037372,0.026489056654210818,1.055868017397537,36.111111111111114,1.0833333333008335,2.4999999999999614,0.0,0.9954301151425371,0
548,541.3222222222222,1.8472222222221717,0.6861111111111313,0.73888888888888,2.4999999999999614,0.02638184815841798,1.0515946292063814,33.333333333333336,0.9999999999700001,0.928571428571467,0.0,0.9979876651408548,0
549,542.0083333333333,0.6861111111111313,0.7444444444444116,0.73888888888888,0.928571428571467,0.025519682904682896,1.0172282593875606,33.333333333333336,0.9999999999700001,1.0075187969924488,0.0,0.9949686383987772,0
550,542.7527777777777,0.7444444444444116,1.9555555555556339,0.73888888888888,1.0075187969924488,0.024387015764337543,0.9720795391647257,30.555555555555557,0.9166666666391667,2.646616541353521,0.0,0.993228673335399,0
551,544.7083333333334,1.9555555555556339,0.6944444444444571,0.73888888888888,2.646616541353521,0.02571102488067411,1.0248552532617519,33.333333333333336,0.9999999999700001,0.9398496240601787,0.0,0.9979076970858867,0
552,545.4027777777778,0.6944444444444571,0.7361111111110858,0.73888888888888,0.9398496240601787,0.025946497608045817,1.0342413225750822,33.333333333333336,0.9999999999700001,0.9962406015037372,0.0,0.9946481532267725,0
553,546.1388888888889,0.7361111111110858,0.7222222222221717,0.73888888888888,0.9962406015037372,0.024322915508204212,0.9695244685466328,33.333333333333336,0.9999999999700001,0.9774436090224997,0.0,0.9967810539794777,0
554,546.8611111111111,0.7222222222221717,0.7277777777777601,0.73888888888888,0.9774436090224997,0.025715947448344965,1.0250514694515158,30.555555555555557,0.9166666666391667,0.9849624060150255,0.0,0.9963566246441546,0
555,547.5888888888888,0.7277777777777601,1.7805555555555657,0.73888888888888,0.9849624060150255,0.026982448128907453,1.0755348664284168,33.333333333333336,0.9999999999700001,2.409774436090268,0.0,0.996095263584343,0
556,549.3694444444444,1.7805555555555657,0.7194444444444343,0.73888888888888,2.409774436090268,0.026188943863618797,1.0439053604658617,33.333333333333336,0.9999999999700001,0.9736842105263138,0.0,0.9957306834121861,0
557,550.0888888888888,0.7194444444444343,0.7416666666666742,0.73888888888888,0.9736842105263138,0.02489768638882526,0.992435144381618,33.333333333333336,0.9999999999700001,1.003759398496263,0.0,0.9982606745470477,0
558,550.8305555555555,0.7416666666666742,0.7333333333333485,0.73888888888888,1.003759398496263,0.024914036982171695,0.9930868878093035,33.333333333333336,0.9999999999700001,0.9924812030075512,0.0,0.9955900694156407,0
559,551.5638888888889,0.7333333333333485,0.7333333333333485,0.73888888888888,0.9924812030075512,0.02603457198361654,1.0377520144631074,36.111111111111114,1.0833333333008335,0.9924812030075512,0.0,0.998054999264443,0
