beat_index,peak_time_s,rr_prev_s,rr_next_s,rr_baseline_s,prematurity_index,aa_ratio,morph_index,qrs_width_ms,width_index,pause_index,pvc_score,morphology_score,is_pvc_candidate
0,0.12222222222222222,,0.7666666666666666,0.5888888888888459,,0.042282318219511165,1.2087404048456933,105.55555555555556,1.8095238094927892,1.301886792452925,0.9960529804229736,0.3504003709527073,1
1,0.8888888888888888,0.7666666666666666,0.49444444444444446,0.5888888888888459,1.301886792452925,0.03426779582025744,0.9796262631085798,55.55555555555556,0.9523809523646259,0.8396226415094953,9.15883902052883e-08,0.9992768232232521,0
2,1.3833333333333333,0.49444444444444446,0.7000000000000002,0.5888888888888459,0.8396226415094953,0.03688751549973379,1.0545171669022906,77.77777777777777,1.3333333333104762,1.1886792452831059,0.9938470721244812,0.9185572413350287,1
3,2.0833333333333335,0.7000000000000002,0.5944444444444441,0.5888888888888459,1.1886792452831059,0.03488868621509314,0.9973758884560421,58.333333333333336,0.9999999999828572,1.0094339622642239,1.2827695172745734e-05,0.9992074735672049,0
4,2.6777777777777776,0.5944444444444441,0.4027777777777781,0.5888888888888459,1.0094339622642239,0.03526752241780195,1.008205820312076,55.55555555555556,0.9523809523646259,0.6839622641509938,5.966815933788894e-06,0.9991181574310692,0
5,3.0805555555555557,0.4027777777777781,0.7638888888888888,0.5944444444444441,0.6775700934579449,0.04368658599247354,1.248884731549593,88.88888888888889,1.5238095237834013,1.2850467289719634,0.9963393211364746,0.32160753204498416,1
6,3.8444444444444446,0.7638888888888888,0.4916666666666667,0.6472222222222221,1.1802575107296138,0.03510033045322525,1.003426241247839,58.333333333333336,0.9999999999828572,0.7596566523605152,1.272665883789159e-07,0.9995059242144275,0
7,4.336111111111111,0.4916666666666667,0.7194444444444441,0.5944444444444441,0.8271028037383182,0.037664987820666365,1.0767430581857704,80.55555555555556,1.3809523809287076,1.2102803738317758,0.9937877655029297,0.914511618947771,1
8,5.055555555555555,0.7194444444444441,0.5972222222222223,0.6472222222222221,1.1115879828326176,0.035087284702170374,1.003053297495566,58.333333333333336,0.9999999999828572,0.92274678111588,7.040563900773122e-07,0.9993000769824739,0
9,5.652777777777778,0.5972222222222223,0.38333333333333375,0.5972222222222223,1.0,0.034889518504128594,0.9973996814131936,58.333333333333336,0.9999999999828572,0.6418604651162797,1.1387507584004197e-05,0.9979033721975936,0
10,6.036111111111111,0.38333333333333375,0.7666666666666666,0.5958333333333332,0.6433566433566442,0.04197368695128024,1.199917447642336,91.66666666666667,1.5714285714016327,1.2867132867132869,0.9940652847290039,0.4681825494064403,1
11,6.802777777777778,0.7666666666666666,0.6194444444444445,0.5958333333333332,1.2867132867132869,0.03211950101638018,0.9182121581040854,55.55555555555556,0.9523809523646259,1.03962703962704,6.079774550471484e-08,0.9964514112432546,0
12,7.4222222222222225,0.6194444444444445,0.5916666666666668,0.6083333333333334,1.0182648401826484,0.0327856695609274,0.9372561668088849,55.55555555555556,0.9523809523646259,0.9726027397260275,1.2829120805690764e-06,0.9976568381874936,0
13,8.01388888888889,0.5916666666666668,0.4027777777777768,0.5958333333333332,0.9930069930069934,0.03418126149600245,0.9771524740984786,55.55555555555556,0.9523809523646259,0.6759906759906744,1.3217528476161533e-06,0.9989669896325903,0
14,8.416666666666666,0.4027777777777768,0.7722222222222221,0.5944444444444446,0.6775700934579422,0.04325781047977716,1.236627166008511,91.66666666666667,1.5714285714016327,1.2990654205607473,0.9959783554077148,0.3157085691436802,1
15,9.188888888888888,0.7722222222222221,0.5916666666666668,0.6083333333333334,1.2694063926940637,0.03357073218039278,0.9596990447881705,55.55555555555556,0.9523809523646259,0.9726027397260275,4.233782746609904e-08,0.9995097094725753,0
16,9.780555555555555,0.5916666666666668,0.5805555555555557,0.5944444444444446,0.9953271028037384,0.03630541282257805,1.0378763805103488,55.55555555555556,0.9523809523646259,0.9766355140186916,0.00021220561757218093,0.9982143087968224,0
17,10.36111111111111,0.5805555555555557,0.594444444444445,0.5944444444444446,0.9766355140186916,0.03526732297261941,1.0082001186982377,55.55555555555556,0.9523809523646259,1.0000000000000007,8.388957940042019e-05,0.9980461372126883,0
18,10.955555555555556,0.594444444444445,0.5999999999999996,0.5930555555555559,1.0023419203747077,0.03708311320473336,1.060108791465084,58.333333333333336,0.9999999999828572,1.0117096018735352,0.0009208719129674137,0.9988097525558751,0
19,11.555555555555555,0.5999999999999996,0.5972222222222232,0.5930555555555559,1.0117096018735352,0.03703407282022421,1.0587068556980421,61.111111111111114,1.0476190476010885,1.007025761124123,0.0021606208756566048,0.9981277315151967,0
20,12.152777777777779,0.5972222222222232,0.4083333333333332,0.5958333333333341,1.0023310023310026,0.03409333560365827,0.9746389038122714,55.55555555555556,0.9523809523646259,0.6853146853146842,9.216533385369985e-07,0.9994035706539005,0
21,12.561111111111112,0.4083333333333332,0.7611111111111111,0.5930555555555559,0.6885245901639339,0.042516216908468886,1.2154269539255207,94.44444444444444,1.619047619019864,1.2833723653395777,0.9960759282112122,0.3842622710557069,1
22,13.322222222222223,0.7611111111111111,0.44166666666666643,0.5930555555555559,1.2833723653395777,0.03485824003307865,0.9965055120924959,55.55555555555556,0.9523809523646259,0.7447306791569078,1.1456773307827461e-07,0.9990730899198792,0
23,13.76388888888889,0.44166666666666643,0.7333333333333325,0.5930555555555559,0.7447306791569078,0.03317399600421527,0.9483573997127959,66.66666666666667,1.1428571428375511,1.236533957845431,0.9769834876060486,0.9382685950337795,1
24,14.497222222222222,0.7333333333333325,0.6111111111111107,0.5958333333333341,1.2307692307692277,0.034173386672438966,0.9769273535794759,55.55555555555556,0.9523809523646259,1.0256410256410236,8.08873721780401e-07,0.9984383361705891,0
25,15.108333333333333,0.6111111111111107,0.40277777777777857,0.5958333333333341,1.0256410256410236,0.03222288953289705,0.921167764196027,52.77777777777778,0.9047619047463946,0.6759906759906764,1.7097189441983573e-08,0.9985436972080112,0
26,15.511111111111111,0.40277777777777857,0.5083333333333346,0.5958333333333341,0.6759906759906764,0.03516277555489998,1.005211382665277,58.333333333333336,0.9999999999828572,0.8531468531468542,0.00648824218660593,0.9940080760220849,0
27,16.019444444444446,0.5083333333333346,0.7694444444444422,0.5958333333333341,0.8531468531468542,0.04105871709771538,1.1737608630984628,91.66666666666667,1.5714285714016327,1.2913752913752858,0.9963697195053101,0.34899630716634683,1
28,16.788888888888888,0.7694444444444422,0.5833333333333357,0.5986111111111114,1.2853828306264456,0.03331270740356998,0.9523227942340299,55.55555555555556,0.9523809523646259,0.9744779582366624,1.0390446192332092e-07,0.9975306870601244,0
29,17.372222222222224,0.5833333333333357,0.5861111111111086,0.5902777777777795,0.9882352941176482,0.03485424014223673,0.9963911657207928,55.55555555555556,0.9523809523646259,0.9929411764705811,4.145516868447885e-05,0.9985882376393658,0
30,17.958333333333332,0.5861111111111086,0.6000000000000014,0.5847222222222221,1.0023752969121098,0.03560703806562033,1.0179116807964728,58.333333333333336,0.9999999999828572,1.0261282660332567,0.00019212067127227783,0.9994730829001368,0
31,18.558333333333334,0.6000000000000014,0.5861111111111121,0.593055555555555,1.0117096018735396,0.03550563625553872,1.0150128694225597,58.333333333333336,0.9999999999828572,0.9882903981264664,8.152616646839306e-05,0.9992646535266552,0
32,19.144444444444446,0.5861111111111121,0.5805555555555557,0.5861111111111104,1.000000000000003,0.03539898398864336,1.0119639612809685,58.333333333333336,0.9999999999828572,0.9905213270142196,0.00012812444765586406,0.9991533882541848,0
33,19.725,0.5805555555555557,0.5833333333333321,0.5861111111111104,0.9905213270142196,0.034977916203572976,0.9999267394249874,58.333333333333336,0.9999999999828572,0.9952606635071083,6.662535452051088e-05,0.9996009080345538,0
34,20.308333333333334,0.5833333333333321,0.45833333333333215,0.5847222222222221,0.9976247030878841,0.034927670539845995,0.9984903478913022,58.333333333333336,0.9999999999828572,0.7838479809976228,2.247631891805213e-05,0.9991870809502649,0
35,20.766666666666666,0.45833333333333215,0.6500000000000021,0.5833333333333339,0.7857142857142829,0.03360079091445198,0.9605583450324767,58.333333333333336,0.9999999999828572,1.1142857142857168,0.0005705035291612148,0.998488710322528,0
36,21.416666666666668,0.6500000000000021,0.5999999999999979,0.5847222222222221,1.1116389548693624,0.03331313259585071,0.952334949364382,55.55555555555556,0.9523809523646259,1.0261282660332507,2.1694129372917814e-06,0.999275783353723,0
37,22.016666666666666,0.5999999999999979,0.408333333333335,0.5861111111111104,1.0236966824644527,0.03371809512338069,0.9639117642148045,55.55555555555556,0.9523809523646259,0.69668246445498,1.4267312735682935e-06,0.9979016789087256,0
38,22.425,0.408333333333335,0.7611111111111093,0.5847222222222221,0.6983372921615231,0.041989045764352716,1.2003565157614204,94.44444444444444,1.619047619019864,1.3016627078384768,0.9960877895355225,0.3548376347670549,1
39,23.18611111111111,0.7611111111111093,0.5833333333333357,0.5861111111111104,1.2985781990521312,0.03507228326573222,1.0026244458356501,58.333333333333336,0.9999999999828572,0.9952606635071143,3.6824292237724876e-06,0.9994646092561172,0
40,23.769444444444446,0.5833333333333357,0.5805555555555557,0.5847222222222239,0.9976247030878871,0.03533024563145598,1.0099989122204194,58.333333333333336,0.9999999999828572,0.9928741092636554,0.00012707490532193333,0.9992456541781768,0
41,24.35,0.5805555555555557,0.42499999999999716,0.5833333333333339,0.9952380952380945,0.03560803518252283,1.0179401857493506,55.55555555555556,0.9523809523646259,0.728571428571423,2.437420880596619e-05,0.9987202380718077,0
42,24.775,0.42499999999999716,0.75277777777778,0.5819444444444439,0.7303102625298287,0.04245702164020439,1.2137347167081685,100.0,1.7142857142563266,1.2935560859188593,0.9964038133621216,0.3672409472289879,1
43,25.52777777777778,0.75277777777778,0.5833333333333321,0.5833333333333339,1.290476190476193,0.03414514595707436,0.9761200257138246,55.55555555555556,0.9523809523646259,0.999999999999997,7.846140874789853e-07,0.9980740069351625,0
44,26.11111111111111,0.5833333333333321,0.5694444444444464,0.5833333333333339,0.999999999999997,0.03165190488604553,0.9048448130841009,55.55555555555556,0.9523809523646259,0.9761904761904786,8.710516681276204e-07,0.9987605593317715,0
45,26.680555555555557,0.5694444444444464,0.5805555555555557,0.5833333333333339,0.9761904761904786,0.03397803876963069,0.9713428702051164,55.55555555555556,0.9523809523646259,0.9952380952380945,1.5693351087975316e-05,0.9992701284470749,0
46,27.261111111111113,0.5805555555555557,0.47222222222222143,0.5819444444444439,0.9976133651551324,0.03422871922798811,0.9785091659874048,55.55555555555556,0.9523809523646259,0.8114558472553692,7.270775768120075e-06,0.9988523560803697,0
47,27.733333333333334,0.47222222222222143,0.6666666666666643,0.5805555555555557,0.8133971291866013,0.04764540502281417,1.3620569680528565,111.11111111111111,1.9047619047292519,1.1483253588516702,0.9866677522659302,0.9166591112206458,1
48,28.4,0.6666666666666643,0.3638888888888907,0.5819444444444439,1.1455847255369898,0.036924176785088206,1.0555652167436307,69.44444444444444,1.1904761904557823,0.6252983293556122,0.9806280136108398,0.2870955650954763,1
49,28.76388888888889,0.3638888888888907,0.81388888888889,0.5805555555555557,0.6267942583732087,0.045231590719114555,1.2930523580518412,102.77777777777777,1.7619047618745578,1.4019138755980876,0.9931407570838928,0.33487002947927663,1
50,29.57777777777778,0.81388888888889,0.466666666666665,0.5805555555555557,1.4019138755980876,0.03234255739194466,0.9245887539260904,55.55555555555556,0.9523809523646259,0.8038277511961692,2.529258580352689e-09,0.9986660324723098,0
51,30.044444444444444,0.466666666666665,0.6722222222222207,0.5750000000000011,0.8115942028985463,0.0364040035963973,1.0406948317419402,83.33333333333333,1.4285714285469386,1.16908212560386,0.9883227944374084,0.9241091128773042,1
52,30.716666666666665,0.6722222222222207,0.5833333333333357,0.5819444444444439,1.1551312649164662,0.0326319942461393,0.932862993254696,55.55555555555556,0.9523809523646259,1.0023866348448738,7.284347134373093e-07,0.9981884277883362,0
53,31.3,0.5833333333333357,0.41388888888888786,0.5819444444444439,1.0023866348448738,0.03605383982048896,1.0306845692474296,58.333333333333336,0.9999999999828572,0.7112171837708819,8.519030234310776e-05,0.9988086649535184,0
54,31.71388888888889,0.41388888888888786,0.7666666666666657,0.5750000000000011,0.719806763285021,0.04243068814353889,1.2129819112149784,94.44444444444444,1.619047619019864,1.3333333333333293,0.9961925745010376,0.33282287371884733,1
55,32.480555555555554,0.7666666666666657,0.48888888888888715,0.5819444444444457,1.3174224343675374,0.03407723473014302,0.974178622134475,55.55555555555556,0.9523809523646259,0.84009546539379,1.0392626137445404e-07,0.9988245351625803,0
56,32.96944444444444,0.48888888888888715,0.6638888888888914,0.5361111111111114,0.9119170984455921,0.03763269875520871,1.0758199986257255,88.88888888888889,1.5238095237834013,1.238341968911921,0.9903126955032349,0.9051004534702148,1
57,33.63333333333333,0.6638888888888914,0.5722222222222229,0.6236111111111136,1.064587973273942,0.034664857540709595,0.9909772146395815,55.55555555555556,0.9523809523646259,0.9175946547884162,1.3316951026354218e-06,0.9990090220263654,0
58,34.205555555555556,0.5722222222222229,0.4166666666666643,0.5777777777777793,0.9903846153846139,0.03210777725407281,0.9178770065373204,52.77777777777778,0.9047619047463946,0.7211538461538402,7.108071287120765e-08,0.9987684162451813,0
59,34.62222222222222,0.4166666666666643,0.75277777777778,0.5777777777777793,0.7211538461538402,0.040878763548974933,1.168616463866881,88.88888888888889,1.5238095237834013,1.3028846153846159,0.9965196847915649,0.3707699014370534,1
60,35.375,0.75277777777778,0.5055555555555529,0.5777777777777793,1.3028846153846159,0.03359327009817612,0.9603433446518719,58.333333333333336,0.9999999999828572,0.8749999999999931,6.678312161056965e-07,0.9980015698976565,0
61,35.88055555555555,0.5055555555555529,0.6638888888888914,0.5777777777777793,0.8749999999999931,0.037420609182855995,1.0697569148984274,100.0,1.7142857142563266,1.149038461538463,0.9931800365447998,0.9061218698350122,1
62,36.544444444444444,0.6638888888888914,0.5750000000000028,0.5777777777777793,1.149038461538463,0.033196097860947626,0.9489892337365553,55.55555555555556,0.9523809523646259,0.99519230769231,7.183623438322684e-06,0.9956591400542238,0
63,37.11944444444445,0.5750000000000028,0.56111111111111,0.5736111111111128,1.0024213075060553,0.03420601479152647,0.977860105792125,55.55555555555556,0.9523809523646259,0.9782082324455157,5.38883323315531e-05,0.9978428945047984,0
64,37.68055555555556,0.56111111111111,0.4555555555555557,0.5736111111111128,0.9782082324455157,0.03374920420928463,0.9648010912591422,55.55555555555556,0.9523809523646259,0.79418886198547,7.480769909307128e-06,0.9983370441634613,0
65,38.13611111111111,0.4555555555555557,0.6999999999999957,0.5666666666666664,0.8039215686274516,0.03971758027563731,1.135421284439219,88.88888888888889,1.5238095237834013,1.2352941176470518,0.986311137676239,0.9225002147451671,1
66,38.83611111111111,0.6999999999999957,0.56944444444445,0.5736111111111128,1.2203389830508364,0.03412549226956033,0.9755581784168272,58.333333333333336,0.9999999999828572,0.9927360774818468,6.778313945687842e-06,0.9993770028733688,0
67,39.40555555555556,0.56944444444445,0.4111111111111114,0.5708333333333364,0.9975669099756734,0.03191270870689699,0.912300509206643,55.55555555555556,0.9523809523646259,0.7201946472019431,2.5186864149873145e-07,0.998655836093676,0
68,39.81666666666667,0.4111111111111114,0.7166666666666615,0.56527777777778,0.727272727272725,0.04065955318472902,1.1623498154052385,94.44444444444444,1.619047619019864,1.2678132678132537,0.9959426522254944,0.3491350339944585,1
69,40.53333333333333,0.7166666666666615,0.5472222222222243,0.5722222222222264,1.252427184466001,0.03409562923345195,0.9747044726628481,55.55555555555556,0.9523809523646259,0.9563106796116471,1.957105496330769e-06,0.9979786838060103,0
70,41.080555555555556,0.5472222222222243,0.5833333333333357,0.56527777777778,0.9680589680589679,0.03732720128589698,1.0670866285011709,119.44444444444444,2.0476190475839458,1.031941031941032,0.9952089190483093,0.6164194642548937,1
71,41.66388888888889,0.5833333333333357,0.5749999999999957,0.5722222222222264,1.019417475728152,0.03327193075201651,0.9511570968838726,55.55555555555556,0.9523809523646259,1.004854368932024,1.0014667168434244e-05,0.9992015590861015,0
72,42.23888888888889,0.5749999999999957,0.5750000000000028,0.5722222222222229,1.0048543689320302,0.03401014498255077,0.9722607024914544,55.55555555555556,0.9523809523646259,1.0048543689320426,3.307820952613838e-05,0.998841648238318,0
73,42.81388888888889,0.5750000000000028,0.4777777777777743,0.5722222222222229,1.0048543689320426,0.035391671198336624,1.0117549078163497,61.111111111111114,1.0476190476010885,0.8349514563106726,0.00030919822165742517,0.9978947024819924,0
74,43.291666666666664,0.4777777777777743,0.3722222222222271,0.5722222222222229,0.8349514563106726,0.03916180407990771,1.1195331029932027,97.22222222222223,1.6666666666380954,0.6504854368932117,0.9160709977149963,0.906485429209271,1
75,43.66388888888889,0.3722222222222271,0.8444444444444414,0.5722222222222229,0.6504854368932117,0.04300785616458521,1.2294816287517902,108.33333333333333,1.8571428571110205,1.475728155339799,0.9930700659751892,0.33723202459510826,1
76,44.50833333333333,0.8444444444444414,0.40833333333333144,0.5722222222222229,1.475728155339799,0.030706013821976578,0.8778042723600344,50.0,0.8571428571281633,0.7135922330097046,1.3803146993451865e-11,0.9933127603653025,0
77,44.916666666666664,0.40833333333333144,0.75555555555556,0.56111111111111,0.7277227722772258,0.03576126424329848,1.0223206020736053,80.55555555555556,1.3809523809287076,1.346534653465357,0.9191246628761292,0.9650603445439183,1
78,45.672222222222224,0.75555555555556,0.5722222222222229,0.5749999999999993,1.3140096618357582,0.03383629371240019,0.9672907513744463,58.333333333333336,0.9999999999828572,0.9951690821256062,2.5482279397692764e-06,0.9980944555533753,0
79,46.24444444444445,0.5722222222222229,0.5666666666666629,0.5736111111111093,0.997578692493951,0.0345692107221532,0.9882429233553655,58.333333333333336,0.9999999999828572,0.9878934624697302,0.0002917803649324924,0.9969456204857831,0
80,46.81111111111111,0.5666666666666629,0.5583333333333371,0.5736111111111093,0.9878934624697302,0.0320085885035126,0.9150414607215529,52.77777777777778,0.9047619047463946,0.9733656174334238,1.309184995079704e-06,0.9981063862133701,0
81,47.36944444444445,0.5583333333333371,0.5638888888888829,0.5694444444444429,0.9804878048780582,0.03322287590212711,0.949754747589609,55.55555555555556,0.9523809523646259,0.9902439024390166,1.2899718967673834e-05,0.9991452039012558,0
82,47.93333333333333,0.5638888888888829,0.3972222222222257,0.5652777777777729,0.9975429975429956,0.03631520909174096,1.0381564301115196,61.111111111111114,1.0476190476010885,0.702702702702715,0.000618001795373857,0.9980447636554713,0
83,48.330555555555556,0.3972222222222257,0.7388888888888872,0.56111111111111,0.7079207920792155,0.04411385477880656,1.261099223742024,86.11111111111111,1.47619047616517,1.3168316831683162,0.996785044670105,0.32408624509922,1
84,49.06944444444444,0.7388888888888872,0.5833333333333357,0.5652777777777729,1.3071253071253153,0.03307842702981777,0.9456253337885907,55.55555555555556,0.9523809523646259,1.0319410319410451,7.459366315742955e-07,0.9974616118754385,0
85,49.65277777777778,0.5833333333333357,0.55833333333333,0.5694444444444429,1.024390243902446,0.03418482131268223,0.977254239905934,58.333333333333336,0.9999999999828572,0.9804878048780457,4.272521982784383e-05,0.999569193429175,0
86,50.21111111111111,0.55833333333333,0.40833333333333854,0.5652777777777729,0.9877149877149904,0.03422088734129396,0.9782852729207037,58.333333333333336,0.9999999999828572,0.7223587223587379,1.969502045540139e-05,0.9990005137341327,0
87,50.61944444444445,0.40833333333333854,0.7138888888888886,0.5652777777777729,0.7223587223587379,0.04242744897758724,1.2128893119695106,91.66666666666667,1.5714285714016327,1.2628992628992732,0.9961535334587097,0.3078031489055838,1
88,51.333333333333336,0.7138888888888886,0.5722222222222229,0.5652777777777729,1.2628992628992732,0.03313427857459509,0.9472219827352004,55.55555555555556,0.9523809523646259,1.0122850122850222,6.572480515387724e-07,0.99901669726488,0
89,51.90555555555556,0.5722222222222229,0.5861111111111086,0.5652777777777729,1.0122850122850222,0.03550675268687055,1.0150447852615403,61.111111111111114,1.0476190476010885,1.0368550368550413,0.003102918155491352,0.9974887883221009,0
90,52.49166666666667,0.5861111111111086,0.56111111111111,0.5680555555555529,1.031784841075795,0.034311590356128394,0.9808782338435773,58.333333333333336,0.9999999999828572,0.9877750611246972,5.76235652260948e-05,0.9994849003515637,0
91,53.05277777777778,0.56111111111111,0.56666666666667,0.5680555555555529,0.9877750611246972,0.03374352131769003,0.9646386323170595,55.55555555555556,0.9523809523646259,0.9975550122249495,2.8852275136159733e-05,0.9989763153990601,0
92,53.61944444444445,0.56666666666667,0.43333333333333,0.5694444444444464,0.9951219512195145,0.03288937300563002,0.94022077587036,55.55555555555556,0.9523809523646259,0.7609756097560891,1.7175507309730165e-06,0.9985319970240953,0
93,54.05277777777778,0.43333333333333,0.68611111111111,0.5694444444444464,0.7609756097560891,0.0407092718014437,1.1637711400493622,91.66666666666667,1.5714285714016327,1.2048780487804818,0.9968819618225098,0.38335136264859904,1
94,54.73888888888889,0.68611111111111,0.5694444444444429,0.5694444444444464,1.2048780487804818,0.03355603813230081,0.9592789805535819,55.55555555555556,0.9523809523646259,0.9999999999999938,2.5681551960587967e-06,0.9981848587268706,0
95,55.30833333333333,0.5694444444444429,0.5777777777777828,0.5680555555555564,1.0024449877750568,0.03241557517867375,0.9266761406354391,55.55555555555556,0.9523809523646259,1.0171149144254352,7.189099051174708e-06,0.998588946971203,0
96,55.88611111111111,0.5777777777777828,0.4750000000000014,0.5708333333333329,1.0121654501216641,0.03387923515781925,0.9685183344944405,58.333333333333336,0.9999999999828572,0.8321167883211711,1.2884361240139697e-05,0.9995292824709006,0
97,56.361111111111114,0.4750000000000014,0.6555555555555515,0.5708333333333329,0.8321167883211711,0.038833583940392484,1.1101501514185876,88.88888888888889,1.5238095237834013,1.1484184914841786,0.9901328086853027,0.9225440593485634,1
98,57.016666666666666,0.6555555555555515,0.5750000000000028,0.5708333333333329,1.1484184914841786,0.03208107358009667,0.9171136186472522,55.55555555555556,0.9523809523646259,1.0072992700729986,1.0592585795166087e-06,0.9972218228476993,0
99,57.59166666666667,0.5750000000000028,0.3916666666666657,0.5722222222222229,1.0048543689320426,0.03218400495910434,0.9200561563786779,55.55555555555556,0.9523809523646259,0.6844660194174733,8.603257697359368e-07,0.9959275887222225,0
100,57.983333333333334,0.3916666666666657,0.7388888888888872,0.5680555555555564,0.6894865525672345,0.041428083835001725,1.1843200878137718,94.44444444444444,1.619047619019864,1.3007334963325132,0.9957094192504883,0.39009149333888926,1
101,58.72222222222222,0.7388888888888872,0.5888888888888886,0.5722222222222229,1.2912621359223255,0.03354418056937971,0.9589400039787562,58.333333333333336,0.9999999999828572,1.0291262135922312,6.41994338366203e-05,0.991560546280897,0
102,59.31111111111111,0.5888888888888886,0.56666666666667,0.5763888888888928,1.0216867469879443,0.03165775610571665,0.905012084083704,55.55555555555556,0.9523809523646259,0.983132530120481,1.7262623259739485e-06,0.9976732802571433,0
103,59.87777777777778,0.56666666666667,0.5722222222222229,0.5763888888888928,0.983132530120481,0.03429732437802829,0.9804704070055428,58.333333333333336,0.9999999999828572,0.9927710843373437,7.372177060460672e-05,0.9987906788921189,0
104,60.45,0.5722222222222229,0.5638888888888829,0.5736111111111128,0.9975786924939448,0.031822085330671164,0.9097098249423837,52.77777777777778,0.9047619047463946,0.9830508474576137,1.1765437193389516e-06,0.997609169292368,0
105,61.013888888888886,0.5638888888888829,0.56944444444445,0.5736111111111128,0.9830508474576137,0.030640906229250284,0.8759430173176326,52.77777777777778,0.9047619047463946,0.9927360774818468,3.63219726295938e-07,0.9972741866071378,0
106,61.583333333333336,0.56944444444445,0.4111111111111114,0.5708333333333364,0.9975669099756734,0.03389973155574411,0.9691042726683352,55.55555555555556,0.9523809523646259,0.7201946472019431,4.081692623003619e-06,0.9987299166557244,0
107,61.99444444444445,0.4111111111111114,0.7249999999999943,0.5708333333333364,0.7201946472019431,0.03936250514332071,1.1252706191668276,94.44444444444444,1.619047619019864,1.270072992700713,0.9960849285125732,0.47157564349322234,1
108,62.71944444444444,0.7249999999999943,0.5250000000000057,0.5708333333333364,1.270072992700713,0.03378787708678452,0.9659066472355927,58.333333333333336,0.9999999999828572,0.9197080291970853,2.470722620273591e-06,0.9985040498415698,0
109,63.24444444444445,0.5250000000000057,0.61944444444444,0.56805555555556,0.924205378973108,0.03925902767415529,1.122312470152337,58.333333333333336,0.9999999999828572,1.0904645476772454,0.9994215965270996,0.5906959852950724,1
110,63.86388888888889,0.61944444444444,0.56944444444445,0.5708333333333364,1.085158150851568,0.034047582615900275,0.9733309460825559,55.55555555555556,0.9523809523646259,0.9975669099756734,3.305935024400242e-05,0.9976382868099163,0
111,64.43333333333334,0.56944444444445,0.38333333333332575,0.56944444444445,1.0,0.03258013632698917,0.9313805115737588,52.77777777777778,0.9047619047463946,0.6731707317072972,2.217315255848007e-07,0.9974962153619608,0
112,64.81666666666666,0.38333333333332575,0.7444444444444542,0.56805555555556,0.6748166259168519,0.041181638160604404,1.1772748533803858,88.88888888888889,1.5238095237834013,1.3105134474327698,0.9955126643180847,0.387137034214012,1
113,65.56111111111112,0.7444444444444542,0.42777777777777715,0.56944444444445,1.3073170731707362,0.033578906955850384,0.9599327401438708,55.55555555555556,0.9523809523646259,0.7512195121951135,1.896577543902822e-07,0.9963577742502352,0
114,65.9888888888889,0.42777777777777715,0.7194444444444343,0.5666666666666664,0.7549019607843129,0.046184387478868584,1.320290314474706,88.88888888888889,1.5238095237834013,1.2696078431372375,0.9975566864013672,0.3371248955412397,1
115,66.70833333333333,0.7194444444444343,0.5666666666666771,0.56944444444445,1.2634146341463115,0.0347992860204516,0.9948201717400548,58.333333333333336,0.9999999999828572,0.9951219512195209,1.6307913028867915e-05,0.9988394235155377,0
116,67.275,0.5666666666666771,0.5722222222222229,0.5680555555555635,0.9975550122249432,0.03324185048423293,0.9502971810469539,55.55555555555556,0.9523809523646259,1.0073349633251703,3.9039819967001677e-05,0.9970947458713478,0
117,67.84722222222223,0.5722222222222229,0.5749999999999886,0.5708333333333364,1.0024330900243266,0.03287008088023291,0.939669264684484,55.55555555555556,0.9523809523646259,1.0072992700729673,2.0372837752802297e-05,0.9970350304647131,0
118,68.42222222222222,0.5749999999999886,0.5555555555555571,0.5708333333333364,1.0072992700729673,0.03280292309838964,0.9377494001209484,58.333333333333336,0.9999999999828572,0.9732360097323576,1.01368905234267e-05,0.9989574759763707,0
119,68.97777777777777,0.5555555555555571,0.45000000000000284,0.5708333333333364,0.9732360097323576,0.03280331994327199,0.9377607448736477,55.55555555555556,0.9523809523646259,0.7883211678832124,1.1991531209787354e-05,0.9949447437951728,0
120,69.42777777777778,0.45000000000000284,0.7055555555555628,0.5680555555555635,0.7921760391197983,0.03865342332897938,1.1049998328091355,75.0,1.285714285692245,1.2420537897310466,0.9812551736831665,0.937744978013491,1
121,70.13333333333334,0.7055555555555628,0.5694444444444429,0.56944444444445,1.239024390243903,0.03443116724209521,0.9842966228922417,58.333333333333336,0.9999999999828572,0.9999999999999876,1.289007741434034e-05,0.9989753530930541,0
122,70.70277777777778,0.5694444444444429,0.40277777777777146,0.5708333333333329,0.9975669099756672,0.03383367552980825,0.9672159044119475,55.55555555555556,0.9523809523646259,0.7055961070559505,3.1919059892970836e-06,0.9988114959764907,0
123,71.10555555555555,0.40277777777777146,0.7194444444444485,0.56805555555556,0.7090464547677096,0.03980671442810687,1.137969395708386,88.88888888888889,1.5238095237834013,1.2665036674816599,0.9959153532981873,0.3704331020335069,1
124,71.825,0.7194444444444485,0.49722222222222,0.5708333333333329,1.2603406326034146,0.033469063618143224,0.9567926076705172,58.333333333333336,0.9999999999828572,0.8710462287104591,7.66155778819666e-07,0.9993915628846248,0
125,72.32222222222222,0.49722222222222,0.6805555555555571,0.56805555555556,0.8753056234718719,0.04007988875635207,1.1457787321407529,94.44444444444444,1.619047619019864,1.1980440097799445,0.9909428954124451,0.9238738892267488,1
126,73.00277777777778,0.6805555555555571,0.5777777777777686,0.5708333333333329,1.1922141119221448,0.03393863541441234,0.9702164317896153,55.55555555555556,0.9523809523646259,1.0121654501216393,2.9665570764336735e-06,0.9992984681014425,0
127,73.58055555555555,0.5777777777777686,0.4027777777777857,0.5722222222222157,1.009708737864073,0.03419331430083574,0.9774970321266852,58.333333333333336,0.9999999999828572,0.7038834951456528,1.3814560588798486e-05,0.998560408971217,0
128,73.98333333333333,0.4027777777777857,0.7305555555555543,0.5625,0.7160493827160634,0.04073862420901722,1.1646102482749192,88.88888888888889,1.5238095237834013,1.2987654320987632,0.9959855675697327,0.34792709640575925,1
129,74.71388888888889,0.7305555555555543,0.5750000000000028,0.5736111111111057,1.273607748184029,0.03219773031445878,0.9204485282325967,58.333333333333336,0.9999999999828572,1.0024213075060675,3.458289370428247e-07,0.9991711694339238,0
130,75.28888888888889,0.5750000000000028,0.5694444444444429,0.5763888888888857,0.9975903614457935,0.028359959893045177,0.8107367534713041,50.0,0.8571428571281633,0.9879518072289183,2.644998630785267e-06,0.9816822710268467,0
131,75.85833333333333,0.5694444444444429,0.43055555555555713,0.5722222222222229,0.9951456310679573,0.03180064864406747,0.9090970063852416,55.55555555555556,0.9523809523646259,0.7524271844660213,2.4615076199552277e-07,0.9988593885147855,0
132,76.28888888888889,0.43055555555555713,0.7361111111111143,0.5722222222222229,0.7524271844660213,0.04072694703121231,1.164276428436705,91.66666666666667,1.5714285714016327,1.2864077669902954,0.9964576363563538,0.3416821557021753,1
133,77.025,0.7361111111111143,0.5722222222222229,0.5763888888888857,1.2771084337349523,0.03546623820894702,1.0138865827667487,58.333333333333336,0.9999999999828572,0.992771084337356,3.0238872568588704e-05,0.9979590458022549,0
134,77.59722222222223,0.5722222222222229,0.5555555555555429,0.5736111111111128,0.9975786924939448,0.03337967581472818,0.9542372451871444,58.333333333333336,0.9999999999828572,0.9685230024212825,2.306634996784851e-05,0.9984528071742635,0
135,78.15277777777777,0.5555555555555429,0.4444444444444571,0.5736111111111128,0.9685230024212825,0.03266130618662059,0.9337009446323907,52.77777777777778,0.9047619047463946,0.7748184019370656,8.786414014139154e-07,0.9970353716113887,0
136,78.59722222222223,0.4444444444444571,0.6888888888888829,0.5708333333333329,0.7785888077859109,0.03917299512489237,1.1198530255711272,83.33333333333333,1.4285714285469386,1.206812652068117,0.9797613620758057,0.9273080925796677,1
137,79.28611111111111,0.6888888888888829,0.5916666666666686,0.5708333333333329,1.206812652068117,0.03354829157216281,0.9590575267489735,55.55555555555556,0.9523809523646259,1.0364963503649678,3.978165841544978e-05,0.992713189466837,0
138,79.87777777777778,0.5916666666666686,0.40277777777777146,0.5736111111111128,1.0314769975786926,0.034613361581738986,0.9895050804493296,55.55555555555556,0.9523809523646259,0.7021791767554348,1.705731665424537e-05,0.9961553699624126,0
139,80.28055555555555,0.40277777777777146,0.7083333333333428,0.5708333333333329,0.7055961070559505,0.0388089089090989,1.1094447570936943,91.66666666666667,1.5714285714016327,1.2408759124087767,0.9957804679870605,0.40085865149886846,1
140,80.9888888888889,0.7083333333333428,0.44722222222222285,0.5708333333333329,1.2408759124087767,0.03182744798049664,0.9098631290135426,52.77777777777778,0.9047619047463946,0.7834549878345516,1.7892224590809747e-08,0.9947963876596653,0
141,81.43611111111112,0.44722222222222285,0.3138888888888829,0.5638888888888829,0.7931034482758716,0.03440963843473391,0.9836811708446352,58.333333333333336,0.9999999999828572,0.556650246305414,4.618214734364301e-05,0.9954259639149835,0
142,81.75,0.3138888888888829,0.8416666666666686,0.5638888888888829,0.556650246305414,0.026925198243734724,0.7697206869481512,47.22222222222222,0.809523809509932,1.4926108374384428,0.8825149536132812,0.406249216090979,1
143,82.59166666666667,0.8416666666666686,0.5888888888888886,0.5638888888888829,1.4926108374384428,0.032079993484513354,0.9170827415518699,58.333333333333336,0.9999999999828572,1.0443349753694686,4.7715413842297494e-08,0.997565717623101,0
144,83.18055555555556,0.5888888888888886,0.5750000000000028,0.5722222222222157,1.029126213592244,0.03295319743126427,0.9420453485364015,52.77777777777778,0.9047619047463946,1.0048543689320553,1.876366150099784e-05,0.9947790774834868,0
145,83.75555555555556,0.5750000000000028,0.5722222222222229,0.5819444444444457,0.9880668257756591,0.036590691086715185,1.0460317366735705,61.111111111111114,1.0476190476010885,0.9832935560859178,0.0043673887848854065,0.9973215148559162,0
146,84.32777777777778,0.5722222222222229,0.5638888888888829,0.5819444444444457,0.9832935560859178,0.035367092299639184,1.0110522616698454,58.333333333333336,0.9999999999828572,0.968973747016694,0.0003344229771755636,0.9976954596750478,0
147,84.89166666666667,0.5638888888888829,0.5583333333333371,0.5736111111111128,0.9830508474576137,0.03286439073168096,0.939506598285054,52.77777777777778,0.9047619047463946,0.9733656174334177,4.684159648604691e-06,0.9980582843935011,0
148,85.45,0.5583333333333371,0.5694444444444429,0.5680555555555529,0.9828850855745834,0.03150094007271606,0.9005291256462936,52.77777777777778,0.9047619047463946,1.0024449877750632,2.563682073741802e-06,0.9963517762335947,0
149,86.01944444444445,0.5694444444444429,0.5888888888888886,0.5708333333333329,0.9975669099756672,0.03013873848311154,0.8615873606193178,55.55555555555556,0.9523809523646259,1.031630170316302,5.929762210143963e-06,0.9924664428182346,0
150,86.60833333333333,0.5888888888888886,0.5611111111111171,0.5708333333333329,1.031630170316302,0.034941872919051,0.9988963566039963,58.333333333333336,0.9999999999828572,0.982968369829695,0.00021000960259698331,0.9981829474917774,0
151,87.16944444444445,0.5611111111111171,0.5611111111111029,0.5708333333333329,0.982968369829695,0.034759862056535654,0.993693144176027,58.333333333333336,0.9999999999828572,0.9829683698296702,0.00020082504488527775,0.9985496489347493,0
152,87.73055555555555,0.5611111111111029,0.5583333333333371,0.5708333333333329,0.9829683698296702,0.035573982530779376,1.0169667098902273,44.44444444444444,0.7619047618917006,0.9781021897810294,0.8998753428459167,0.943221945945002,1
153,88.28888888888889,0.5583333333333371,0.3916666666666657,0.5666666666666629,0.9852941176470721,0.03334842508147293,0.9533438688171315,58.333333333333336,0.9999999999828572,0.6911764705882383,1.0819674571393989e-05,0.9974447695622874,0
154,88.68055555555556,0.3916666666666657,0.7249999999999943,0.5625,0.6962962962962946,0.04178679566136674,1.1945747166156362,80.55555555555556,1.3809523809287076,1.2888888888888788,0.9966345429420471,0.377242853787251,1
155,89.40555555555555,0.7249999999999943,0.5638888888888971,0.5625,1.2888888888888788,0.033385540975574265,0.9544049147283171,55.55555555555556,0.9523809523646259,1.0024691358024838,9.204860020872729e-07,0.9984659071464699,0
156,89.96944444444445,0.5638888888888971,0.5555555555555571,0.5625,1.0024691358024838,0.033508694207754014,0.9579255421203676,55.55555555555556,0.9523809523646259,0.9876543209876572,7.101981464074925e-05,0.996875795377197,0
157,90.525,0.5555555555555571,0.5611111111111029,0.56111111111111,0.9900990099009949,0.03393416634009795,0.9700886726949502,58.333333333333336,0.9999999999828572,0.9999999999999873,8.2220314652659e-05,0.9994000676021382,0
158,91.08611111111111,0.5611111111111029,0.5583333333333371,0.56111111111111,0.9999999999999873,0.031220731475155434,0.8925186979327917,52.77777777777778,0.9047619047463946,0.9950495049505038,1.1822608030342963e-06,0.9971326812534504,0
159,91.64444444444445,0.5583333333333371,0.4000000000000057,0.5611111111111029,0.9950495049505164,0.03366790303206207,0.9624769041755428,55.55555555555556,0.9523809523646259,0.7128712871287335,3.7296258597052656e-06,0.9991053779897352,0
160,92.04444444444445,0.4000000000000057,0.7027777777777686,0.55972222222222,0.7146401985111792,0.039792633060430266,1.137566846397399,91.66666666666667,1.5714285714016327,1.255583126550857,0.9960125684738159,0.39293425658609205,1
161,92.74722222222222,0.7027777777777686,0.5750000000000028,0.55972222222222,1.255583126550857,0.03124905885414497,0.8933285032838197,55.55555555555556,0.9523809523646259,1.0272952853598105,1.4643292445271072e-07,0.9978286185101908,0
162,93.32222222222222,0.5750000000000028,0.5583333333333371,0.55972222222222,1.0272952853598105,0.033496386971285985,0.9575737105601001,58.333333333333336,0.9999999999828572,0.997518610421847,8.044867718126625e-05,0.9978683340076985,0
163,93.88055555555556,0.5583333333333371,0.4333333333333229,0.55972222222222,0.997518610421847,0.03388602590656617,0.9687124641622356,58.333333333333336,0.9999999999828572,0.7741935483870812,1.773249459802173e-05,0.9995574422285527,0
164,94.31388888888888,0.4333333333333229,0.6722222222222314,0.55972222222222,0.7741935483870812,0.03988038430759148,1.1400754240366073,94.44444444444444,1.619047619019864,1.2009925558312866,0.9962221384048462,0.37523872829243377,1
165,94.98611111111111,0.6722222222222314,0.5527777777777771,0.55972222222222,1.2009925558312866,0.0348092146656415,0.9951040056240936,58.333333333333336,0.9999999999828572,0.9875930521091839,6.968272646190599e-05,0.9988244441549805,0
166,95.53888888888889,0.5527777777777771,0.5666666666666629,0.5583333333333371,0.9900497512437733,0.03399202379053582,0.9717426652150042,58.333333333333336,0.9999999999828572,1.0149253731343146,0.0001281898294109851,0.9993160547870503,0
167,96.10555555555555,0.5666666666666629,0.5666666666666629,0.55972222222222,1.012406947890816,0.0338878286548072,0.9687639999987379,58.333333333333336,0.9999999999828572,1.012406947890816,7.91941347415559e-05,0.9994048343119764,0
168,96.67222222222222,0.5666666666666629,0.5583333333333371,0.5625,1.0074074074074006,0.034324413840607845,0.9812448235783396,58.333333333333336,0.9999999999828572,0.9925925925925994,0.00011149211786687374,0.999290344651758,0
169,97.23055555555555,0.5583333333333371,0.4416666666666629,0.5625,0.9925925925925994,0.034195060496939655,0.9775469512861463,55.55555555555556,0.9523809523646259,0.7851851851851784,2.1408513930509798e-05,0.9980493877007491,0
170,97.67222222222222,0.4416666666666629,0.6805555555555571,0.5625,0.7851851851851784,0.04008354920453071,1.1458833747384078,97.22222222222223,1.6666666666380954,1.2098765432098793,0.9959830045700073,0.35890902998898416,1
171,98.35277777777777,0.6805555555555571,0.5527777777777771,0.5625,1.2098765432098793,0.03398597538321829,0.9715697571385902,58.333333333333336,0.9999999999828572,0.982716049382715,1.051778053806629e-05,0.9996760084333167,0
172,98.90555555555555,0.5527777777777771,0.5527777777777771,0.5583333333333371,0.9900497512437733,0.03367415431595458,0.9626556119602913,55.55555555555556,0.9523809523646259,0.9900497512437733,5.606272316072136e-05,0.9984236105561799,0
173,99.45833333333333,0.5527777777777771,0.5666666666666771,0.5555555555555571,0.994999999999996,0.03389413642277237,0.9689443225147434,58.333333333333336,0.9999999999828572,1.0200000000000158,0.00014705702778883278,0.9991312530331427,0
174,100.025,0.5666666666666771,0.5638888888888829,0.5625,1.007407407407426,0.03465881689930899,0.9908045285703317,58.333333333333336,0.9999999999828572,1.0024691358024584,0.00015054817777127028,0.9997921076607009,0
175,100.58888888888889,0.5638888888888829,0.5555555555555571,0.56111111111111,1.0049504950494963,0.033905512320791045,0.9692695295553126,55.55555555555556,0.9523809523646259,0.9900990099009949,7.991277379915118e-05,0.997852776421907,0
176,101.14444444444445,0.5555555555555571,0.5388888888888914,0.56111111111111,0.9900990099009949,0.031447813783175335,0.8990103845878202,55.55555555555556,0.9523809523646259,0.9603960396039668,3.91092908103019e-06,0.9971336513764885,0
177,101.68333333333334,0.5388888888888914,0.4111111111111114,0.5569444444444471,0.967581047381546,0.03200913377525733,0.9150570486083395,52.77777777777778,0.9047619047463946,0.7381546134663312,5.343628686205193e-07,0.9970406528445244,0
178,102.09444444444445,0.4111111111111114,0.6944444444444429,0.5541666666666671,0.7418546365914787,0.03969822684106605,1.1348680205851096,91.66666666666667,1.5714285714016327,1.2531328320801967,0.9966905117034912,0.4698087633330405,1
179,102.78888888888889,0.6944444444444429,0.5527777777777771,0.5541666666666671,1.2531328320801967,0.033447124885746284,0.9561654369429897,55.55555555555556,0.9523809523646259,0.9974937343358377,1.7629002968533314e-06,0.9993756462904897,0
180,103.34166666666667,0.5527777777777771,0.5555555555555571,0.5541666666666671,0.9974937343358377,0.03521960487431888,1.0068359836203356,58.333333333333336,0.9999999999828572,1.0025062656641623,0.0008745693485252559,0.9990187608214249,0
181,103.89722222222223,0.5555555555555571,0.5638888888888829,0.5541666666666671,1.0025062656641623,0.0333298060167699,0.9528115986684101,58.333333333333336,0.9999999999828572,1.017543859649111,5.296581730362959e-05,0.9995817213416456,0
182,104.46111111111111,0.5638888888888829,0.5388888888888914,0.5555555555555571,1.0149999999999864,0.032986655605948934,0.9430018298580685,55.55555555555556,0.9523809523646259,0.9700000000000017,1.150245952885598e-05,0.9995743326844365,0
183,105.0,0.5388888888888914,0.5527777777777771,0.5555555555555571,0.9700000000000017,0.033910472831545524,0.9694113375268265,58.333333333333336,0.9999999999828572,0.994999999999996,0.00010171679605264217,0.9996521887976761,0
184,105.55277777777778,0.5527777777777771,0.5499999999999972,0.5541666666666671,0.9974937343358377,0.03228950027132599,0.9230719902253962,52.77777777777778,0.9047619047463946,0.9924812030075129,3.710500322995358e-06,0.9988236111144334,0
185,106.10277777777777,0.5499999999999972,0.5611111111111171,0.5527777777777771,0.9949748743718553,0.03379756342422968,0.966183554177737,55.55555555555556,0.9523809523646259,1.015075376884434,9.330906323157251e-05,0.9986778417153723,0
186,106.66388888888889,0.5611111111111171,0.5611111111111029,0.5527777777777771,1.015075376884434,0.03402911569932672,0.9728030254491723,55.55555555555556,0.9523809523646259,1.0150753768844085,9.273646719520912e-05,0.9990640208373294,0
187,107.225,0.5611111111111029,0.5638888888888971,0.5541666666666671,1.0125313283207864,0.03420837292995429,0.9779275187750917,55.55555555555556,0.9523809523646259,1.0175438596491369,0.00016832292021717876,0.9982949139963724,0
188,107.78888888888889,0.5638888888888971,0.5555555555555571,0.55833333333333,1.0099502487562395,0.034502005519169605,0.9863217031460004,58.333333333333336,0.9999999999828572,0.9950248756218992,0.0001665299932938069,0.9994906176299414,0
189,108.34444444444445,0.5555555555555571,0.5555555555555571,0.5555555555555571,1.0,0.034821514437709145,0.9954556237967627,58.333333333333336,0.9999999999828572,1.0,0.0002943116123788059,0.999811058990549,0
190,108.9,0.5555555555555571,0.5638888888888829,0.5555555555555571,1.0,0.034847191864728955,0.9961896739822371,58.333333333333336,0.9999999999828572,1.0149999999999864,0.0007264124578796327,0.9985202228670662,0
191,109.46388888888889,0.5638888888888829,0.5499999999999972,0.55833333333333,1.0099502487562142,0.03475303725889064,0.9934980411396799,61.111111111111114,1.0476190476010885,0.9850746268656724,0.0006835192907601595,0.9985881005133304,0
192,110.01388888888889,0.5499999999999972,0.5694444444444429,0.5555555555555571,0.9899999999999921,0.03398455272437339,0.9715290870594517,55.55555555555556,0.9523809523646259,1.0249999999999941,9.325382416136563e-05,0.9991061519380824,0
193,110.58333333333333,0.5694444444444429,0.45000000000000284,0.55833333333333,1.019900497512441,0.03361929765868774,0.961087404234098,55.55555555555556,0.9523809523646259,0.8059701492537412,6.172576377139194e-06,0.9992881032251817,0
194,111.03333333333333,0.45000000000000284,0.6749999999999972,0.55833333333333,0.8059701492537412,0.04145961458430783,1.1852214691070937,94.44444444444444,1.619047619019864,1.2089552238805992,0.9969955682754517,0.4110128805886162,1
195,111.70833333333333,0.6749999999999972,0.5694444444444429,0.56111111111111,1.2029702970297003,0.03411492694935741,0.9752561436666721,55.55555555555556,0.9523809523646259,1.014851485148514,6.279389708652161e-06,0.9991472503503509,0
196,112.27777777777777,0.5694444444444429,0.5583333333333371,0.5624999999999929,1.0123456790123557,0.03288209874525079,0.9400128238751526,55.55555555555556,0.9523809523646259,0.9925925925926119,2.6310401153750718e-05,0.9971207175119161,0
197,112.83611111111111,0.5583333333333371,0.5777777777777828,0.56111111111111,0.9950495049505038,0.034246740541816416,0.9790243480088726,58.333333333333336,0.9999999999828572,1.0297029702970408,0.00017214934632647783,0.9993317325873807,0
198,113.41388888888889,0.5777777777777828,0.5777777777777686,0.56111111111111,1.0297029702970408,0.03439855081432996,0.9833642049037834,58.333333333333336,0.9999999999828572,1.0297029702970155,0.00020805123494938016,0.9988104415569077,0
199,113.99166666666666,0.5777777777777686,0.5638888888888971,0.5666666666666629,1.0196078431372455,0.0334916377960174,0.9574379441149627,58.333333333333336,0.9999999999828572,0.9950980392157074,2.5354982426506467e-05,0.9994526870952791,0
200,114.55555555555556,0.5638888888888971,0.5666666666666629,0.56666666666667,0.995098039215695,0.03545886259864511,1.013675733443492,58.333333333333336,0.9999999999828572,0.9999999999999875,0.0006507727666758001,0.9987841741318262,0
201,115.12222222222222,0.5666666666666629,0.5222222222222257,0.5680555555555529,0.9975550122249369,0.03257611994320685,0.9312656937122155,55.55555555555556,0.9523809523646259,0.9193154034229933,3.5534455946617527e-06,0.9990711042208547,0
202,115.64444444444445,0.5222222222222257,0.62222222222222,0.5680555555555529,0.9193154034229933,0.03666959506016528,1.0482873939986221,130.55555555555554,2.2380952380568706,1.0953545232273851,0.9929159879684448,0.8872025310444807,1
203,116.26666666666667,0.62222222222222,0.5583333333333371,0.5680555555555529,1.0953545232273851,0.032801735012105135,0.937715435855104,52.77777777777778,0.9047619047463946,0.9828850855745834,5.705774128728081e-07,0.9994809604477127,0
204,116.825,0.5583333333333371,0.5916666666666686,0.5680555555555529,0.9828850855745834,0.03409345031663735,0.9746421831549994,55.55555555555556,0.9523809523646259,1.0415647921760474,8.33535596029833e-05,0.9986364889741361,0
205,117.41666666666667,0.5916666666666686,0.5888888888888886,0.5680555555555529,1.0415647921760474,0.03495682998728763,0.9993239398935829,61.111111111111114,1.0476190476010885,1.0366748166259212,0.0005928559694439173,0.9985002499348632,0
206,118.00555555555556,0.5888888888888886,0.38333333333332575,0.5722222222222157,1.029126213592244,0.034840153719835405,0.9959884719085044,58.333333333333336,0.9999999999828572,0.6699029126213536,1.928778874571435e-05,0.998822228019443,0
207,118.38888888888889,0.38333333333332575,0.75833333333334,0.5722222222222157,0.6699029126213536,0.040826875434428526,1.1671331189788856,91.66666666666667,1.5714285714016327,1.3252427184466284,0.9951134324073792,0.34333229774884644,1
208,119.14722222222223,0.75833333333334,0.5083333333333258,0.5722222222222157,1.3252427184466284,0.030641049428137314,0.875947110997638,50.0,0.8571428571281633,0.8883495145631036,4.881887116781058e-10,0.9952298321122397,0
209,119.65555555555555,0.5083333333333258,0.6666666666666714,0.56527777777778,0.8992628992628824,0.038610092628121796,1.1037611218987042,102.77777777777777,1.7619047618745578,1.1793611793611831,0.9924370646476746,0.9156595362451381,1
210,120.32222222222222,0.6666666666666714,0.5833333333333286,0.5777777777777757,1.1538461538461662,0.035688202688984254,1.0202319641639723,58.333333333333336,0.9999999999828572,1.00961538461538,0.00011425773845985532,0.9989597502141072,0
211,120.90555555555555,0.5833333333333286,0.4027777777777857,0.5861111111111086,0.9952606635071052,0.03371059398068162,0.9636973262500788,55.55555555555556,0.9523809523646259,0.6872037914692107,1.0403251735624508e-06,0.9992132943235966,0
212,121.30833333333334,0.4027777777777857,0.7249999999999943,0.5861111111111086,0.6872037914692107,0.04093019595750329,1.170086781316932,91.66666666666667,1.5714285714016327,1.2369668246445453,0.9955280423164368,0.3226115785734255,1
213,122.03333333333333,0.7249999999999943,0.5,0.5861111111111086,1.2369668246445453,0.031238913572630193,0.893038476336343,52.77777777777778,0.9047619047463946,0.8530805687203828,1.2810107419269912e-09,0.9983760017787103,0
214,122.53333333333333,0.5,0.6638888888888914,0.5861111111111086,0.8530805687203828,0.037609359848628614,1.0751528005964732,97.22222222222223,1.6666666666380954,1.132701421800957,0.9927750825881958,0.91226784060111,1
215,123.19722222222222,0.6638888888888914,0.5750000000000028,0.5861111111111086,1.132701421800957,0.03145586823407374,0.8992406401804584,52.77777777777778,0.9047619047463946,0.9810426540284451,2.467599102828899e-08,0.9987698771674449,0
216,123.77222222222223,0.5750000000000028,0.40833333333333144,0.5791666666666657,0.9928057553956899,0.034200957826516734,0.9777155404468328,58.333333333333336,0.9999999999828572,0.7050359712230194,7.368769274762599e-06,0.9995360310968655,0
217,124.18055555555556,0.40833333333333144,0.7694444444444457,0.5791666666666657,0.7050359712230194,0.040665434497096295,1.162517946675973,88.88888888888889,1.5238095237834013,1.3285371702637934,0.9962376356124878,0.375202899036297,1
218,124.95,0.7694444444444457,0.3972222222222257,0.5791666666666657,1.3285371702637934,0.03294014300406465,0.941672156755942,55.55555555555556,0.9523809523646259,0.6858513189448513,5.03816410812874e-09,0.9995301467138442,0
219,125.34722222222223,0.3972222222222257,0.74166666666666,0.5791666666666657,0.6858513189448513,0.04807065022921919,1.3742136114109662,86.11111111111111,1.47619047616517,1.280575539568336,0.9975244402885437,0.26033064216002877,1
220,126.08888888888889,0.74166666666666,0.3972222222222257,0.5791666666666657,1.280575539568336,0.031281391885745045,0.89425281972038,52.77777777777778,0.9047619047463946,0.6858513189448513,3.858717234628273e-10,0.9979885783953488,0
221,126.48611111111111,0.3972222222222257,0.7999999999999972,0.5375000000000014,0.7390180878553017,0.04695519860903561,1.3423257798127375,80.55555555555556,1.3809523809287076,1.4883720930232467,0.9981654286384583,0.26404736218065455,1
222,127.28611111111111,0.7999999999999972,0.4611111111111086,0.6194444444444471,1.2914798206277924,0.03291264611210647,0.940886092847502,55.55555555555556,0.9523809523646259,0.7443946188340734,1.297147167456103e-09,0.9993203167692828,0
223,127.74722222222222,0.4611111111111086,0.7138888888888886,0.5375000000000014,0.8578811369508974,0.03675589803833407,1.0507545694318507,72.22222222222223,1.2380952380740138,1.3281653746769986,0.9664774537086487,0.9604969686623663,1
224,128.4611111111111,0.7138888888888886,0.5694444444444571,0.6194444444444471,1.152466367712999,0.032391645113300664,0.925992042929233,55.55555555555556,0.9523809523646259,0.9192825112107788,1.8091913744910926e-08,0.9992467063487952,0
225,129.03055555555557,0.5694444444444571,0.3972222222222115,0.57222222222223,0.9951456310679698,0.03303328069024273,0.9443347185367985,55.55555555555556,0.9523809523646259,0.6941747572815252,1.6390470136684598e-06,0.9977192103340815,0
226,129.42777777777778,0.3972222222222115,0.7333333333333201,0.5152777777777828,0.7708894878705915,0.03963610986252059,1.1330922593459782,91.66666666666667,1.5714285714016327,1.4231805929918742,0.9964433312416077,0.4386249199219584,1
227,130.1611111111111,0.7333333333333201,0.42777777777780557,0.6416666666666728,1.1428571428571113,0.030777982791486965,0.8798616761402788,52.77777777777778,0.9047619047463946,0.6666666666667036,5.871565456061489e-10,0.991798145618447,0
228,130.5888888888889,0.42777777777780557,0.6916666666666629,0.5152777777777828,0.8301886792453288,0.03874450369990246,1.1076035813512923,80.55555555555556,1.3809523809287076,1.3423180592991708,0.8997974395751953,0.9855541542074842,1
229,131.28055555555557,0.6916666666666629,0.6027777777777601,0.63055555555556,1.0969162995594577,0.035184595698361736,1.0058351632466733,61.111111111111114,1.0476190476010885,0.9559471365638419,1.0010790902015287e-05,0.9975682455115669,0
230,131.88333333333333,0.6027777777777601,0.4194444444444514,0.5861111111111086,1.0284360189573203,0.0342975691976305,0.9804774057548439,55.55555555555556,0.9523809523646259,0.7156398104265552,2.779677515718504e-06,0.9983060090484592,0
231,132.30277777777778,0.4194444444444514,0.7305555555555543,0.5861111111111086,0.7156398104265552,0.04023625505033633,1.1502488337211232,97.22222222222223,1.6666666666380954,1.246445497630335,0.996015727519989,0.37427539483726996,1
232,133.03333333333333,0.7305555555555543,0.5250000000000057,0.5861111111111086,1.246445497630335,0.03342962602773746,0.9556651905609416,58.333333333333336,0.9999999999828572,0.8957345971564117,4.211136399590032e-07,0.9994906258353979,0
233,133.55833333333334,0.5250000000000057,0.6472222222222115,0.5861111111111086,0.8957345971564117,0.03809330959219237,1.0889876524587416,111.11111111111111,1.9047619047292519,1.1042654028435883,0.9926286935806274,0.9047469252096976,1
234,134.20555555555555,0.6472222222222115,0.4166666666666856,0.5861111111111086,1.1042654028435883,0.03359503898414886,0.9603939124550778,58.333333333333336,0.9999999999828572,0.7109004739336847,7.788364655425539e-07,0.9996075456256568,0
235,134.62222222222223,0.4166666666666856,0.7277777777777601,0.5638888888888829,0.738916256157677,0.04193280466250338,1.1987487304014646,88.88888888888889,1.5238095237834013,1.2906403940886524,0.9971984624862671,0.41932168040650675,1
236,135.35,0.7277777777777601,0.42777777777777715,0.6249999999999858,1.1644444444444426,0.0334981805658132,0.9576249847159706,55.55555555555556,0.9523809523646259,0.684444444444459,9.044451410034071e-09,0.9994384020984728,0
237,135.77777777777777,0.42777777777777715,0.7111111111111086,0.5638888888888829,0.7586206896551794,0.04350332066390198,1.2436456572324817,91.66666666666667,1.5714285714016327,1.2610837438423734,0.9968319535255432,0.3283292879803069,1
238,136.48888888888888,0.7111111111111086,0.5777777777777828,0.6249999999999858,1.1377777777777995,0.034393303814404114,0.9832142069594496,58.333333333333336,0.9999999999828572,0.9244444444444736,7.166648288148281e-07,0.9995827598483906,0
239,137.06666666666666,0.5777777777777828,0.5888888888889028,0.5902777777777715,0.9788235294117837,0.03359553584461334,0.9604081163905354,55.55555555555556,0.9523809523646259,0.9976470588235636,1.1914995411643758e-05,0.9980881480433657,0
240,137.65555555555557,0.5888888888889028,0.44722222222222285,0.5833333333333428,1.009523809523817,0.03290776085525092,0.9407464361872713,55.55555555555556,0.9523809523646259,0.7666666666666553,5.029348244534049e-07,0.9994873209253325,0
241,138.1027777777778,0.44722222222222285,0.7027777777777544,0.5833333333333428,0.7666666666666553,0.037895199268319524,1.0833241987228563,72.22222222222223,1.2380952380740138,1.2047619047618452,0.9769760966300964,0.9481331466991477,1
242,138.80555555555554,0.7027777777777544,0.5833333333333428,0.5833333333333428,1.2047619047618452,0.03418197985460778,0.9771730100839211,58.333333333333336,0.9999999999828572,1.0,4.266576070222072e-06,0.9997310619037549,0
243,139.38888888888889,0.5833333333333428,0.38611111111111995,0.5861111111111228,0.9952606635071053,0.03238631749666096,0.9258397403648252,55.55555555555556,0.9523809523646259,0.6587677725118503,1.9774790871451842e-07,0.9984265867249209,0
244,139.775,0.38611111111111995,0.7611111111110915,0.5805555555555628,0.6650717703349351,0.043612337957983624,1.2467621752885476,83.33333333333333,1.4285714285469386,1.311004784688945,0.9962359070777893,0.33407469844163606,1
245,140.5361111111111,0.7611111111110915,0.40833333333335986,0.5861111111111228,1.2985781990520735,0.0337316248624948,0.964298543914284,55.55555555555556,0.9523809523646259,0.6966824644550077,1.8739735097028642e-08,0.9992467152513996,0
246,140.94444444444446,0.40833333333335986,0.7777777777777715,0.5805555555555628,0.7033492822966876,0.04816676761033985,1.3769613548427555,88.88888888888889,1.5238095237834013,1.3397129186602594,0.9972009658813477,0.25326394047906753,1
247,141.72222222222223,0.7777777777777715,0.42499999999998295,0.5861111111111228,1.3270142180094415,0.035819756005804636,1.0239927279093928,61.111111111111114,1.0476190476010885,0.7251184834122787,6.758452855137875e-06,0.998077245008767,0
248,142.1472222222222,0.42499999999998295,0.7333333333333485,0.5805555555555628,0.7320574162679041,0.04427743716480162,1.265775614436753,80.55555555555556,1.3809523809287076,1.2631578947368525,0.9979546070098877,0.3132466866586311,1
249,142.88055555555556,0.7333333333333485,0.4583333333333428,0.5861111111111228,1.2511848341232237,0.034091697743838544,0.9745920817025824,55.55555555555556,0.9523809523646259,0.7819905213270147,1.0045423692872646e-07,0.9994615206850246,0
250,143.3388888888889,0.4583333333333428,0.7194444444444343,0.5208333333333428,0.8800000000000022,0.035451581706399574,1.0134675918606484,69.44444444444444,1.1904761904557823,1.381333333333289,0.9611244797706604,0.943150012456103,1
251,144.05833333333334,0.7194444444444343,0.6027777777777601,0.6430555555555486,1.1187904967602555,0.03495184242480338,0.9991813585841782,61.111111111111114,1.0476190476010885,0.9373650107991187,2.0293134639359778e-06,0.9983314175123152,0
252,144.6611111111111,0.6027777777777601,0.4166666666666856,0.5930555555555515,1.016393442622928,0.034601195263384316,0.9891572773677398,58.333333333333336,0.9999999999828572,0.7025761124122148,6.4066166487464216e-06,0.9991872795745811,0
253,145.07777777777778,0.4166666666666856,0.7527777777777658,0.5305555555555515,0.7853403141361674,0.041428153079165024,1.1843220673225006,94.44444444444444,1.619047619019864,1.4188481675392555,0.9959403276443481,0.34928876453293883,1
254,145.83055555555555,0.7527777777777658,0.40277777777777146,0.6611111111110972,1.1386554621848797,0.03446050908363407,0.9851354290626242,55.55555555555556,0.9523809523646259,0.6092436974789949,9.33776700406952e-09,0.9983384498284477,0
255,146.23333333333332,0.40277777777777146,0.7666666666666799,0.5305555555555515,0.7591623036649154,0.04768393650342155,1.3631584818635911,86.11111111111111,1.47619047616517,1.4450261780105074,0.9979639053344727,0.3064845114373712,1
256,147.0,0.7666666666666799,0.42222222222221717,0.6611111111110972,1.159663865546263,0.0348063171231571,0.9950211724961305,55.55555555555556,0.9523809523646259,0.6386554621848798,1.1943231292832479e-08,0.9983576243502421,0
257,147.42222222222222,0.42222222222221717,0.7694444444444457,0.5305555555555515,0.795811518324604,0.04612520094883914,1.3185983270605393,86.11111111111111,1.47619047616517,1.4502617801047257,0.9978488683700562,0.3486018865466306,1
258,148.19166666666666,0.7694444444444457,0.4611111111111086,0.6611111111110972,1.1638655462185137,0.03343769366857351,0.9558958232192477,55.55555555555556,0.9523809523646259,0.6974789915966495,2.779097840743816e-09,0.9978892809367885,0
259,148.65277777777777,0.4611111111111086,0.375,0.5319444444444343,0.8668407310705079,0.03586257314514218,1.0252167574450606,75.0,1.285714285692245,0.7049608355091518,0.8863266706466675,0.9458319204956307,1
260,149.02777777777777,0.375,0.8833333333333258,0.5319444444444343,0.7049608355091518,0.04278547458070267,1.2231243234513356,94.44444444444444,1.619047619019864,1.6605744125326545,0.9956443309783936,0.409105558707477,1
261,149.9111111111111,0.8833333333333258,0.4194444444444514,0.5319444444444343,1.6605744125326545,0.034710061017733246,0.992269463300933,55.55555555555556,0.9523809523646259,0.7885117493472865,6.410959940694738e-08,0.9977926048787762,0
262,150.33055555555555,0.4194444444444514,0.7666666666666799,0.4416666666666629,0.9496855345912188,0.033314214527793914,0.9523658789564695,77.77777777777777,1.3333333333104762,1.7358490566038185,0.7665960192680359,0.9485618051821063,1
263,151.09722222222223,0.7666666666666799,0.6027777777777601,0.6069444444444372,1.2631578947368791,0.03414522934449691,0.9761224095411817,58.333333333333336,0.9999999999828572,0.9931350114416303,4.124761687762657e-07,0.9996432677070248,0
264,151.7,0.6027777777777601,0.4000000000000057,0.5319444444444343,1.1331592689294923,0.034400752851991526,0.9834271553759101,55.55555555555556,0.9523809523646259,0.7519582245431059,1.0619313798088115e-05,0.9990189229107254,0
265,152.1,0.4000000000000057,0.7694444444444457,0.5319444444444343,0.7519582245431059,0.04124488844901754,1.1790830129714989,83.33333333333333,1.4285714285469386,1.4464751958224842,0.9971569776535034,0.431363445296999,1
266,152.86944444444444,0.7694444444444457,0.40833333333333144,0.5319444444444343,1.4464751958224842,0.03249563940461929,0.9289649665314235,55.55555555555556,0.9523809523646259,0.7676240208877395,2.4111361796030906e-08,0.9991824207472955,0
267,153.27777777777777,0.40833333333333144,0.7750000000000057,0.5319444444444343,0.7676240208877395,0.04700772946191379,1.3438274989012042,83.33333333333333,1.4285714285469386,1.4569190600522577,0.9980935454368591,0.2858382031983036,1
268,154.05277777777778,0.7750000000000057,0.61388888888888,0.5319444444444343,1.4569190600522577,0.0345192499680289,0.9868146766387809,58.333333333333336,0.9999999999828572,1.1540469973890393,3.5030836443183944e-05,0.9993892728285156,0
269,154.66666666666666,0.61388888888888,0.4000000000000057,0.6083333333333201,1.0091324200913316,0.03300793406546207,0.9436101251183442,58.333333333333336,0.9999999999828572,0.6575342465753662,3.225512728022295e-07,0.9995958551288411,0
270,155.06666666666666,0.4000000000000057,0.7638888888888857,0.6083333333333201,0.6575342465753662,0.040570961597819304,1.1598172146601413,88.88888888888889,1.5238095237834013,1.2557077625570998,0.9953495860099792,0.3745727490021196,1
271,155.83055555555555,0.7638888888888857,0.4194444444444514,0.6083333333333201,1.2557077625570998,0.03295068242023592,0.9419734509778803,55.55555555555556,0.9523809523646259,0.6894977168950036,6.636958094219381e-09,0.9973940999079185,0
272,156.25,0.4194444444444514,0.7638888888888857,0.6083333333333201,0.6894977168950036,0.04631216300886272,1.3239430812187776,83.33333333333333,1.4285714285469386,1.2557077625570998,0.9972829818725586,0.2774533157322138,1
273,157.01388888888889,0.7638888888888857,0.4166666666666572,0.6083333333333201,1.2557077625570998,0.03451535778409205,0.9867034093245542,58.333333333333336,0.9999999999828572,0.6849315068493145,1.4202949216723937e-07,0.9985612769415331,0
274,157.43055555555554,0.4166666666666572,0.6944444444444571,0.5166666666666657,0.806451612903209,0.03818408103987202,1.0915825696968908,66.66666666666667,1.1428571428375511,1.3440860215054033,0.996132493019104,0.24482686677569448,1
275,158.125,0.6944444444444571,0.61388888888888,0.6541666666666686,1.061571125265409,0.032663581588257135,0.9337659923878394,55.55555555555556,0.9523809523646259,0.938428874734591,3.505627077515783e-08,0.9980952430864244,0
276,158.73888888888888,0.61388888888888,0.4166666666666856,0.61388888888888,1.0,0.035245961016306546,1.0075894364837985,58.333333333333336,0.9999999999828572,0.6787330316742488,4.730727141577518e-06,0.9994808840905518,0
277,159.15555555555557,0.4166666666666856,0.7361111111111143,0.61388888888888,0.6787330316742488,0.040028740230577356,1.144316530152886,91.66666666666667,1.5714285714016327,1.1990950226244568,0.9957517385482788,0.3501784651081935,1
278,159.89166666666668,0.7361111111111143,0.5027777777777658,0.61388888888888,1.1990950226244568,0.03470875938355197,0.9922322529990032,55.55555555555556,0.9523809523646259,0.81900452488687,2.1670503258519602e-07,0.9983300481980644,0
279,160.39444444444445,0.5027777777777658,0.6888888888888971,0.5583333333333229,0.9004975124378063,0.039058918938743255,1.116591887080251,88.88888888888889,1.5238095237834013,1.233830845771182,0.9919742941856384,0.9035428508041011,1
280,161.08333333333334,0.6888888888888971,0.6055555555555543,0.6513888888888886,1.0575692963752796,0.03627103563458595,1.0368936270124138,61.111111111111114,1.0476190476010885,0.9296375266524506,7.46765408621286e-06,0.9988055636726572,0
281,161.6888888888889,0.6055555555555543,0.38611111111109153,0.6097222222222172,0.9931662870159514,0.03377074494634213,0.9654168843454243,55.55555555555556,0.9523809523646259,0.6332574031890392,2.359831370313259e-07,0.9995070912659745,0
282,162.075,0.38611111111109153,0.7694444444444457,0.6097222222222172,0.6332574031890392,0.04310111110369679,1.2321475424859991,88.88888888888889,1.5238095237834013,1.2619589977221082,0.9949970245361328,0.3519605080705851,1
283,162.84444444444443,0.7694444444444457,0.4138888888888914,0.6097222222222172,1.2619589977221082,0.033313153867927894,0.9523355574771882,55.55555555555556,0.9523809523646259,0.6788154897494403,7.155623649168774e-09,0.9978330481977932,0
284,163.25833333333333,0.4138888888888914,0.7833333333333314,0.6097222222222172,0.6788154897494403,0.046810797213089804,1.3381977232362352,80.55555555555556,1.3809523809287076,1.2847380410022855,0.9974876642227173,0.27470267723665653,1
285,164.04166666666666,0.7833333333333314,0.4138888888888914,0.6097222222222172,1.2847380410022855,0.03195944714292878,0.9136366383137943,55.55555555555556,0.9523809523646259,0.6788154897494403,9.41512867669303e-10,0.9973570323240661,0
286,164.45555555555555,0.4138888888888914,0.7694444444444457,0.55416666666666,0.746867167919813,0.045363131531362295,1.2968127643243783,80.55555555555556,1.3809523809287076,1.388471177944881,0.9981831908226013,0.3231966949904405,1
287,165.225,0.7694444444444457,0.46944444444446276,0.6472222222222257,1.1888412017167338,0.03637027491967135,1.0397306174775052,61.111111111111114,1.0476190476010885,0.7253218884120416,2.218282816102146e-06,0.9983324273126474,0
288,165.69444444444446,0.46944444444446276,0.7194444444444343,0.55416666666666,0.8471177944862587,0.03435682548681315,0.9821713873999477,69.44444444444444,1.1904761904557823,1.298245614035085,0.9843201637268066,0.9435803781489527,1
289,166.4138888888889,0.7194444444444343,0.5861111111111086,0.6472222222222257,1.1115879828325965,0.03489880530233286,0.9976651665780056,58.333333333333336,0.9999999999828572,0.9055793991416221,4.965088464814471e-07,0.9994470048181758,0
290,167.0,0.5861111111111086,0.40555555555556566,0.5958333333333314,0.9836829836829826,0.03484075067167735,0.9960055371935098,58.333333333333336,0.9999999999828572,0.6806526806526998,6.988519089645706e-06,0.999580488715053,0
291,167.40555555555557,0.40555555555556566,0.799999999999983,0.5277777777777857,0.7684210526315866,0.042609294357385544,1.2180877936813126,88.88888888888889,1.5238095237834013,1.5157894736841555,0.9969490170478821,0.3706036543736541,1
292,168.20555555555555,0.799999999999983,0.5972222222222285,0.6527777777777715,1.2255319148936028,0.03593828043328478,1.0273810299346668,58.333333333333336,0.9999999999828572,0.9148936170212951,3.434928999013209e-07,0.9985930878195125,0
293,168.80277777777778,0.5972222222222285,0.34444444444443434,0.5916666666666686,1.0093896713615098,0.035235831720192394,1.007299866516933,61.111111111111114,1.0476190476010885,0.5821596244131266,0.9832068681716919,0.33885988716599325,1
294,169.1472222222222,0.34444444444443434,0.825000000000017,0.5916666666666686,0.5821596244131266,0.04358100126676783,1.245866341606249,102.77777777777777,1.7619047618745578,1.394366197183123,0.9900252819061279,0.3555405607815756,1
295,169.97222222222223,0.825000000000017,0.5944444444444343,0.5916666666666686,1.394366197183123,0.0327863603623186,0.9372759150059665,55.55555555555556,0.9523809523646259,1.0046948356807308,8.473285184606993e-09,0.9989116868918588,0
296,170.56666666666666,0.5944444444444343,0.5722222222222229,0.5958333333333314,0.9976689976689839,0.034271462599013716,0.9797310866808193,58.333333333333336,0.9999999999828572,0.9603729603729645,1.4237506547942758e-05,0.9990670401653812,0
297,171.13888888888889,0.5722222222222229,0.40555555555556566,0.5902777777777715,0.9694117647058937,0.03232760181389255,0.9241612132369645,55.55555555555556,0.9523809523646259,0.6870588235294363,1.901793780234584e-07,0.9991809277219286,0
298,171.54444444444445,0.40555555555556566,0.7611111111110915,0.5902777777777715,0.6870588235294363,0.044456075900403735,1.270882426614643,86.11111111111111,1.47619047616517,1.289411764705863,0.9965829253196716,0.29259882889837485,1
299,172.30555555555554,0.7611111111110915,0.5777777777777828,0.5902777777777715,1.289411764705863,0.035575832887633024,1.0170196067318995,61.111111111111114,1.0476190476010885,0.9788235294117837,2.3917235012049787e-05,0.9987626747351032,0
300,172.88333333333333,0.5777777777777828,0.4138888888888914,0.5861111111111086,0.9857819905213399,0.033514161267527334,0.958081830997657,52.77777777777778,0.9047619047463946,0.7061611374407657,1.0482136758582783e-06,0.9963186215850437,0
301,173.29722222222222,0.4138888888888914,0.7249999999999943,0.5861111111111086,0.7061611374407657,0.04212802110623692,1.2043294557062119,91.66666666666667,1.5714285714016327,1.2369668246445453,0.9964780211448669,0.3480257564155461,1
302,174.0222222222222,0.7249999999999943,0.6027777777777885,0.5861111111111086,1.2369668246445453,0.03257090718743928,0.9311166747184096,55.55555555555556,0.9523809523646259,1.0284360189573687,1.4560714589606505e-07,0.9988230486060836,0
303,174.625,0.6027777777777885,0.4333333333333371,0.5861111111111086,1.0284360189573687,0.03560438447860149,1.017835821714414,58.333333333333336,0.9999999999828572,0.7393364928910049,4.004596848972142e-05,0.9987204507058779,0
304,175.05833333333334,0.4333333333333371,0.7416666666666742,0.5861111111111086,0.7393364928910049,0.039760825684935996,1.1366575570880375,91.66666666666667,1.5714285714016327,1.265402843601914,0.9960456490516663,0.3299269107825512,1
305,175.8,0.7416666666666742,0.3972222222222115,0.5861111111111086,1.265402843601914,0.03358386584145369,0.9600745016565817,58.333333333333336,0.9999999999828572,0.6777251184833969,7.409008873082712e-08,0.9994463044722858,0
306,176.19722222222222,0.3972222222222115,0.75,0.5750000000000028,0.6908212560386252,0.04683261419494651,1.3388214134356486,80.55555555555556,1.3809523809287076,1.30434782608695,0.9979937076568604,0.329282220094991,1
307,176.94722222222222,0.75,0.5999999999999943,0.5902777777777857,1.2705882352941007,0.0331124274622122,0.9465973168337022,55.55555555555556,0.9523809523646259,1.016470588235271,1.0506991543479671e-07,0.9992874765503901,0
308,177.54722222222222,0.5999999999999943,0.5694444444444571,0.6013888888888914,0.9976905311778155,0.03551306115139494,1.0152251276903441,58.333333333333336,0.9999999999828572,0.9468822170900864,4.829177851206623e-05,0.9989712831014816,0
309,178.11666666666667,0.5694444444444571,0.5861111111111086,0.5888888888888886,0.9669811320754936,0.03380263295507254,0.9663284787471886,58.333333333333336,0.9999999999828572,0.9952830188679208,1.4982653738115914e-05,0.9995801710602812,0
310,178.70277777777778,0.5861111111111086,0.5916666666666686,0.5930555555555515,0.9882903981264662,0.033125220188398266,0.9469630272696568,55.55555555555556,0.9523809523646259,0.9976580796253028,5.334919023880502e-06,0.9981178678699949,0
311,179.29444444444445,0.5916666666666686,0.5749999999999886,0.5958333333333314,0.9930069930069994,0.03265915800638998,0.933639533802735,55.55555555555556,0.9523809523646259,0.965034965034949,1.4303579973784508e-06,0.998947126180049,0
312,179.86944444444444,0.5749999999999886,0.40555555555556566,0.5888888888888886,0.9764150943396038,0.034588085185217145,0.9887824946723097,58.333333333333336,0.9999999999828572,0.6886792452830364,7.5850934990739916e-06,0.9995626195711863,0
313,180.275,0.40555555555556566,0.7249999999999943,0.5805555555555486,0.6985645933014611,0.04212659190866616,1.2042885987020782,83.33333333333333,1.4285714285469386,1.2488038277512012,0.9960522055625916,0.29344795721868966,1
314,181.0,0.7249999999999943,0.5,0.5888888888888886,1.231132075471689,0.03475520518133253,0.9935600163472945,58.333333333333336,0.9999999999828572,0.8490566037735854,1.4003907153892214e-06,0.9998530594039021,0
315,181.5,0.5,0.6611111111110972,0.5805555555555486,0.8612440191387662,0.03881163525161052,1.1095226960641673,97.22222222222223,1.6666666666380954,1.1387559808612338,0.9924690127372742,0.8999530168076152,1
316,182.1611111111111,0.6611111111110972,0.580555555555577,0.5888888888888886,1.1226415094339393,0.032706514755149615,0.9349933388465058,52.77777777777778,0.9047619047463946,0.9858490566038106,1.5983339096692362e-07,0.9987615170278041,0
317,182.74166666666667,0.580555555555577,0.5527777777777771,0.5833333333333428,0.9952380952381159,0.03370282152627423,0.9634751321963313,58.333333333333336,0.9999999999828572,0.9476190476190312,9.845443855738267e-06,0.9997122799982998,0
318,183.29444444444445,0.5527777777777771,0.44999999999998863,0.5777777777777828,0.9567307692307597,0.03468449193764612,0.9915385104696433,58.333333333333336,0.9999999999828572,0.7788461538461273,3.4612359741004184e-05,0.9987358224869929,0
319,183.74444444444444,0.44999999999998863,0.6916666666666629,0.5777777777777828,0.7788461538461273,0.03663468562653208,1.0472894249959848,77.77777777777777,1.3333333333104762,1.1971153846153675,0.979800820350647,0.9372401049432477,1
320,184.4361111111111,0.6916666666666629,0.5611111111111313,0.5777777777777828,1.1971153846153675,0.03335244801314004,0.9534588738655001,55.55555555555556,0.9523809523646259,0.9711538461538727,7.693121233387501e-07,0.99890233892304,0
321,184.99722222222223,0.5611111111111313,0.5749999999999886,0.56805555555556,0.9877750611247222,0.03506879967486623,1.0025248591239706,58.333333333333336,0.9999999999828572,1.0122249388752778,0.0002936560194939375,0.9994498500999061,0
322,185.57222222222222,0.5749999999999886,0.4000000000000057,0.56805555555556,1.0122249388752778,0.03398981448395906,0.9716795069436871,55.55555555555556,0.9523809523646259,0.7041564792176085,3.323408691358054e-06,0.9990255254810083,0
323,185.97222222222223,0.4000000000000057,0.5305555555555372,0.56805555555556,0.7041564792176085,0.04537373107073372,1.2971157773106692,88.88888888888889,1.5238095237834013,0.9339853300733101,0.9975321292877197,0.2731937054100053,1
324,186.50277777777777,0.5305555555555372,0.6722222222222456,0.5569444444444542,0.952618453865287,0.03364472328372523,0.9618142560623663,58.333333333333336,0.9999999999828572,1.2069825436409185,0.00031598261557519436,0.9989986365033829,0
325,187.175,0.6722222222222456,0.5777777777777544,0.56805555555556,1.1833740831296162,0.03327352837772337,0.9512027688059672,58.333333333333336,0.9999999999828572,1.0171149144253788,6.3094516917772125e-06,0.9992407205034723,0
326,187.75277777777777,0.5777777777777544,0.580555555555577,0.56805555555556,1.0171149144253788,0.03478247711324472,0.9943396492389758,58.333333333333336,0.9999999999828572,1.02200488997558,0.00018139318854082376,0.9993560627959281,0
327,188.33333333333334,0.580555555555577,0.5833333333333144,0.56805555555556,1.02200488997558,0.034908176640070065,0.9979330685059844,58.333333333333336,0.9999999999828572,1.026894865525631,0.00024621805641800165,0.9990400057316403,0
328,188.91666666666666,0.5833333333333144,0.5777777777777828,0.5763888888888715,1.012048192771082,0.03357184368295293,0.9597308197265161,55.55555555555556,0.9523809523646259,1.0024096385542558,2.6758409148897044e-05,0.9974834960149345,0
329,189.49444444444444,0.5777777777777828,0.3944444444444457,0.5777777777777686,1.0000000000000246,0.034386541956284745,0.9830209031988024,58.333333333333336,0.9999999999828572,0.6826923076923207,7.81091057433514e-06,0.999648909350239,0
330,189.88888888888889,0.3944444444444457,0.7277777777777885,0.5763888888888715,0.6843373493976131,0.04214988284755431,1.204954425461026,80.55555555555556,1.3809523809287076,1.2626506024096953,0.9966513514518738,0.36939608710448935,1
331,190.61666666666667,0.7277777777777885,0.48611111111111427,0.5777777777777686,1.2596153846154232,0.031858854485067235,0.9107609584762596,52.77777777777778,0.9047619047463946,0.8413461538461726,3.6054446095334924e-09,0.9982064947854773,0
332,191.1027777777778,0.48611111111111427,0.6666666666666572,0.5777777777777686,0.8413461538461726,0.04299335988438521,1.2290672181817088,94.44444444444444,1.619047619019864,1.1538461538461557,0.9967495203018188,0.3704386257474926,1
333,191.76944444444445,0.6666666666666572,0.5944444444444343,0.5791666666666799,1.1510791366906048,0.035697697960098154,1.0205034090216254,58.333333333333336,0.9999999999828572,1.026378896882453,9.992908599087968e-05,0.9991874976337087,0
334,192.36388888888888,0.5944444444444343,0.40555555555556566,0.5819444444444457,1.021479713603799,0.03482232095641602,0.9954786800479172,58.333333333333336,0.9999999999828572,0.6968973747016864,2.198296715505421e-05,0.9980683498499887,0
335,192.76944444444445,0.40555555555556566,0.7416666666666742,0.5791666666666799,0.7002398081534786,0.04055842390162386,1.1594587948616706,91.66666666666667,1.5714285714016327,1.2805755395683291,0.9960732460021973,0.4205664759276728,1
336,193.51111111111112,0.7416666666666742,0.4111111111110972,0.5819444444444457,1.2744630071599148,0.03245468399876791,0.9277941590654654,55.55555555555556,0.9523809523646259,0.7064439140811202,6.560185283888131e-09,0.9988815764627437,0
337,193.92222222222222,0.4111111111110972,0.7416666666666742,0.5805555555555486,0.7081339712918505,0.046355201588042,1.3251734411378122,80.55555555555556,1.3809523809287076,1.2775119617225164,0.9981733560562134,0.32047419786873116,1
338,194.6638888888889,0.7416666666666742,0.5833333333333428,0.5861111111111086,1.265402843601914,0.03458864378746831,0.9887984636432567,58.333333333333336,0.9999999999828572,0.9952606635071295,2.9613051992782857e-06,0.9995498408738803,0
339,195.24722222222223,0.5833333333333428,0.38611111111109153,0.5888888888888886,0.9905660377358657,0.02763460081038008,0.7900006427716187,47.22222222222222,0.809523809509932,0.6556603773584577,3.4002663795718036e-08,0.9765514432898516,0
340,195.63333333333333,0.38611111111109153,0.7861111111111256,0.5888888888888886,0.6556603773584577,0.04502063961639764,1.2870218201807406,91.66666666666667,1.5714285714016327,1.334905660377384,0.9956954717636108,0.3141195704962606,1
341,196.41944444444445,0.7861111111111256,0.48333333333332007,0.5888888888888886,1.334905660377384,0.03488922669228525,0.9973913392791642,58.333333333333336,0.9999999999828572,0.82075471698111,4.257664443230169e-07,0.9997567483973286,0
342,196.90277777777777,0.48333333333332007,0.6611111111111256,0.5888888888888886,0.82075471698111,0.03848077496261515,1.100064269551425,88.88888888888889,1.5238095237834013,1.1226415094339874,0.9915950894355774,0.9155676092502756,1
343,197.5638888888889,0.6611111111111256,0.5861111111111086,0.5888888888888886,1.1226415094339874,0.03230400962943886,0.9234867746586515,55.55555555555556,0.9523809523646259,0.9952830188679208,3.596449573706195e-07,0.9987663039756682,0
344,198.15,0.5861111111111086,0.5722222222222229,0.5847222222222257,1.0023752969121038,0.032212710428922514,0.9208767703532753,55.55555555555556,0.9523809523646259,0.9786223277909691,1.753038873175683e-06,0.9986638898105686,0
345,198.72222222222223,0.5722222222222229,0.47222222222222854,0.5847222222222257,0.9786223277909691,0.03488097663213508,0.9971554917318716,58.333333333333336,0.9999999999828572,0.8076009501187709,4.248570621712133e-05,0.9982380697735944,0
346,199.19444444444446,0.47222222222222854,0.6805555555555429,0.5777777777777828,0.8173076923076961,0.03888470306631893,1.111611512942024,83.33333333333333,1.4285714285469386,1.1778846153845832,0.9889772534370422,0.9382775234469518,1
347,199.875,0.6805555555555429,0.5694444444444571,0.5847222222222257,1.1638954869358384,0.03376608262933481,0.9652836009498051,55.55555555555556,0.9523809523646259,0.9738717339667616,3.055947900065803e-06,0.9973766068862844,0
348,200.44444444444446,0.5694444444444571,0.5722222222222229,0.5777777777777828,0.9855769230769363,0.034032900812815216,0.972911231900548,55.55555555555556,0.9523809523646259,0.9903846153846079,3.0080542273935862e-05,0.9984523924027086,0
349,201.01666666666668,0.5722222222222229,0.46944444444443434,0.5722222222222229,1.0,0.03427723433371517,0.9798960854139417,58.333333333333336,0.9999999999828572,0.8203883495145445,1.8565411664894782e-05,0.999638303533984,0
350,201.48611111111111,0.46944444444443434,0.6916666666666629,0.5722222222222229,0.8203883495145445,0.0394407419383757,1.1275072036141998,88.88888888888889,1.5238095237834013,1.208737864077662,0.9897977113723755,0.9217527902208571,1
351,202.17777777777778,0.6916666666666629,0.5833333333333428,0.5722222222222229,1.208737864077662,0.03557504554688118,1.0169970987281,61.111111111111114,1.0476190476010885,1.0194174757281709,0.0004227064782753587,0.9973696283000271,0
352,202.76111111111112,0.5833333333333428,0.40277777777777146,0.5777777777777828,1.0096153846153921,0.03403306885602635,0.972916035814515,55.55555555555556,0.9523809523646259,0.6971153846153676,2.9799605272273766e-06,0.9984074708525145,0
353,203.1638888888889,0.40277777777777146,0.7472222222222058,0.5722222222222229,0.7038834951456192,0.040175490660422926,1.1485117394378148,91.66666666666667,1.5714285714016327,1.3058252427184165,0.9958921670913696,0.454475813740016,1
354,203.9111111111111,0.7472222222222058,0.4138888888888914,0.5722222222222229,1.3058252427184165,0.03382524664393181,0.9669749447069048,58.333333333333336,0.9999999999828572,0.72330097087379,1.7856535805549356e-07,0.9997051889593539,0
355,204.325,0.4138888888888914,0.6916666666666913,0.57083333333334,0.7250608272506043,0.043582433991012935,1.2459072994287381,69.44444444444444,1.1904761904557823,1.2116788321168175,0.9973095655441284,0.2010109260111032,1
356,205.01666666666668,0.6916666666666913,0.5999999999999943,0.5777777777777828,1.1971153846154168,0.034525367084113745,0.9869895489183588,58.333333333333336,0.9999999999828572,1.0384615384615195,3.9507634937763214e-05,0.9974485087381136,0
357,205.61666666666667,0.5999999999999943,0.5888888888888744,0.5777777777777828,1.0384615384615195,0.037684645764836336,1.0773050271693794,61.111111111111114,1.0476190476010885,1.0192307692307352,0.014996698126196861,0.997399265016451,0
358,206.20555555555555,0.5888888888888744,0.5972222222222285,0.5861111111111086,1.0047393364928705,0.038397661287323664,1.097688267909356,63.888888888888886,1.0952380952193197,1.018957345971579,0.054571494460105896,0.9960630419614687,0
359,206.80277777777778,0.5972222222222285,0.5805555555555486,0.5930555555555515,1.0070257611241393,0.0360591426567604,1.030836163406205,58.333333333333336,0.9999999999828572,0.9789227166276298,0.0002813543251249939,0.9982127190899295,0
360,207.38333333333333,0.5805555555555486,0.575000000000017,0.5930555555555515,0.9789227166276298,0.03660574196048857,1.0464620016170316,63.888888888888886,1.0952380952193197,0.9695550351288411,0.005871583707630634,0.9966285253049842,0
361,207.95833333333334,0.575000000000017,0.5861111111111086,0.5861111111111086,0.9810426540284694,0.037461563398368314,1.0709276883357186,61.111111111111114,1.0476190476010885,1.0,0.022429056465625763,0.9957767600513869,0
362,208.54444444444445,0.5861111111111086,0.5999999999999943,0.5874999999999915,0.9976359338061568,0.03669606000353034,1.0490439572076502,61.111111111111114,1.0476190476010885,1.021276595744686,0.010869842022657394,0.9952623323148027,0
363,209.14444444444445,0.5999999999999943,0.5749999999999886,0.5930555555555515,1.0117096018735336,0.03711548261424243,1.0610341478504999,61.111111111111114,1.0476190476010885,0.9695550351287932,0.00603779312223196,0.9960270139131973,0
364,209.71944444444443,0.5749999999999886,0.5694444444444571,0.5874999999999915,0.978723404255314,0.037563544471717426,1.0738430593247605,61.111111111111114,1.0476190476010885,0.969267139479941,0.018981900066137314,0.9961252613368516,0
365,210.2888888888889,0.5694444444444571,0.34166666666666856,0.5874999999999915,0.969267139479941,0.0299793232182716,0.8570300969716428,50.0,0.8571428571281633,0.581560283687955,6.796165763489626e-08,0.9857070283042934,0
366,210.63055555555556,0.34166666666666856,0.8111111111111029,0.5833333333333286,0.5857142857142937,0.04737018398925264,1.354189121692065,91.66666666666667,1.5714285714016327,1.3904761904761878,0.9927051663398743,0.29217195924242023,1
367,211.44166666666666,0.8111111111111029,0.46944444444443434,0.5833333333333286,1.3904761904761878,0.03476812778094458,0.9939294395233286,58.333333333333336,0.9999999999828572,0.804761904761894,2.326207635405808e-07,0.9996347552437195,0
368,211.9111111111111,0.46944444444443434,0.7083333333333428,0.5777777777777828,0.8124999999999754,0.03590147573042951,1.026328880163726,72.22222222222223,1.2380952380740138,1.225961538461544,0.9890987873077393,0.9324292798763683,1
369,212.61944444444444,0.7083333333333428,0.5999999999999943,0.5777777777777828,1.225961538461544,0.033971184974699295,0.9711469382125257,58.333333333333336,0.9999999999828572,1.0384615384615195,4.104614163225051e-06,0.9997626895611973,0
370,213.21944444444443,0.5999999999999943,0.40555555555556566,0.5805555555555628,1.0334928229664844,0.03579409044155915,1.0232590168494735,58.333333333333336,0.9999999999828572,0.698564593301444,4.2280382331227884e-05,0.9991628135929149,0
371,213.625,0.40555555555556566,0.7638888888888857,0.5805555555555486,0.6985645933014611,0.04134416863747886,1.1819211727566574,86.11111111111111,1.47619047616517,1.3157894736842208,0.9962719678878784,0.4537816815200421,1
372,214.38888888888889,0.7638888888888857,0.3944444444444457,0.5874999999999915,1.3002364066193988,0.033181169298126166,0.9485624653419064,55.55555555555556,0.9523809523646259,0.6713947990543854,7.513775379663912e-09,0.9988643930737722,0
373,214.78333333333333,0.3944444444444457,0.7861111111111256,0.5722222222222229,0.689320388349516,0.04856775779256477,1.3884246107760132,86.11111111111111,1.47619047616517,1.373786407767014,0.9975282549858093,0.25304080433669374,1
374,215.56944444444446,0.7861111111111256,0.42222222222221717,0.5847222222222257,1.344418052256549,0.035452777729433886,1.0135017830173205,61.111111111111114,1.0476190476010885,0.7220902612826474,3.1601784939994104e-06,0.9984642639326017,0
375,215.99166666666667,0.42222222222221717,0.7777777777777715,0.5347222222222143,0.7896103896103919,0.048430358745378925,1.3844967329558184,88.88888888888889,1.5238095237834013,1.4545454545454641,0.9974887371063232,0.228782918266979,1
376,216.76944444444445,0.7777777777777715,0.5833333333333428,0.6541666666666686,1.1889596602972268,0.03451694025545418,0.9867486480237425,55.55555555555556,0.9523809523646259,0.8917197452229418,2.0418680080069862e-08,0.999133121933482,0
377,217.3527777777778,0.5833333333333428,0.5805555555555486,0.5916666666666686,0.9859154929577594,0.03324867331445522,0.9504922278398537,50.0,0.8571428571281633,0.9812206572769804,1.6210457260967814e-06,0.9968049379943815,0
378,217.93333333333334,0.5805555555555486,0.5999999999999943,0.5916666666666686,0.9812206572769804,0.03451323554616879,0.9866427401173166,58.333333333333336,0.9999999999828572,1.0140845070422406,4.409187022247352e-05,0.9990949969761675,0
379,218.53333333333333,0.5999999999999943,0.5833333333333428,0.5916666666666686,1.0140845070422406,0.033123190046155764,0.9469049908360024,55.55555555555556,0.9523809523646259,0.9859154929577594,2.5515255401842296e-06,0.999325262634913,0
380,219.11666666666667,0.5833333333333428,0.5888888888888744,0.5833333333333428,1.0,0.032388540971835945,0.9259033036791454,52.77777777777778,0.9047619047463946,1.0095238095237682,1.04438890957681e-06,0.9992421285611011,0
381,219.70555555555555,0.5888888888888744,0.5999999999999943,0.5861111111111086,1.0047393364928705,0.034764562100454706,0.9938275060849464,58.333333333333336,0.9999999999828572,1.0236966824644498,0.00017734138236846775,0.9973574645121761,0
382,220.30555555555554,0.5999999999999943,0.5722222222222229,0.5861111111111086,1.0236966824644498,0.03343247267088434,0.9557465686105543,55.55555555555556,0.9523809523646259,0.9763033175355503,5.173849785933271e-06,0.9989718414369049,0
383,220.87777777777777,0.5722222222222229,0.49166666666667425,0.5861111111111086,0.9763033175355503,0.03451088583569076,0.9865755680672947,61.111111111111114,1.0476190476010885,0.8388625592417227,4.5273573050508276e-05,0.9983674773772191,0
384,221.36944444444444,0.49166666666667425,0.43055555555557135,0.5833333333333428,0.8428571428571422,0.041602553707259085,1.1893077231399831,94.44444444444444,1.619047619019864,0.7380952380952531,0.958573043346405,0.9109072494079204,1
385,221.8,0.43055555555557135,0.8249999999999886,0.5833333333333428,0.7380952380952531,0.04419465774379438,1.263409168246605,94.44444444444444,1.619047619019864,1.4142857142856717,0.9966392517089844,0.35395381538219367,1
386,222.625,0.8249999999999886,0.5999999999999943,0.5833333333333428,1.4142857142856717,0.035383350124775274,1.0115170301821792,58.333333333333336,0.9999999999828572,1.028571428571402,1.7226211639354005e-06,0.9994568760125044,0
387,223.225,0.5999999999999943,0.48888888888890847,0.5861111111111086,1.0236966824644498,0.029929370715391562,0.855602086136456,52.77777777777778,0.9047619047463946,0.8341232227488522,9.023946034858454e-09,0.9963922628189295,0
388,223.7138888888889,0.48888888888890847,0.6611111111110972,0.5861111111111086,0.8341232227488522,0.0426523706535006,1.219319231828461,86.11111111111111,1.47619047616517,1.127962085308038,0.9912494421005249,0.9164487390182708,1
389,224.375,0.6611111111110972,0.5777777777777828,0.5861111111111086,1.127962085308038,0.03260212327928181,0.9320090607814336,55.55555555555556,0.9523809523646259,0.9857819905213399,0.9887368083000183,0.41900173025431,1
390,224.95277777777778,0.5777777777777828,0.42222222222221717,0.5833333333333286,0.9904761904762072,0.03529134089798846,1.0088867280909255,61.111111111111114,1.0476190476010885,0.723809523809521,6.223230593604967e-05,0.9987334908587998,0
391,225.375,0.42222222222221717,0.7277777777777885,0.5750000000000028,0.7342995169082002,0.04168103095843036,1.1915511815960564,83.33333333333333,1.4285714285469386,1.2657004830918,0.9970985651016235,0.36398501079629986,1
392,226.1027777777778,0.7277777777777885,0.5999999999999943,0.5750000000000028,1.2657004830918,0.036774477890357544,1.051285718593073,66.66666666666667,1.1428571428375511,1.04347826086955,0.605198085308075,0.9829810168419504,1
393,226.70277777777778,0.5999999999999943,0.5833333333333144,0.5888888888888886,1.0188679245282928,0.0362838776248795,1.0372607457797873,61.111111111111114,1.0476190476010885,0.9905660377358174,0.0014605986652895808,0.9973171954160616,0
394,227.2861111111111,0.5833333333333144,0.5888888888889028,0.5916666666666544,0.985915492957735,0.032540350944298496,0.9302431519963865,55.55555555555556,0.9523809523646259,0.9953051643192931,1.880484887806233e-06,0.9990764289989514,0
395,227.875,0.5888888888889028,0.48888888888888005,0.5944444444444485,0.9906542056074932,0.03272512988053411,0.9355254963804588,55.55555555555556,0.9523809523646259,0.8224299065420355,5.992615115246736e-07,0.9991120650958402,0
396,228.36388888888888,0.48888888888888005,0.4583333333333428,0.5861111111111086,0.8341232227488037,0.04210521573449675,1.2036775100364698,91.66666666666667,1.5714285714016327,0.7819905213270337,0.9702941179275513,0.909126735880493,1
397,228.82222222222222,0.4583333333333428,0.7972222222222172,0.5805555555555486,0.7894736842105521,0.04437563158853193,1.2685827350604892,91.66666666666667,1.5714285714016327,1.373205741626802,0.9967155456542969,0.31811760461013583,1
398,229.61944444444444,0.7972222222222172,0.5861111111111086,0.5861111111111086,1.360189573459713,0.03404219700773495,0.9731769856927707,55.55555555555556,0.9523809523646259,1.0,1.2421345729762834e-07,0.9990671292231793,0
399,230.20555555555555,0.5861111111111086,0.5833333333333428,0.5847222222222115,1.002375296912128,0.03465843446931491,0.990793595901421,58.333333333333336,0.9999999999828572,0.9976247030879205,5.6666391174076125e-05,0.9990845345031493,0
400,230.7888888888889,0.5833333333333428,0.5749999999999886,0.5847222222222257,0.9976247030878963,0.03292095255168917,0.9411235521346655,52.77777777777778,0.9047619047463946,0.9833729216151766,1.540334210403671e-06,0.999260873459374,0
401,231.36388888888888,0.5749999999999886,0.5833333333333428,0.5847222222222257,0.9833729216151766,0.03214451230399922,0.9189271651139992,52.77777777777778,0.9047619047463946,0.9976247030878963,1.5157393136178143e-06,0.9978216074421835,0
402,231.94722222222222,0.5833333333333428,0.5749999999999886,0.5833333333333428,1.0,0.03395757473179265,0.9707578571210961,58.333333333333336,0.9999999999828572,0.9857142857142502,1.7190834114444442e-05,0.9996103237721978,0
403,232.5222222222222,0.5749999999999886,0.580555555555577,0.5833333333333286,0.9857142857142742,0.031630283532828124,0.9042267153935808,52.77777777777778,0.9047619047463946,0.9952380952381401,5.489015961757104e-07,0.9984052566644873,0
404,233.1027777777778,0.580555555555577,0.5888888888888744,0.5819444444444599,0.9976133651551417,0.03364502124128051,0.9618227738861553,55.55555555555556,0.9523809523646259,1.0119331742242919,1.0586935786704998e-05,0.9993655485565291,0
405,233.69166666666666,0.5888888888888744,0.4333333333333371,0.5819444444444599,1.0119331742242919,0.03456341275760832,0.9880771747799236,55.55555555555556,0.9523809523646259,0.744630071599032,6.430826942960266e-06,0.9986433747572363,0
406,234.125,0.4333333333333371,0.6694444444444514,0.5819444444444599,0.744630071599032,0.0356912631317112,1.020319454181941,75.0,1.285714285692245,1.1503579952267116,0.9649398326873779,0.9414186939640271,1
407,234.79444444444445,0.6694444444444514,0.6111111111111143,0.5833333333333428,1.1476190476190409,0.042739452882261,1.22180868398906,83.33333333333333,1.4285714285469386,1.0476190476190361,0.9942916631698608,0.3633598143569661,1
408,235.40555555555557,0.6111111111111143,0.5861111111111086,0.5833333333333428,1.0476190476190361,0.034172946560597696,0.9769147719380807,58.333333333333336,0.9999999999828572,1.004761904761884,1.6871559637365863e-05,0.9997708492856008,0
409,235.99166666666667,0.5861111111111086,0.5861111111111086,0.5833333333333428,1.004761904761884,0.035554773305405185,1.0164175685982333,58.333333333333336,0.9999999999828572,1.004761904761884,0.00025446093059144914,0.9987126774720831,0
410,236.57777777777778,0.5861111111111086,0.5694444444444287,0.5847222222222257,1.0023752969121038,0.034024244367715326,0.9726637668750912,55.55555555555556,0.9523809523646259,0.973871733966713,2.3098908059182577e-05,0.997748732336748,0
411,237.1472222222222,0.5694444444444287,0.3777777777777942,0.5847222222222257,0.973871733966713,0.03028536487999509,0.8657790241276897,50.0,0.8571428571281633,0.6460807600950361,5.415948223230771e-08,0.9884624136528245,0
412,237.525,0.3777777777777942,0.7527777777777658,0.5833333333333428,0.6476190476190653,0.04597093530255999,1.3141882774797857,83.33333333333333,1.4285714285469386,1.290476190476149,0.9967079162597656,0.27166965759429096,1
413,238.27777777777777,0.7527777777777658,0.5888888888889028,0.5861111111111086,1.2843601895734449,0.03366762807764769,0.9624690439511241,55.55555555555556,0.9523809523646259,1.0047393364929191,3.251750513300067e-07,0.9984234573174022,0
414,238.86666666666667,0.5888888888889028,0.5722222222222229,0.5874999999999915,1.0023640661938917,0.03398337235799883,0.9714953434855529,58.333333333333336,0.9999999999828572,0.9739952718676275,1.4252559594751801e-05,0.9993905168247039,0
415,239.4388888888889,0.5722222222222229,0.5944444444444343,0.5861111111111086,0.9763033175355503,0.03580498806753561,1.023570551348747,61.111111111111114,1.0476190476010885,1.0142180094786601,0.0008253534324467182,0.998498260660163,0
416,240.03333333333333,0.5944444444444343,0.5944444444444343,0.5875000000000057,1.0118203309692402,0.03551721276324172,1.0153438113670146,58.333333333333336,0.9999999999828572,1.0118203309692402,0.0003862075391225517,0.9972294067204676,0
417,240.62777777777777,0.5944444444444343,0.5666666666666913,0.5875000000000057,1.0118203309692402,0.03393535163453507,0.970122557149212,58.333333333333336,0.9999999999828572,0.9645390070922312,1.0996306627930608e-05,0.9995390907169392,0
418,241.19444444444446,0.5666666666666913,0.5722222222222229,0.5861111111111086,0.9668246445498092,0.03520333390904462,1.0063708394659698,58.333333333333336,0.9999999999828572,0.9763033175355503,0.00010028781980508938,0.9993151079960624,0
419,241.76666666666668,0.5722222222222229,0.3916666666666515,0.5791666666666657,0.9880095923261418,0.03394455957050295,0.970385787849852,55.55555555555556,0.9523809523646259,0.6762589928057303,2.820667987180059e-06,0.998338780431343,0
420,242.15833333333333,0.3916666666666515,0.7750000000000057,0.5722222222222229,0.6844660194174484,0.044067646562770096,1.2597782522316838,88.88888888888889,1.5238095237834013,1.3543689320388435,0.9961318969726562,0.30460605383172024,1
421,242.93333333333334,0.7750000000000057,0.4777777777777601,0.5805555555555628,1.3349282296650649,0.03577573764705104,1.0227343586661493,61.111111111111114,1.0476190476010885,0.8229665071769927,1.657559369050432e-05,0.9982368285100898,0
422,243.4111111111111,0.4777777777777601,0.700000000000017,0.5805555555555628,0.8229665071769927,0.035715387800239716,1.0210091150811502,72.22222222222223,1.2380952380740138,1.2057416267942727,0.9910669922828674,0.9336741275703606,1
423,244.11111111111111,0.700000000000017,0.5722222222222229,0.5805555555555628,1.2057416267942727,0.03462461626950968,0.9898268224073211,58.333333333333336,0.9999999999828572,0.9856459330143428,9.705338015919551e-06,0.9994077194414177,0
424,244.68333333333334,0.5722222222222229,0.38888888888888573,0.5722222222222229,1.0,0.03544925630879804,1.013401114851897,58.333333333333336,0.9999999999828572,0.6796116504854306,0.00010281955474056304,0.9974860714148142,0
425,245.07222222222222,0.38888888888888573,0.75,0.5722222222222229,0.6796116504854306,0.04150313650295139,1.186465646431709,86.11111111111111,1.47619047616517,1.310679611650484,0.9959946870803833,0.35295246528018676,1
426,245.82222222222222,0.75,0.4000000000000057,0.5722222222222229,1.310679611650484,0.03150950309425023,0.9007739199374243,55.55555555555556,0.9523809523646259,0.6990291262136014,3.923284808138305e-09,0.9969602127957995,0
427,246.22222222222223,0.4000000000000057,0.7777777777777715,0.5694444444444571,0.7024390243902383,0.048496910097123695,1.3863992612758926,88.88888888888889,1.5238095237834013,1.365853658536544,0.9972636699676514,0.25192545818270307,1
428,247.0,0.7777777777777715,0.5888888888889028,0.5722222222222229,1.3592233009708612,0.03524972293260442,1.0076969797884319,55.55555555555556,0.9523809523646259,1.029126213592256,2.1107114207552513e-06,0.9989670911843682,0
429,247.5888888888889,0.5888888888889028,0.5833333333333144,0.5805555555555628,1.0143540669856572,0.03297152140336752,0.9425691827628854,52.77777777777778,0.9047619047463946,1.0047846889951701,5.985634743410628e-06,0.996866627548233,0
430,248.17222222222222,0.5833333333333144,0.575000000000017,0.5861111111111086,0.995260663507081,0.034179602595224824,0.9771050504830766,55.55555555555556,0.9523809523646259,0.9810426540284694,1.3837001461070031e-05,0.9992652200506771,0
431,248.74722222222223,0.575000000000017,0.5944444444444343,0.5791666666666657,0.9928057553957145,0.03371480128585789,0.9638176020527361,55.55555555555556,0.9523809523646259,1.0263788968824783,2.0718222003779374e-05,0.9987842780749085,0
432,249.34166666666667,0.5944444444444343,0.6055555555555543,0.5861111111111086,1.0142180094786601,0.0349010878826289,0.9977304195524713,58.333333333333336,0.9999999999828572,1.0331753554502392,6.958942685741931e-05,0.999385074934368,0
433,249.94722222222222,0.6055555555555543,0.5749999999999886,0.5861111111111086,1.0331753554502392,0.03674422060217833,1.050420742208065,61.111111111111114,1.0476190476010885,0.9810426540284208,0.0021499996073544025,0.9976616730476547,0
434,250.5222222222222,0.5749999999999886,0.5888888888889028,0.5861111111111086,0.9810426540284208,0.03528189307072424,1.0086166395283027,58.333333333333336,0.9999999999828572,1.0047393364929191,0.00012883120507467538,0.9994890496749442,0
435,251.11111111111111,0.5888888888889028,0.5888888888888744,0.5888888888889028,1.0,0.03370380220197976,0.9635031671385774,55.55555555555556,0.9523809523646259,0.9999999999999517,6.762063094356563e-06,0.9994225224734632,0
436,251.7,0.5888888888888744,0.5916666666666686,0.5888888888888886,0.9999999999999759,0.033373175288913856,0.9540514122305945,55.55555555555556,0.9523809523646259,1.0047169811320793,5.110096935823094e-06,0.9992688751092041,0
437,252.29166666666666,0.5916666666666686,0.5666666666666629,0.5888888888889028,1.0047169811320549,0.0353190204757454,1.0096780145064477,58.333333333333336,0.9999999999828572,0.962264150943367,6.52063827146776e-05,0.9994391578257867,0
438,252.85833333333332,0.5666666666666629,0.5972222222222285,0.5888888888888886,0.9622641509433904,0.03457600576699344,0.9884371758371829,58.333333333333336,0.9999999999828572,1.0141509433962377,4.9612572183832526e-05,0.9995592517280902,0
439,253.45555555555555,0.5972222222222285,0.5999999999999943,0.5888888888888886,1.0141509433962377,0.033341614312387004,0.9531491668204366,55.55555555555556,0.9523809523646259,1.0188679245282928,4.139719294471433e-06,0.9996634905698811,0
440,254.05555555555554,0.5999999999999943,0.5722222222222229,0.5902777777777857,1.016470588235271,0.03306266087854891,0.945174620940524,55.55555555555556,0.9523809523646259,0.9694117647058704,2.1219311747699976e-06,0.9994821790620949,0
441,254.62777777777777,0.5722222222222229,0.575000000000017,0.5902777777777857,0.9694117647058704,0.033959565126680746,0.9708147572823017,55.55555555555556,0.9523809523646259,0.9741176470588394,1.4071007171878591e-05,0.9984654389818743,0
442,255.20277777777778,0.575000000000017,0.4000000000000057,0.5888888888888886,0.9764150943396521,0.03397223657673639,0.9711770007522724,55.55555555555556,0.9523809523646259,0.679245283018878,1.3741864677285776e-06,0.9994623459933316,0
443,255.6027777777778,0.4000000000000057,0.7611111111110915,0.5819444444444457,0.687350835322204,0.042160555574453834,1.205259530686486,83.33333333333333,1.4285714285469386,1.3078758949880303,0.996206521987915,0.31719424354640824,1
444,256.3638888888889,0.7611111111110915,0.5749999999999886,0.5888888888888886,1.2924528301886467,0.036399157208247025,1.0405562862358877,61.111111111111114,1.0476190476010885,0.9764150943396038,0.0001041724972310476,0.9977923578670372,0
445,256.93888888888887,0.5749999999999886,0.6083333333333485,0.5819444444444457,0.9880668257756346,0.035058520211221314,1.0022309962618814,111.11111111111111,1.9047619047292519,1.0453460620525297,0.9952854514122009,0.6022963189594709,1
446,257.5472222222222,0.6083333333333485,0.5694444444444571,0.5833333333333428,1.0428571428571518,0.03531231373563353,1.0094862864248433,58.333333333333336,0.9999999999828572,0.9761904761904819,0.00018242347869090736,0.9976625380630914,0
447,258.1166666666667,0.5694444444444571,0.5777777777777828,0.5750000000000028,0.9903381642512248,0.031681131200300854,0.9056803166329301,52.77777777777778,0.9047619047463946,1.0048309178744,7.684387810513726e-07,0.9987599406581944,0
448,258.69444444444446,0.5777777777777828,0.45277777777778283,0.5763888888888999,1.0024096385542065,0.03489470635093227,0.997547988325156,58.333333333333336,0.9999999999828572,0.7855421686746925,4.3302105041220784e-05,0.9985900380107082,0
449,259.14722222222224,0.45277777777778283,0.35833333333329165,0.5750000000000028,0.787439613526575,0.035593643558751845,1.0175287670316486,72.22222222222223,1.2380952380740138,0.6231884057970258,0.8306509852409363,0.9384496344021654,1
450,259.50555555555553,0.35833333333329165,0.9111111111111541,0.5736111111111057,0.6246973365616765,0.04248787489143331,1.2146167301112096,102.77777777777777,1.7619047618745578,1.588377723971034,0.991838276386261,0.36211328666053433,1
451,260.4166666666667,0.9111111111111541,0.46388888888884594,0.5750000000000028,1.5845410628019991,0.035241307723800123,1.007456411074953,61.111111111111114,1.0476190476010885,0.8067632850240759,2.8419509590094094e-07,0.9984889931025218,0
452,260.88055555555553,0.46388888888884594,0.7333333333333485,0.5722222222222229,0.8106796116504095,0.03578032156950884,1.0228654009675353,75.0,1.285714285692245,1.2815533980582774,0.9850345253944397,0.9483602292315287,1
453,261.6138888888889,0.7333333333333485,0.5833333333333144,0.5763888888888857,1.2722891566265393,0.03386096543867616,0.9679960512175683,55.55555555555556,0.9523809523646259,1.012048192771057,1.3710853181692073e-06,0.997733992944166,0
454,262.1972222222222,0.5833333333333144,0.580555555555577,0.5763888888888857,1.012048192771057,0.03186906937363747,0.9110529753065985,52.77777777777778,0.9047619047463946,1.0072289156626935,8.067628414210049e-07,0.9983671570518456,0
455,262.77777777777777,0.580555555555577,0.6027777777777601,0.5791666666666799,1.0023980815347864,0.034463571689098006,0.9852229809075618,58.333333333333336,0.9999999999828572,1.0407673860910727,6.593081343453377e-05,0.9996055442889829,0
456,263.38055555555553,0.6027777777777601,0.5972222222222285,0.5791666666666799,1.0407673860910727,0.035379761476997146,1.0114144401693597,58.333333333333336,0.9999999999828572,1.0311750599520257,0.00023146694002207369,0.9984973012731757,0
457,263.97777777777776,0.5972222222222285,0.40555555555556566,0.5819444444444457,1.0262529832935647,0.0338620044733621,0.9680257544897591,58.333333333333336,0.9999999999828572,0.6968973747016864,3.0880335089022992e-06,0.9997264593463951,0
458,264.3833333333333,0.40555555555556566,0.7638888888889142,0.5819444444444457,0.6968973747016864,0.04617907658540735,1.3201384899820399,91.66666666666667,1.5714285714016327,1.3126491646778449,0.9966549873352051,0.3156841738261603,1
459,265.14722222222224,0.7638888888889142,0.5916666666666401,0.5902777777777715,1.2941176470588802,0.03438927269465762,0.9830989678354012,55.55555555555556,0.9523809523646259,1.0023529411764365,5.72505825857661e-07,0.9983901703573916,0
460,265.7388888888889,0.5916666666666401,0.36944444444446844,0.5944444444444343,0.9953271028037106,0.02900332499816372,0.829128871746071,47.22222222222222,0.809523809509932,0.6214953271028547,2.0148762303051626e-07,0.9759211926728095,0
461,266.10833333333335,0.36944444444446844,0.8111111111110745,0.5874999999999773,0.628841607565077,0.04533036163416503,1.2958759590480136,88.88888888888889,1.5238095237834013,1.380614657210393,0.9945706725120544,0.3391009004762062,1
462,266.9194444444444,0.8111111111110745,0.6055555555555543,0.5944444444444343,1.3644859813083727,0.032935996326100656,0.9415536141260195,55.55555555555556,0.9523809523646259,1.0186915887850618,2.2728816162498333e-08,0.9981530690316984,0
463,267.525,0.6055555555555543,0.6000000000000227,0.5944444444444343,1.0186915887850618,0.035227477357370876,1.0070610372302633,61.111111111111114,1.0476190476010885,1.0093457943925788,0.0002118116244673729,0.9978958212691629,0
464,268.125,0.6000000000000227,0.5944444444444343,0.5986111111111256,1.002320185614863,0.03341190267098092,0.9551585263494404,55.55555555555556,0.9523809523646259,0.9930394431554115,2.875658992707031e-06,0.9992472227727194,0
465,268.71944444444443,0.5944444444444343,0.5749999999999886,0.5986111111111256,0.9930394431554115,0.033063054060652,0.9451858609839862,55.55555555555556,0.9523809523646259,0.9605568445475215,2.0129318727413192e-06,0.9988497377979152,0
466,269.2944444444444,0.5749999999999886,0.3972222222222399,0.5958333333333314,0.965034965034949,0.033999596727977824,0.9719591556028301,55.55555555555556,0.9523809523646259,0.6666666666666985,1.6249445025096065e-06,0.9986029764222164,0
467,269.69166666666666,0.3972222222222399,0.7916666666666856,0.5930555555555372,0.6697892271663268,0.04443414997251974,1.270255621934504,88.88888888888889,1.5238095237834013,1.3348946135832114,0.9960986375808716,0.2986780330296095,1
468,270.48333333333335,0.7916666666666856,0.5999999999999659,0.5972222222222285,1.3255813953488549,0.03341126626976266,0.9551403333103973,55.55555555555556,0.9523809523646259,1.00465116279063,7.065883522727745e-08,0.9979243782614371,0
469,271.0833333333333,0.5999999999999659,0.5777777777777828,0.5972222222222001,1.0046511627906778,0.035766358960843035,1.0224662466646943,58.333333333333336,0.9999999999828572,0.9674418604651606,8.180480654118583e-05,0.9992719177999068,0
470,271.6611111111111,0.5777777777777828,0.5944444444444343,0.5972222222222001,0.9674418604651606,0.031584219284179066,0.902909859532653,55.55555555555556,0.9523809523646259,0.9953488372093222,7.738728982076282e-07,0.998144029789415,0
471,272.25555555555553,0.5944444444444343,0.5888888888889028,0.5972222222222001,0.9953488372093222,0.03492124216031254,0.9983065774073985,58.333333333333336,0.9999999999828572,0.9860465116279667,8.37740590213798e-05,0.9974523041516415,0
472,272.84444444444443,0.5888888888889028,0.4000000000000341,0.5944444444444343,0.9906542056075168,0.03479506924634001,0.9946996252454108,58.333333333333336,0.9999999999828572,0.672897196261751,8.838260328047909e-06,0.9989272273911736,0
473,273.24444444444447,0.4000000000000341,0.7749999999999773,0.5916666666666686,0.6760563380282245,0.04240651546938293,1.2122908779609882,88.88888888888889,1.5238095237834013,1.3098591549295349,0.9960163235664368,0.33421192227558383,1
474,274.01944444444445,0.7749999999999773,0.6055555555555543,0.5916666666666686,1.3098591549295349,0.035085945837890126,1.0030150228829078,58.333333333333336,0.9999999999828572,1.0234741784037504,2.922682369899121e-06,0.999163873218191,0
475,274.625,0.6055555555555543,0.5944444444444343,0.5916666666666686,1.0234741784037504,0.031253845393610584,0.8934653378731968,52.77777777777778,0.9047619047463946,1.0046948356807308,2.6738480300991796e-06,0.9916309457238235,0
476,275.21944444444443,0.5944444444444343,0.5861111111111086,0.5944444444444343,1.0,0.03352262505152103,0.9583237883481966,55.55555555555556,0.9523809523646259,0.9859813084112274,8.379520295420662e-06,0.9976386744255388,0
477,275.80555555555554,0.5861111111111086,0.5861111111111086,0.5944444444444343,0.9859813084112274,0.03472397664904525,0.9926672746446354,61.111111111111114,1.0476190476010885,0.9859813084112274,5.6123226386262104e-05,0.9994117461371362,0
478,276.39166666666665,0.5861111111111086,0.5944444444444343,0.5916666666666686,0.9906103286384902,0.03349336982237587,0.9574874581986246,58.333333333333336,0.9999999999828572,1.0046948356807308,7.812847798049916e-06,0.9996208717089453,0
479,276.9861111111111,0.5944444444444343,0.4194444444444798,0.5916666666666686,1.0046948356807308,0.03603520510986607,1.03015185182296,58.333333333333336,0.9999999999828572,0.7089201877934848,0.00012036936823278666,0.99702301887174,0
480,277.40555555555557,0.4194444444444798,0.7583333333333258,0.5916666666666686,0.7089201877934848,0.041976670624302076,1.2000027430161047,91.66666666666667,1.5714285714016327,1.2816901408450536,0.9965762495994568,0.3683906197844183,1
481,278.1638888888889,0.7583333333333258,0.5861111111111086,0.5916666666666686,1.2816901408450536,0.032102096477480524,0.9177146080575979,55.55555555555556,0.9523809523646259,0.9906103286384902,2.954912581287772e-08,0.9979948441134319,0
482,278.75,0.5861111111111086,0.580555555555577,0.5902777777777715,0.9929411764705945,0.035639144837597156,1.0188295290647744,58.333333333333336,0.9999999999828572,0.9835294117647528,0.00013908340770285577,0.9991413819460304,0
483,279.3305555555556,0.580555555555577,0.4138888888888914,0.5902777777777715,0.9835294117647528,0.03469676087671296,0.9918892472078157,58.333333333333336,0.9999999999828572,0.7011764705882471,1.0523780474613886e-05,0.9990662548240065,0
484,279.74444444444447,0.4138888888888914,0.7722222222221831,0.5861111111111086,0.7061611374407657,0.04450361148587516,1.272241344130211,88.88888888888889,1.5238095237834013,1.3175355450236355,0.9963215589523315,0.264375214815491,1
485,280.51666666666665,0.7722222222221831,0.4611111111111086,0.5861111111111086,1.3175355450236355,0.03500066264982861,1.0005770005699204,58.333333333333336,0.9999999999828572,0.7867298578199043,7.37898233182932e-07,0.9991178547188787,0
486,280.97777777777776,0.4611111111111086,0.7250000000000227,0.5861111111111086,0.7867298578199043,0.037204475006657994,1.0635782065721178,77.77777777777777,1.3333333333104762,1.236966824644594,0.9859155416488647,0.938507359191502,1
487,281.7027777777778,0.7250000000000227,0.5944444444444343,0.5861111111111086,1.236966824644594,0.0323032004489234,0.9234636423133821,52.77777777777778,0.9047619047463946,1.0142180094786601,3.025326833494546e-08,0.9979974980302901,0
488,282.2972222222222,0.5944444444444343,0.5833333333333144,0.5902777777777715,1.0070588235294053,0.03284072450674095,0.9388300430837369,55.55555555555556,0.9523809523646259,0.9882352941176256,1.9198705558665097e-06,0.9995307629255281,0
489,282.88055555555553,0.5833333333333144,0.5527777777778056,0.5847222222222115,0.9976247030878719,0.03410104309782296,0.9748592408233266,58.333333333333336,0.9999999999828572,0.9453681710214425,1.7541475244797766e-05,0.9992792689128691,0
490,283.43333333333334,0.5527777777778056,0.6472222222222399,0.5847222222222115,0.9453681710214425,0.030019641176974296,0.8581826814981544,47.22222222222222,0.809523809509932,1.1068883610451812,0.9928190112113953,0.9064981919439095,1
491,284.0805555555556,0.6472222222222399,0.5861111111111086,0.5847222222222115,1.1068883610451812,0.03547877076095145,1.014244855506312,61.111111111111114,1.0476190476010885,1.002375296912128,0.00015329204325098544,0.9987462614265076,0
492,284.6666666666667,0.5861111111111086,0.5888888888888459,0.5847222222222115,1.002375296912128,0.035532032566941915,1.01576747062409,58.333333333333336,0.9999999999828572,1.007125890736287,0.00018354780331719667,0.9991718795689798,0
493,285.25555555555553,0.5888888888888459,0.591666666666697,0.5874999999999773,1.0023640661938191,0.03344849957291392,0.9562047356378938,58.333333333333336,0.9999999999828572,1.0070921985816508,8.25313418317819e-06,0.9996954646264751,0
494,285.84722222222223,0.591666666666697,0.3944444444444457,0.5902777777777715,1.0023529411765326,0.033088750037648114,0.9459204414645535,55.55555555555556,0.9523809523646259,0.6682352941176564,2.934169742729864e-07,0.999310712887774,0
495,286.2416666666667,0.3944444444444457,0.7749999999999773,0.5874999999999773,0.6713947990544017,0.04316780273718198,1.2340540810925202,88.88888888888889,1.5238095237834013,1.319148936170225,0.9956912398338318,0.29039362021055154,1
496,287.01666666666665,0.7749999999999773,0.61388888888888,0.5902777777777715,1.3129411764705639,0.035446268570272776,1.0133157032560651,58.333333333333336,0.9999999999828572,1.039999999999996,6.090154329285724e-06,0.998845723438381,0
497,287.63055555555553,0.61388888888888,0.6194444444444684,0.5902777777777715,1.039999999999996,0.03473789878704714,0.9930652719975089,58.333333333333336,0.9999999999828572,1.0494117647059342,4.135791095905006e-05,0.9991212346220506,0
498,288.25,0.6194444444444684,0.3972222222222399,0.5902777777777715,1.0494117647059342,0.03595499800847024,1.027858941493177,58.333333333333336,0.9999999999828572,0.6729411764706253,2.8921504053869285e-05,0.998912630947345,0
499,288.64722222222224,0.3972222222222399,0.783333333333303,0.5902777777777715,0.6729411764706253,0.044780493707224624,1.2801566794860213,88.88888888888889,1.5238095237834013,1.3270588235293745,0.9961161613464355,0.2845318650571926,1
500,289.43055555555554,0.783333333333303,0.4416666666666629,0.6027777777777885,1.299539170506839,0.03313727253501624,0.9473075721986912,55.55555555555556,0.9523809523646259,0.7327188940091972,9.758682750771186e-09,0.9972165021141619,0
501,289.8722222222222,0.4416666666666629,0.7694444444444457,0.5902777777777715,0.7482352941176487,0.03336492645045974,0.9538155996083828,72.22222222222223,1.2380952380740138,1.303529411764722,0.9747014045715332,0.9493532704100021,1
502,290.64166666666665,0.7694444444444457,0.6083333333333485,0.6027777777777885,1.2764976958525138,0.034916623334645076,0.9981745373149367,58.333333333333336,0.9999999999828572,1.0092165898617582,3.683440581880859e-06,0.9973726743726228,0
503,291.25,0.6083333333333485,0.6055555555555543,0.6111111111111143,0.9954545454545651,0.03143498986978143,0.8986437825915206,52.77777777777778,0.9047619047463946,0.9909090909090837,9.619307093089446e-07,0.9930219740085054,0
504,291.85555555555555,0.6055555555555543,0.580555555555577,0.6111111111111143,0.9909090909090837,0.03304960288336884,0.9448013271608763,55.55555555555556,0.9523809523646259,0.9500000000000303,2.9226157494122162e-06,0.9963855298438572,0
505,292.43611111111113,0.580555555555577,0.5805555555555202,0.6111111111111143,0.9500000000000303,0.03462369978175515,0.9898006224299759,58.333333333333336,0.9999999999828572,0.9499999999999372,1.5551398973912e-05,0.9987372070283035,0
506,293.01666666666665,0.5805555555555202,0.40555555555556566,0.6069444444444514,0.9565217391303655,0.03520625385555373,1.0064543130661454,58.333333333333336,0.9999999999828572,0.6681922196796428,1.599914685357362e-05,0.9979780869112445,0
507,293.4222222222222,0.40555555555556566,0.7694444444444457,0.5930555555555657,0.6838407494145253,0.04521125231910624,1.2924709366233298,86.11111111111111,1.47619047616517,1.2974238875878021,0.9968721270561218,0.29850423751322663,1
508,294.19166666666666,0.7694444444444457,0.6027777777777601,0.5930555555555657,1.2974238875878021,0.03434009500693319,0.9816931069301216,58.333333333333336,0.9999999999828572,1.0163934426229038,1.3999527936903178e-06,0.9988117030028912,0
509,294.7944444444444,0.6027777777777601,0.5888888888889028,0.6041666666666572,0.9977011494252738,0.0348771441621338,0.997045931482198,58.333333333333336,0.9999999999828572,0.9747126436781992,2.0620747818611562e-05,0.9991294221140133,0
510,295.3833333333333,0.5888888888889028,0.5888888888889028,0.5958333333333314,0.9883449883450148,0.03461297840580854,0.9894941264560578,58.333333333333336,0.9999999999828572,0.9883449883450148,2.595064688648563e-05,0.9992916200389077,0
511,295.97222222222223,0.5888888888889028,0.5777777777777828,0.5958333333333314,0.9883449883450148,0.033685921892004866,0.9629920160468702,52.77777777777778,0.9047619047463946,0.9696969696969813,2.740152694968856e-06,0.9989392931636183,0
512,296.55,0.5777777777777828,0.40277777777777146,0.5888888888889028,0.9811320754716836,0.03460951398826184,0.9893950878592096,58.333333333333336,0.9999999999828572,0.6839622641509165,1.1565673958102707e-05,0.9986124892778474,0
513,296.9527777777778,0.40277777777777146,0.7888888888888914,0.5847222222222399,0.6888361045130325,0.04523815960056305,1.293240145116406,94.44444444444444,1.619047619019864,1.3491686460807235,0.9961233735084534,0.2897098241770547,1
