beat_index,peak_time_s,rr_prev_s,rr_next_s,rr_baseline_s,prematurity_index,aa_ratio,morph_index,qrs_width_ms,width_index,pause_index,pvc_score,morphology_score,is_pvc_candidate
0,0.375,,0.6444444444444444,0.658333333333303,,0.02475792845929043,0.956502057819281,38.888888888888886,0.8749999999803125,0.9789029535865429,0.0,0.9988123754412038,0
1,1.0194444444444444,0.6444444444444444,0.6666666666666667,0.658333333333303,0.9789029535865429,0.025853254488857523,0.9988190716593789,41.666666666666664,0.9374999999789063,1.012658227848148,0.0,0.9997052108687482,0
2,1.6861111111111111,0.6666666666666667,0.6527777777777779,0.658333333333303,1.012658227848148,0.02639331504568855,1.0196838639139207,44.44444444444444,0.9999999999775001,0.991561181434645,0.0,0.9979134849665696,0
3,2.338888888888889,0.6527777777777779,0.6694444444444443,0.658333333333303,0.991561181434645,0.026031884437609183,1.005720291761459,41.666666666666664,0.9374999999789063,1.0168776371308483,0.0,0.9990827847410784,0
4,3.0083333333333333,0.6694444444444443,0.6777777777777776,0.658333333333303,1.0168776371308483,0.026100438481000063,1.008368820441192,41.666666666666664,0.9374999999789063,1.02953586497895,0.0,0.9993460548962991,0
5,3.686111111111111,0.6777777777777776,0.6555555555555559,0.658333333333303,1.02953586497895,0.02411225108834258,0.9315568474389185,41.666666666666664,0.9374999999789063,0.9957805907173459,0.0,0.9985755508819083,0
6,4.341666666666667,0.6555555555555559,0.6444444444444439,0.658333333333303,0.9957805907173459,0.02551017039853733,0.9855643020232231,41.666666666666664,0.9374999999789063,0.9789029535865422,0.0,0.9993256161771151,0
7,4.986111111111111,0.6444444444444439,0.6888888888888891,0.658333333333303,0.9789029535865422,0.026272889274736942,1.015031314007773,44.44444444444444,0.9999999999775001,1.0464135021097531,0.0,0.9992109425110893,0
8,5.675,0.6888888888888891,0.6861111111111109,0.658333333333303,1.0464135021097531,0.02580663581574042,0.9970179978400311,41.666666666666664,0.9374999999789063,1.0421940928270519,0.0,0.9990324176153397,0
9,6.361111111111111,0.6861111111111109,0.6611111111111114,0.658333333333303,1.0421940928270519,0.025360342090292448,0.9797758094443121,41.666666666666664,0.9374999999789063,1.0042194092827472,0.0,0.9998069758261947,0
10,7.022222222222222,0.6611111111111114,0.6444444444444448,0.658333333333303,1.0042194092827472,0.02483976069490903,0.9596635784567545,41.666666666666664,0.9374999999789063,0.9789029535865436,0.0,0.9989659627341829,0
11,7.666666666666667,0.6444444444444448,0.6499999999999995,0.658333333333303,0.9789029535865436,0.026509630519440403,1.0241776158925167,44.44444444444444,0.9999999999775001,0.9873417721519434,0.0,0.9978057387431202,0
12,8.316666666666666,0.6499999999999995,0.6472222222222221,0.658333333333303,0.9873417721519434,0.02651228009170106,1.0242799799220366,44.44444444444444,0.9999999999775001,0.9831223628692435,0.0,0.9979036816472939,0
13,8.963888888888889,0.6472222222222221,0.6583333333333332,0.658333333333303,0.9831223628692435,0.025190884127078178,0.973228941405864,44.44444444444444,0.9999999999775001,1.000000000000046,0.0,0.9990407620113921,0
14,9.622222222222222,0.6583333333333332,0.6694444444444443,0.658333333333303,1.000000000000046,0.02544532641138323,0.9830591082929766,41.666666666666664,0.9374999999789063,1.0168776371308483,0.0,0.9996491535055085,0
15,10.291666666666666,0.6694444444444443,0.6500000000000004,0.658333333333303,1.0168776371308483,0.026712950073028,1.0320326984258235,44.44444444444444,0.9999999999775001,0.9873417721519447,0.0,0.9979231479875215,0
16,10.941666666666666,0.6500000000000004,0.6333333333333329,0.658333333333303,0.9873417721519447,0.026198121427066675,1.0121427201469042,44.44444444444444,0.9999999999775001,0.9620253164557397,0.0,0.9982653876574146,0
17,11.575,0.6333333333333329,0.6500000000000004,0.658333333333303,0.9620253164557397,0.025180292593396977,0.9728197462755772,41.666666666666664,0.9374999999789063,0.9873417721519447,0.0,0.9987144283943947,0
18,12.225,0.6500000000000004,0.6805555555555554,0.658333333333303,0.9873417721519447,0.02598280899153505,1.0038243025539817,44.44444444444444,0.9999999999775001,1.0337552742616507,0.0,0.9993699011979247,0
19,12.905555555555555,0.6805555555555554,0.6527777777777786,0.658333333333303,1.0337552742616507,0.026624792234930306,1.0286267933763766,44.44444444444444,0.9999999999775001,0.991561181434646,0.0,0.9989190512724816,0
20,13.558333333333334,0.6527777777777786,0.6305555555555546,0.658333333333303,0.991561181434646,0.026107348071539086,1.0086357667481147,44.44444444444444,0.9999999999775001,0.9578059071730385,0.0,0.999495422517169,0
21,14.188888888888888,0.6305555555555546,0.6416666666666675,0.658333333333303,0.9578059071730385,0.030827173659639297,1.1909823186815367,44.44444444444444,0.9999999999775001,0.9746835443038436,0.0,0.996061841201443,0
22,14.830555555555556,0.6416666666666675,0.6500000000000004,0.658333333333303,0.9746835443038436,0.030189693951219714,1.1663538182024282,44.44444444444444,0.9999999999775001,0.9873417721519447,0.0,0.9964572959353866,0
23,15.480555555555556,0.6500000000000004,0.6444444444444439,0.658333333333303,0.9873417721519447,0.023711778302490397,0.9160849130887531,38.888888888888886,0.8749999999803125,0.9789029535865422,0.0,0.9969099440909482,0
24,16.125,0.6444444444444439,0.6444444444444457,0.658333333333303,0.9789029535865422,0.02531249253266694,0.9779271814215841,44.44444444444444,0.9999999999775001,0.9789029535865449,0.0,0.9991181703703245,0
25,16.769444444444446,0.6444444444444457,0.652777777777775,0.658333333333303,0.9789029535865449,0.0259457107120964,1.0023910412581922,44.44444444444444,0.9999999999775001,0.9915611814346407,0.0,0.9990111051591175,0
26,17.42222222222222,0.652777777777775,0.6500000000000021,0.658333333333303,0.9915611814346407,0.026925871809895873,1.0402587533562049,44.44444444444444,0.9999999999775001,0.9873417721519474,0.0,0.998898101470916,0
27,18.072222222222223,0.6500000000000021,0.6416666666666657,0.658333333333303,0.9873417721519474,0.025303948864283693,0.9775971038707365,41.666666666666664,0.9374999999789063,0.974683544303841,0.0,0.9994915613339488,0
28,18.71388888888889,0.6416666666666657,0.658333333333335,0.658333333333303,0.974683544303841,0.025413044996786583,0.9818119425803128,44.44444444444444,0.9999999999775001,1.0000000000000486,0.0,0.9996319723119018,0
29,19.372222222222224,0.658333333333335,0.6583333333333314,0.658333333333303,1.0000000000000486,0.025998352908034605,1.0044248288921542,44.44444444444444,0.9999999999775001,1.000000000000043,0.0,0.998826114428135,0
30,20.030555555555555,0.6583333333333314,0.6527777777777786,0.658333333333303,1.000000000000043,0.02592832350717169,1.0017193009986,41.666666666666664,0.9374999999789063,0.991561181434646,0.0,0.9994095290509972,0
31,20.683333333333334,0.6527777777777786,0.6416666666666657,0.658333333333303,0.991561181434646,0.025568080326715436,0.9878016041287527,41.666666666666664,0.9374999999789063,0.974683544303841,0.0,0.9996164876894872,0
32,21.325,0.6416666666666657,0.6472222222222221,0.658333333333303,0.974683544303841,0.02685077451074385,1.0373574314102396,44.44444444444444,0.9999999999775001,0.9831223628692435,0.0,0.999032291038497,0
33,21.97222222222222,0.6472222222222221,0.6472222222222221,0.658333333333303,0.9831223628692435,0.026204630549737852,1.0123941947094799,44.44444444444444,0.9999999999775001,0.9831223628692435,0.0,0.9990033313247879,0
34,22.619444444444444,0.6472222222222221,0.6611111111111114,0.658333333333303,0.9831223628692435,0.025356950882077865,0.9796447929240456,41.666666666666664,0.9374999999789063,1.0042194092827472,0.0,0.999697555793835,0
35,23.280555555555555,0.6611111111111114,0.6694444444444443,0.658333333333303,1.0042194092827472,0.02576930751837085,0.9955758499920158,41.666666666666664,0.9374999999789063,1.0168776371308483,0.0,0.9992057826163172,0
36,23.95,0.6694444444444443,0.6416666666666657,0.658333333333303,1.0168776371308483,0.030291431530466553,1.1702843653024073,44.44444444444444,0.9999999999775001,0.974683544303841,0.0,0.995283349788475,0
37,24.591666666666665,0.6416666666666657,0.6444444444444457,0.658333333333303,0.974683544303841,0.026681044414750613,1.0308000497472969,44.44444444444444,0.9999999999775001,0.9789029535865449,0.0,0.9987510754474203,0
38,25.23611111111111,0.6444444444444457,0.6611111111111114,0.658333333333303,0.9789029535865449,0.025403653181108102,0.9814490975612759,44.44444444444444,0.9999999999775001,1.0042194092827472,0.0,0.9984432235945342,0
39,25.897222222222222,0.6611111111111114,0.6805555555555571,0.658333333333303,1.0042194092827472,0.02680284404140356,1.035505677430434,47.22222222222222,1.0624999999760938,1.0337552742616534,0.0,0.9986702246469132,0
40,26.57777777777778,0.6805555555555571,0.6583333333333314,0.658333333333303,1.0337552742616534,0.030360048551169815,1.172935327058437,44.44444444444444,0.9999999999775001,1.000000000000043,0.0,0.9966571818232178,0
41,27.23611111111111,0.6583333333333314,0.6388888888888893,0.658333333333303,1.000000000000043,0.025733849653698192,0.9942059647618745,44.44444444444444,0.9999999999775001,0.9704641350211424,0.0,0.9987601791868057,0
42,27.875,0.6388888888888893,0.6444444444444457,0.658333333333303,0.9704641350211424,0.025014235705330644,0.9664042759581923,41.666666666666664,0.9374999999789063,0.9789029535865449,0.0,0.998426708748549,0
43,28.519444444444446,0.6444444444444457,0.655555555555555,0.658333333333303,0.9789029535865449,0.025789837865741516,0.9963690229563886,41.666666666666664,0.9374999999789063,0.9957805907173446,0.0,0.998875344205703,0
44,29.175,0.655555555555555,0.6638888888888879,0.658333333333303,0.9957805907173446,0.024244986828099804,0.9366849827929209,41.666666666666664,0.9374999999789063,1.0084388185654458,0.0,0.9987050252209693,0
45,29.83888888888889,0.6638888888888879,0.6666666666666679,0.658333333333303,1.0084388185654458,0.02528454052227395,0.9768472786540708,41.666666666666664,0.9374999999789063,1.0126582278481497,0.0,0.9996131880863368,0
46,30.505555555555556,0.6666666666666679,0.6388888888888893,0.658333333333303,1.0126582278481497,0.02952619930371124,1.1407202521010695,44.44444444444444,0.9999999999775001,0.9704641350211424,0.0,0.9970222894613028,0
47,31.144444444444446,0.6388888888888893,0.6388888888888893,0.658333333333303,0.9704641350211424,0.026325984042089225,1.0170825863634305,44.44444444444444,0.9999999999775001,0.9704641350211424,0.0,0.9972958650708998,0
48,31.783333333333335,0.6388888888888893,0.6444444444444422,0.658333333333303,0.9704641350211424,0.0255926640631144,0.9887513764206132,41.666666666666664,0.9374999999789063,0.9789029535865394,0.0,0.9993873950319034,0
49,32.42777777777778,0.6444444444444422,0.6722222222222243,0.658333333333303,0.9789029535865394,0.026174214852385903,1.0112191094371,44.44444444444444,0.9999999999775001,1.0210970464135523,0.0,0.9996509922842187,0
50,33.1,0.6722222222222243,0.6444444444444457,0.658333333333303,1.0210970464135523,0.02691864734341206,1.0399796420779823,44.44444444444444,0.9999999999775001,0.9789029535865449,0.0,0.9988143698514359,0
51,33.74444444444445,0.6444444444444457,0.6416666666666657,0.658333333333303,0.9789029535865449,0.02607670972391957,1.0074520795670794,41.666666666666664,0.9374999999789063,0.974683544303841,0.0,0.9987283586573181,0
52,34.38611111111111,0.6416666666666657,0.6388888888888857,0.658333333333303,0.974683544303841,0.024378591255354982,0.9418466791688304,41.666666666666664,0.9374999999789063,0.9704641350211369,0.0,0.9990771354538761,0
53,35.025,0.6388888888888857,0.6555555555555586,0.658333333333303,0.9704641350211369,0.025255956908684377,0.9757429744202456,41.666666666666664,0.9374999999789063,0.99578059071735,0.0,0.9997104747124724,0
54,35.68055555555556,0.6555555555555586,0.6333333333333329,0.658333333333303,0.99578059071735,0.02529596424388614,0.9772886246757294,41.666666666666664,0.9374999999789063,0.9620253164557397,0.0,0.9984336710096365,0
55,36.31388888888889,0.6333333333333329,0.6611111111111114,0.658333333333303,0.9620253164557397,0.030670312902719796,1.1849221332734037,44.44444444444444,0.9999999999775001,1.0042194092827472,0.0,0.995500893855435,0
56,36.975,0.6611111111111114,0.6555555555555515,0.658333333333303,1.0042194092827472,0.026867977879869238,1.0380220693260052,47.22222222222222,1.0624999999760938,0.9957805907173392,0.0,0.9984389337270292,0
57,37.63055555555555,0.6555555555555515,0.6500000000000057,0.658333333333303,0.9957805907173392,0.02574812727360791,0.9947575687802341,41.666666666666664,0.9374999999789063,0.9873417721519528,0.0,0.999776528195266,0
58,38.28055555555556,0.6500000000000057,0.6361111111111057,0.658333333333303,0.9873417721519528,0.02512387441608741,0.970640076729163,41.666666666666664,0.9374999999789063,0.966244725738433,0.0,0.9997117396562889,0
59,38.916666666666664,0.6361111111111057,0.6666666666666714,0.658333333333303,0.966244725738433,0.02612372367145629,1.009268424486204,44.44444444444444,0.9999999999775001,1.012658227848155,0.0,0.9997908506273332,0
60,39.583333333333336,0.6666666666666714,0.6638888888888843,0.658333333333303,1.012658227848155,0.026890096289099864,1.0388765957448682,44.44444444444444,0.9999999999775001,1.0084388185654403,0.0,0.9982551342372818,0
61,40.24722222222222,0.6638888888888843,0.6527777777777786,0.658333333333303,1.0084388185654403,0.024760884929542627,0.9566162785984854,41.666666666666664,0.9374999999789063,0.991561181434646,0.0,0.9994244729954517,0
62,40.9,0.6527777777777786,0.6333333333333329,0.658333333333303,0.991561181434646,0.02561968486550413,0.9897953027382856,41.666666666666664,0.9374999999789063,0.9620253164557397,0.0,0.9991847090655999,0
63,41.53333333333333,0.6333333333333329,0.6499999999999986,0.658333333333303,0.9620253164557397,0.02529216605857788,0.9771418849325678,44.44444444444444,0.9999999999775001,0.9873417721519421,0.0,0.9989145837497457,0
64,42.18333333333333,0.6499999999999986,0.6388888888888928,0.658333333333303,0.9873417721519421,0.026625702187301568,1.0286619486324822,47.22222222222222,1.0624999999760938,0.9704641350211477,0.0,0.9985111543967096,0
65,42.82222222222222,0.6388888888888928,0.6555555555555515,0.658333333333303,0.9704641350211477,0.02538197475996675,0.9806115697177784,41.666666666666664,0.9374999999789063,0.9957805907173392,0.0,0.9997745117888494,0
66,43.477777777777774,0.6555555555555515,0.6666666666666714,0.658333333333303,0.9957805907173392,0.02570180638300545,0.9929679995416718,44.44444444444444,0.9999999999775001,1.012658227848155,0.0,0.999907234835073,0
67,44.144444444444446,0.6666666666666714,0.6361111111111128,0.658333333333303,1.012658227848155,0.024909783982227398,0.9623688701585794,44.44444444444444,0.9999999999775001,0.9662447257384438,0.0,0.9992382306542431,0
68,44.78055555555556,0.6361111111111128,0.6333333333333329,0.658333333333303,0.9662447257384438,0.024254001893954834,0.9370332723946092,41.666666666666664,0.9374999999789063,0.9620253164557397,0.0,0.9994732026835825,0
69,45.41388888888889,0.6333333333333329,0.6472222222222186,0.658333333333303,0.9620253164557397,0.02490879851213311,0.9623307973377997,41.666666666666664,0.9374999999789063,0.983122362869238,0.0,0.999514576568052,0
70,46.06111111111111,0.6472222222222186,0.6833333333333371,0.658333333333303,0.983122362869238,0.026448118322762434,1.02180114312743,47.22222222222222,1.0624999999760938,1.0379746835443573,0.0,0.9988200456770615,0
71,46.74444444444445,0.6833333333333371,0.6472222222222186,0.658333333333303,1.0379746835443573,0.026642852298180943,1.0293245289600295,44.44444444444444,0.9999999999775001,0.983122362869238,0.0,0.9986942058281474,0
72,47.391666666666666,0.6472222222222186,0.6333333333333329,0.658333333333303,0.983122362869238,0.025136826698132667,0.9711404774169716,41.666666666666664,0.9374999999789063,0.9620253164557397,0.0,0.9996168800322602,0
73,48.025,0.6333333333333329,0.6388888888888928,0.658333333333303,0.9620253164557397,0.024196573305829,0.9348145664632814,41.666666666666664,0.9374999999789063,0.9704641350211477,0.0,0.9991848645355113,0
74,48.66388888888889,0.6388888888888928,0.6583333333333314,0.658333333333303,0.9704641350211477,0.025878737465366963,0.9998035853480228,44.44444444444444,0.9999999999775001,1.000000000000043,0.0,0.9995313987873153,0
75,49.32222222222222,0.6583333333333314,0.6555555555555515,0.658333333333303,1.000000000000043,0.02520437268461879,0.9737500606532123,44.44444444444444,0.9999999999775001,0.9957805907173392,0.0,0.9996515418475391,0
76,49.977777777777774,0.6555555555555515,0.6638888888888914,0.658333333333303,0.9957805907173392,0.03168029295635248,1.22394187602953,50.0,1.1249999999746876,1.0084388185654511,0.0,0.9961238749370163,0
77,50.641666666666666,0.6638888888888914,0.6472222222222257,0.658333333333303,1.0084388185654511,0.027205628950248195,1.051066938737168,47.22222222222222,1.0624999999760938,0.9831223628692488,0.0,0.9981794884877766,0
78,51.28888888888889,0.6472222222222257,0.6499999999999986,0.658333333333303,0.9831223628692488,0.024658483331994722,0.9526600777014835,41.666666666666664,0.9374999999789063,0.9873417721519421,0.0,0.9993717732552452,0
79,51.93888888888889,0.6499999999999986,0.6361111111111128,0.658333333333303,0.9873417721519421,0.025162728024625665,0.9721411537106905,41.666666666666664,0.9374999999789063,0.9662447257384438,0.0,0.9986732932864516,0
80,52.575,0.6361111111111128,0.6777777777777771,0.658333333333303,0.9662447257384438,0.03065496796409265,1.1843292942805086,44.44444444444444,0.9999999999775001,1.0295358649789494,0.0,0.9961947952681491,0
81,53.25277777777778,0.6777777777777771,0.6472222222222186,0.658333333333303,1.0295358649789494,0.025808175545314133,0.9970774840166781,44.44444444444444,0.9999999999775001,0.983122362869238,0.0,0.9983407527349304,0
82,53.9,0.6472222222222186,0.6499999999999986,0.658333333333303,0.983122362869238,0.030482368448429928,1.1776610549655164,44.44444444444444,0.9999999999775001,0.9873417721519421,0.0,0.9965352864882742,0
83,54.55,0.6499999999999986,0.625,0.658333333333303,0.9873417721519421,0.024620459661321085,0.9511910646818773,41.666666666666664,0.9374999999789063,0.9493670886076386,0.0,0.9974604518356077,0
84,55.175,0.625,0.6416666666666728,0.658333333333303,0.9493670886076386,0.024717390708649443,0.9549359154026719,38.888888888888886,0.8749999999803125,0.9746835443038517,0.0,0.9987553735331327,0
85,55.81666666666667,0.6416666666666728,0.6305555555555529,0.658333333333303,0.9746835443038517,0.026125016873537285,1.0093183862773805,44.44444444444444,0.9999999999775001,0.9578059071730358,0.0,0.9984781832182099,0
86,56.44722222222222,0.6305555555555529,0.6472222222222186,0.658333333333303,0.9578059071730358,0.026017994885412603,1.0051836804177408,47.22222222222222,1.0624999999760938,0.983122362869238,0.0,0.9987133279759436,0
87,57.09444444444444,0.6472222222222186,0.6444444444444457,0.658333333333303,0.983122362869238,0.025344592228268837,0.9791673265714124,44.44444444444444,0.9999999999775001,0.9789029535865449,0.0,0.9983847960832839,0
88,57.73888888888889,0.6444444444444457,0.6333333333333329,0.658333333333303,0.9789029535865449,0.024561272246523866,0.9489044079390229,41.666666666666664,0.9374999999789063,0.9620253164557397,0.0,0.998984560063541,0
89,58.37222222222222,0.6333333333333329,0.6222222222222271,0.658333333333303,0.9620253164557397,0.03079672838720164,1.189806090800219,47.22222222222222,1.0624999999760938,0.9451476793249455,0.0,0.9950970124222769,0
90,58.99444444444445,0.6222222222222271,0.6444444444444386,0.658333333333303,0.9451476793249455,0.024842615200980293,0.9597738599342905,44.44444444444444,0.9999999999775001,0.9789029535865341,0.0,0.9994854534863993,0
91,59.638888888888886,0.6444444444444386,0.6527777777777786,0.658333333333303,0.9789029535865341,0.03092683131142868,1.1948325095071028,47.22222222222222,1.0624999999760938,0.991561181434646,0.0,0.9950858826659474,0
92,60.291666666666664,0.6527777777777786,0.6444444444444457,0.658333333333303,0.991561181434646,0.0301001765917189,1.16289538916973,44.44444444444444,0.9999999999775001,0.9789029535865449,0.0,0.9971159816661026,0
93,60.93611111111111,0.6444444444444457,0.625,0.658333333333303,0.9789029535865449,0.0268010849051183,1.0354377146572318,47.22222222222222,1.0624999999760938,0.9493670886076386,0.0,0.9989559506155811,0
94,61.56111111111111,0.625,0.6416666666666657,0.658333333333303,0.9493670886076386,0.031093760667261536,1.2012816868939393,47.22222222222222,1.0624999999760938,0.974683544303841,0.0,0.9954996429976006,0
95,62.202777777777776,0.6416666666666657,0.6416666666666657,0.658333333333303,0.974683544303841,0.026131302056664665,1.0095612091211816,44.44444444444444,0.9999999999775001,0.974683544303841,0.0,0.999738116180813,0
96,62.84444444444444,0.6416666666666657,0.6527777777777786,0.658333333333303,0.974683544303841,0.02520625226732606,0.9738226767741571,44.44444444444444,0.9999999999775001,0.991561181434646,0.0,0.9988424285237701,0
97,63.49722222222222,0.6527777777777786,0.6638888888888914,0.658333333333303,0.991561181434646,0.029959207217174915,1.1574491541560643,44.44444444444444,0.9999999999775001,1.0084388185654511,0.0,0.9950194693100346,0
98,64.16111111111111,0.6638888888888914,0.63333333333334,0.658333333333303,1.0084388185654511,0.025890069872531684,1.0002414035116436,44.44444444444444,0.9999999999775001,0.9620253164557506,0.0,0.9993805362952333,0
99,64.79444444444445,0.63333333333334,0.6444444444444315,0.658333333333303,0.9620253164557506,0.025040558982358276,0.9674212539612946,44.44444444444444,0.9999999999775001,0.9789029535865234,0.0,0.9993948440328517,0
100,65.43888888888888,0.6444444444444315,0.63333333333334,0.658333333333303,0.9789029535865234,0.02434895984424561,0.9407018941457697,41.666666666666664,0.9374999999789063,0.9620253164557506,0.0,0.9992069184774797,0
101,66.07222222222222,0.63333333333334,0.6694444444444372,0.658333333333303,0.9620253164557506,0.025986655318699255,1.0039729022178696,41.666666666666664,0.9374999999789063,1.0168776371308375,0.0,0.9987075011683828,0
102,66.74166666666666,0.6694444444444372,0.63333333333334,0.658333333333303,1.0168776371308375,0.026643813161079277,1.0293616511021768,47.22222222222222,1.0624999999760938,0.9620253164557506,0.0,0.9988387996931031,0
103,67.375,0.63333333333334,0.6416666666666657,0.658333333333303,0.9620253164557506,0.025767936348461168,0.9955228759783624,44.44444444444444,0.9999999999775001,0.974683544303841,0.0,0.9970930441825884,0
104,68.01666666666667,0.6416666666666657,0.63055555555556,0.658333333333303,0.974683544303841,0.02436323645050874,0.9412534590027332,41.666666666666664,0.9374999999789063,0.9578059071730466,0.0,0.9989460496935847,0
105,68.64722222222223,0.63055555555556,0.6388888888888857,0.658333333333303,0.9578059071730466,0.025897394140086304,1.0005243705215667,41.666666666666664,0.9374999999789063,0.9704641350211369,0.0,0.9984318517503921,0
106,69.28611111111111,0.6388888888888857,0.625,0.658333333333303,0.9704641350211369,0.0253872625518849,0.9808158591783989,41.666666666666664,0.9374999999789063,0.9493670886076386,0.0,0.9988560785876953,0
107,69.91111111111111,0.625,0.6555555555555515,0.658333333333303,0.9493670886076386,0.025499027320697754,0.9851337984412485,41.666666666666664,0.9374999999789063,0.9957805907173392,0.0,0.9995401130348087,0
108,70.56666666666666,0.6555555555555515,0.6500000000000057,0.658333333333303,0.9957805907173392,0.02656166983183577,1.026188111620199,44.44444444444444,0.9999999999775001,0.9873417721519528,0.0,0.9975779097171148,0
109,71.21666666666667,0.6500000000000057,0.6388888888888857,0.658333333333303,0.9873417721519528,0.02376680979306113,0.918211009141673,41.666666666666664,0.9374999999789063,0.9704641350211369,0.0,0.9964831440112394,0
110,71.85555555555555,0.6388888888888857,0.61944444444444,0.658333333333303,0.9704641350211369,0.024291250806805935,0.9384723532875116,41.666666666666664,0.9374999999789063,0.9409282700422307,0.0,0.9977203393351854,0
111,72.475,0.61944444444444,0.6638888888888914,0.658333333333303,0.9409282700422307,0.024152342857927216,0.9331057597468435,41.666666666666664,0.9374999999789063,1.0084388185654511,0.0,0.9985695761900695,0
112,73.13888888888889,0.6638888888888914,0.6638888888888914,0.658333333333303,1.0084388185654511,0.027100878794509287,1.0470200032398826,47.22222222222222,1.0624999999760938,1.0084388185654511,0.0,0.9984556126328161,0
113,73.80277777777778,0.6638888888888914,0.6527777777777715,0.658333333333303,1.0084388185654511,0.025209333086902944,0.9739417016865163,44.44444444444444,0.9999999999775001,0.9915611814346352,0.0,0.9996872195606461,0
114,74.45555555555555,0.6527777777777715,0.625,0.658333333333303,0.9915611814346352,0.025529032869785813,0.9862930379751988,41.666666666666664,0.9374999999789063,0.9493670886076386,0.0,0.9995668425821076,0
115,75.08055555555555,0.625,0.6416666666666799,0.658333333333303,0.9493670886076386,0.026217883173982916,1.01290619886939,44.44444444444444,0.9999999999775001,0.9746835443038625,0.0,0.9993274855509264,0
116,75.72222222222223,0.6416666666666799,0.6416666666666657,0.658333333333303,0.9746835443038625,0.02632904293445994,1.0172007641363427,41.666666666666664,0.9374999999789063,0.974683544303841,0.0,0.9984869350900779,0
117,76.3638888888889,0.6416666666666657,0.6472222222222115,0.658333333333303,0.974683544303841,0.026349313314908442,1.017983893494021,44.44444444444444,0.9999999999775001,0.9831223628692273,0.0,0.9976403364946456,0
118,77.0111111111111,0.6472222222222115,0.6666666666666714,0.658333333333303,0.9831223628692273,0.02598198571152073,1.0037924958125917,44.44444444444444,0.9999999999775001,1.012658227848155,0.0,0.9997473024637809,0
119,77.67777777777778,0.6666666666666714,0.6416666666666657,0.658333333333303,1.012658227848155,0.03094105861549966,1.1953821696147118,47.22222222222222,1.0624999999760938,0.974683544303841,0.0,0.9962903286812566,0
120,78.31944444444444,0.6416666666666657,0.63333333333334,0.658333333333303,0.974683544303841,0.030735995293491906,1.1874597180329411,47.22222222222222,1.0624999999760938,0.9620253164557506,0.0,0.9961737421370573,0
121,78.95277777777778,0.63333333333334,0.6444444444444457,0.658333333333303,0.9620253164557506,0.0301002277432046,1.1628973653650088,44.44444444444444,0.9999999999775001,0.9789029535865449,0.0,0.9954028148866338,0
122,79.59722222222223,0.6444444444444457,0.6722222222222172,0.658333333333303,0.9789029535865449,0.026098370166398134,1.0082889128198327,44.44444444444444,0.9999999999775001,1.0210970464135414,0.0,0.999639375454687,0
123,80.26944444444445,0.6722222222222172,0.6416666666666657,0.658333333333303,1.0210970464135414,0.02570836915053479,0.9932215466289059,44.44444444444444,0.9999999999775001,0.974683544303841,0.0,0.9990258393779721,0
124,80.91111111111111,0.6416666666666657,0.6388888888888857,0.658333333333303,0.974683544303841,0.025643116602793187,0.9907005684987921,44.44444444444444,0.9999999999775001,0.9704641350211369,0.0,0.9988881139993065,0
125,81.55,0.6388888888888857,0.6388888888888857,0.658333333333303,0.9704641350211369,0.024550389451239444,0.9484839601579619,41.666666666666664,0.9374999999789063,0.9704641350211369,0.0,0.9973019661215969,0
126,82.18888888888888,0.6388888888888857,0.6611111111111114,0.658333333333303,0.9704641350211369,0.024698558312448802,0.9542083413752567,41.666666666666664,0.9374999999789063,1.0042194092827472,0.0,0.9994019130839085,0
127,82.85,0.6611111111111114,0.6388888888888999,0.658333333333303,1.0042194092827472,0.02590810083923556,1.0009380149743146,41.666666666666664,0.9374999999789063,0.9704641350211586,0.0,0.9993295712327046,0
128,83.4888888888889,0.6388888888888999,0.6555555555555515,0.658333333333303,0.9704641350211586,0.02617234506862441,1.0111468718903083,44.44444444444444,0.9999999999775001,0.9957805907173392,0.0,0.9985158555404955,0
129,84.14444444444445,0.6555555555555515,0.6416666666666657,0.658333333333303,0.9957805907173392,0.02577482990399583,0.9957892027861741,41.666666666666664,0.9374999999789063,0.974683544303841,0.0,0.9993459700754469,0
130,84.78611111111111,0.6416666666666657,0.6444444444444457,0.658333333333303,0.974683544303841,0.0253608418551326,0.9797951174449316,44.44444444444444,0.9999999999775001,0.9789029535865449,0.0,0.9997687752878952,0
131,85.43055555555556,0.6444444444444457,0.62777777777778,0.658333333333303,0.9789029535865449,0.029364232879685093,1.1344628134735455,44.44444444444444,0.9999999999775001,0.9535864978903427,0.0,0.9954548709213062,0
132,86.05833333333334,0.62777777777778,0.6555555555555515,0.658333333333303,0.9535864978903427,0.025855106750946377,0.9988906322708623,44.44444444444444,0.9999999999775001,0.9957805907173392,0.0,0.9997941790389098,0
133,86.71388888888889,0.6555555555555515,0.6555555555555515,0.658333333333303,0.9957805907173392,0.026528765961981837,1.0249168978642802,44.44444444444444,0.9999999999775001,0.9957805907173392,0.0,0.9975267087517072,0
134,87.36944444444444,0.6555555555555515,0.6444444444444457,0.658333333333303,0.9957805907173392,0.02615400175968398,1.0104381933440565,44.44444444444444,0.9999999999775001,0.9789029535865449,0.0,0.9993513491580948,0
135,88.01388888888889,0.6444444444444457,0.625,0.658333333333303,0.9789029535865449,0.02604765786133252,1.0063296849211103,44.44444444444444,0.9999999999775001,0.9493670886076386,0.0,0.9991755926009303,0
136,88.63888888888889,0.625,0.63611111111112,0.658333333333303,0.9493670886076386,0.02599591079340871,1.004330479816506,44.44444444444444,0.9999999999775001,0.9662447257384545,0.0,0.9983225773357643,0
137,89.275,0.63611111111112,0.6333333333333258,0.658333333333303,0.9662447257384545,0.03083399489392151,1.1912458514176674,47.22222222222222,1.0624999999760938,0.962025316455729,0.0,0.9957950201298701,0
138,89.90833333333333,0.6333333333333258,0.6555555555555515,0.658333333333303,0.962025316455729,0.025591248271933917,0.9886966785011244,44.44444444444444,0.9999999999775001,0.9957805907173392,0.0,0.9996040352947122,0
139,90.56388888888888,0.6555555555555515,0.6500000000000057,0.658333333333303,0.9957805907173392,0.02544450213687435,0.983027263130113,44.44444444444444,0.9999999999775001,0.9873417721519528,0.0,0.9996270550001569,0
140,91.21388888888889,0.6500000000000057,0.6361111111111057,0.658333333333303,0.9873417721519528,0.03046896696617179,1.1771432997995777,44.44444444444444,0.9999999999775001,0.966244725738433,0.0,0.9955002543089968,0
141,91.85,0.6361111111111057,0.625,0.658333333333303,0.966244725738433,0.02599184672009442,1.0041734677104794,44.44444444444444,0.9999999999775001,0.9493670886076386,0.0,0.9996915641094921,0
142,92.475,0.625,0.63611111111112,0.658333333333303,0.9493670886076386,0.025110625674292335,0.9701282225644924,41.666666666666664,0.9374999999789063,0.9662447257384545,0.0,0.9975670991007282,0
143,93.11111111111111,0.63611111111112,0.6583333333333314,0.658333333333303,0.9662447257384545,0.02604727123268258,1.006314747843483,44.44444444444444,0.9999999999775001,1.000000000000043,0.0,0.9994051014048299,0
144,93.76944444444445,0.6583333333333314,0.6416666666666657,0.658333333333303,1.000000000000043,0.02619746332166406,1.0121172947898152,44.44444444444444,0.9999999999775001,0.974683544303841,0.0,0.9992373481084185,0
145,94.41111111111111,0.6416666666666657,0.6361111111111057,0.658333333333303,0.974683544303841,0.026568595754807314,1.0264556889171232,44.44444444444444,0.9999999999775001,0.966244725738433,0.0,0.9980706660747884,0
146,95.04722222222222,0.6361111111111057,0.6222222222222342,0.658333333333303,0.966244725738433,0.025030775083712424,0.9670432611415948,41.666666666666664,0.9374999999789063,0.9451476793249562,0.0,0.9990057331738678,0
147,95.66944444444445,0.6222222222222342,0.6499999999999915,0.658333333333303,0.9451476793249562,0.025367921242250815,0.9800686237020406,41.666666666666664,0.9374999999789063,0.9873417721519312,0.0,0.998854009015161,0
148,96.31944444444444,0.6499999999999915,0.6388888888888857,0.658333333333303,0.9873417721519312,0.024638721021413144,0.9518965772022545,41.666666666666664,0.9374999999789063,0.9704641350211369,0.0,0.9995049376634804,0
149,96.95833333333333,0.6388888888888857,0.6555555555555657,0.658333333333303,0.9704641350211369,0.026471305668570633,1.022696967025515,44.44444444444444,0.9999999999775001,0.9957805907173608,0.0,0.9989346999948887,0
150,97.6138888888889,0.6555555555555657,0.6472222222222115,0.658333333333303,0.9957805907173608,0.026922541639961682,1.0401300949993404,47.22222222222222,1.0624999999760938,0.9831223628692273,0.0,0.9988451505898399,0
151,98.2611111111111,0.6472222222222115,0.6416666666666657,0.658333333333303,0.9831223628692273,0.03070813768806809,1.1863834625232117,44.44444444444444,0.9999999999775001,0.974683544303841,0.0,0.9958556064284305,0
152,98.90277777777777,0.6416666666666657,0.63333333333334,0.658333333333303,0.974683544303841,0.024892303524961013,0.961693527172012,44.44444444444444,0.9999999999775001,0.9620253164557506,0.0,0.9992209891424428,0
153,99.53611111111111,0.63333333333334,0.6583333333333314,0.658333333333303,0.9620253164557506,0.02649612833490174,1.0236559701773864,44.44444444444444,0.9999999999775001,1.000000000000043,0.0,0.997876747950619,0
154,100.19444444444444,0.6583333333333314,0.6611111111111114,0.658333333333303,1.000000000000043,0.025620960952124527,0.9898446032878195,44.44444444444444,0.9999999999775001,1.0042194092827472,0.0,0.998674554472909,0
155,100.85555555555555,0.6611111111111114,0.6500000000000057,0.658333333333303,1.0042194092827472,0.025348426759603145,0.9793154705131831,41.666666666666664,0.9374999999789063,0.9873417721519528,0.0,0.9991425240523623,0
156,101.50555555555556,0.6500000000000057,0.62777777777778,0.658333333333303,0.9873417721519528,0.030611919805480305,1.18266616433142,44.44444444444444,0.9999999999775001,0.9535864978903427,0.0,0.9972558756402423,0
157,102.13333333333334,0.62777777777778,0.6388888888888857,0.658333333333303,0.9535864978903427,0.025416016218100322,0.9819267332545609,44.44444444444444,0.9999999999775001,0.9704641350211369,0.0,0.9997406450671393,0
158,102.77222222222223,0.6388888888888857,0.6305555555555458,0.658333333333303,0.9704641350211369,0.025753503236167354,0.994965264640545,44.44444444444444,0.9999999999775001,0.957805907173025,0.0,0.9993610676326035,0
159,103.40277777777777,0.6305555555555458,0.6527777777777857,0.658333333333303,0.957805907173025,0.025650750349499797,0.9909954919793954,41.666666666666664,0.9374999999789063,0.9915611814346568,0.0,0.9995730791724899,0
160,104.05555555555556,0.6527777777777857,0.6527777777777715,0.658333333333303,0.9915611814346568,0.025159602043155132,0.9720203840059801,44.44444444444444,0.9999999999775001,0.9915611814346352,0.0,0.9995582178298956,0
161,104.70833333333333,0.6527777777777715,0.63611111111112,0.658333333333303,0.9915611814346352,0.02544485128332078,0.9830407521138558,44.44444444444444,0.9999999999775001,0.9662447257384545,0.0,0.999312947554832,0
162,105.34444444444445,0.63611111111112,0.6305555555555458,0.658333333333303,0.9662447257384545,0.025819768150703068,0.9975253547231564,41.666666666666664,0.9374999999789063,0.957805907173025,0.0,0.9997767728963642,0
163,105.975,0.6305555555555458,0.6527777777777857,0.658333333333303,0.957805907173025,0.02404377386979577,0.9289112868233984,44.44444444444444,0.9999999999775001,0.9915611814346568,0.0,0.9977585834401641,0
164,106.62777777777778,0.6527777777777857,0.6722222222222172,0.658333333333303,0.9915611814346568,0.02619385523226396,1.0119778992445996,41.666666666666664,0.9374999999789063,1.0210970464135414,0.0,0.9992865535880294,0
165,107.3,0.6722222222222172,0.6472222222222257,0.658333333333303,1.0210970464135414,0.02644533138379845,1.0216934720491149,44.44444444444444,0.9999999999775001,0.9831223628692488,0.0,0.9982536043445434,0
166,107.94722222222222,0.6472222222222257,0.6361111111111057,0.658333333333303,0.9831223628692488,0.025586990357243652,0.9885321774941054,44.44444444444444,0.9999999999775001,0.966244725738433,0.0,0.999737553071846,0
167,108.58333333333333,0.6361111111111057,0.6472222222222257,0.658333333333303,0.966244725738433,0.024358752110920374,0.9410802102573348,41.666666666666664,0.9374999999789063,0.9831223628692488,0.0,0.997757137757922,0
168,109.23055555555555,0.6472222222222257,0.6500000000000057,0.658333333333303,0.9831223628692488,0.024756538626567248,0.9564483627832874,44.44444444444444,0.9999999999775001,0.9873417721519528,0.0,0.9992882703714214,0
169,109.88055555555556,0.6500000000000057,0.6472222222222115,0.658333333333303,0.9873417721519528,0.029892194679478495,1.154860180271932,44.44444444444444,0.9999999999775001,0.9831223628692273,0.0,0.9954585247356035,0
170,110.52777777777777,0.6472222222222115,0.6555555555555657,0.658333333333303,0.9831223628692273,0.025811611695622665,0.9972102368375164,44.44444444444444,0.9999999999775001,0.9957805907173608,0.0,0.9991132725359038,0
171,111.18333333333334,0.6555555555555657,0.6527777777777715,0.658333333333303,0.9957805907173608,0.025957721932913364,1.0028550848249729,44.44444444444444,0.9999999999775001,0.9915611814346352,0.0,0.9985582127504679,0
172,111.83611111111111,0.6527777777777715,0.6500000000000057,0.658333333333303,0.9915611814346352,0.024961745597746703,0.9643763641318153,44.44444444444444,0.9999999999775001,0.9873417721519528,0.0,0.9987176973250256,0
173,112.48611111111111,0.6500000000000057,0.6333333333333258,0.658333333333303,0.9873417721519528,0.025579606881775383,0.9882469230354834,41.666666666666664,0.9374999999789063,0.962025316455729,0.0,0.9994964034742554,0
174,113.11944444444444,0.6333333333333258,0.6666666666666714,0.658333333333303,0.962025316455729,0.02572201693359964,0.9937488174224888,44.44444444444444,0.9999999999775001,1.012658227848155,0.0,0.999445054628969,0
175,113.78611111111111,0.6666666666666714,0.6694444444444372,0.658333333333303,1.012658227848155,0.02588235417852743,0.9999433140650766,44.44444444444444,0.9999999999775001,1.0168776371308375,0.0,0.9995914237176712,0
176,114.45555555555555,0.6694444444444372,0.6555555555555657,0.658333333333303,1.0168776371308375,0.02544787625088424,0.9831576192299412,44.44444444444444,0.9999999999775001,0.9957805907173608,0.0,0.9994875696882404,0
177,115.11111111111111,0.6555555555555657,0.6388888888888857,0.658333333333303,0.9957805907173608,0.024240091155002766,0.9364958425181428,41.666666666666664,0.9374999999789063,0.9704641350211369,0.0,0.9974805393181496,0
178,115.75,0.6388888888888857,0.6444444444444457,0.658333333333303,0.9704641350211369,0.02594245560119509,1.0022652827448881,47.22222222222222,1.0624999999760938,0.9789029535865449,0.0,0.9989232822253968,0
179,116.39444444444445,0.6444444444444457,0.6416666666666657,0.658333333333303,0.9789029535865449,0.025965226329267437,1.0031450109618534,44.44444444444444,0.9999999999775001,0.974683544303841,0.0,0.9987015683810033,0
180,117.03611111111111,0.6416666666666657,0.6583333333333314,0.658333333333303,0.974683544303841,0.025448055825105093,0.9831645569312136,44.44444444444444,0.9999999999775001,1.000000000000043,0.0,0.9994757766652688,0
181,117.69444444444444,0.6583333333333314,0.6749999999999972,0.658333333333303,1.000000000000043,0.026687555023739325,1.0310515817325194,44.44444444444444,0.9999999999775001,1.0253164556962455,0.0,0.9994139745254897,0
182,118.36944444444444,0.6749999999999972,0.6416666666666657,0.658333333333303,1.0253164556962455,0.026075232372427072,1.0073950033159293,44.44444444444444,0.9999999999775001,0.974683544303841,0.0,0.998748926500195,0
183,119.0111111111111,0.6416666666666657,0.62777777777778,0.658333333333303,0.974683544303841,0.026496118403723252,1.023655586494532,44.44444444444444,0.9999999999775001,0.9535864978903427,0.0,0.9984994939131563,0
184,119.63888888888889,0.62777777777778,0.6472222222222257,0.658333333333303,0.9535864978903427,0.02568836617903285,0.99244874839437,41.666666666666664,0.9374999999789063,0.9831223628692488,0.0,0.9989359592179268,0
185,120.28611111111111,0.6472222222222257,0.6749999999999972,0.658333333333303,0.9831223628692488,0.026892238847306363,1.0389593717063903,47.22222222222222,1.0624999999760938,1.0253164556962455,0.0,0.9985679458053597,0
186,120.96111111111111,0.6749999999999972,0.6527777777777857,0.658333333333303,1.0253164556962455,0.02605142300263244,1.0064751480363816,44.44444444444444,0.9999999999775001,0.9915611814346568,0.0,0.9986118492025038,0
187,121.6138888888889,0.6527777777777857,0.6305555555555458,0.658333333333303,0.9915611814346568,0.026456384205710542,1.0221204886680944,47.22222222222222,1.0624999999760938,0.957805907173025,0.0,0.9990194239253964,0
188,122.24444444444444,0.6305555555555458,0.63333333333334,0.658333333333303,0.957805907173025,0.02457612221079308,0.9494781240076109,41.666666666666664,0.9374999999789063,0.9620253164557506,0.0,0.9993863607034832,0
189,122.87777777777778,0.63333333333334,0.6472222222222257,0.658333333333303,0.9620253164557506,0.02492225070543595,0.962850511682944,41.666666666666664,0.9374999999789063,0.9831223628692488,0.0,0.999461542214942,0
190,123.525,0.6472222222222257,0.6472222222222115,0.658333333333303,0.9831223628692488,0.024844022855185926,0.9598282434884963,44.44444444444444,0.9999999999775001,0.9831223628692273,0.0,0.9988551530756619,0
191,124.17222222222222,0.6472222222222115,0.6416666666666657,0.658333333333303,0.9831223628692273,0.026449945326487586,1.0218717279029548,44.44444444444444,0.9999999999775001,0.974683544303841,0.0,0.9987846360806396,0
192,124.81388888888888,0.6416666666666657,0.6388888888888999,0.658333333333303,0.974683544303841,0.025438858020026656,0.982809207351001,44.44444444444444,0.9999999999775001,0.9704641350211586,0.0,0.9997493446342249,0
193,125.45277777777778,0.6388888888888999,0.6361111111111057,0.658333333333303,0.9704641350211586,0.02446281860682253,0.9451007331231362,38.888888888888886,0.8749999999803125,0.966244725738433,0.0,0.9979745910704492,0
194,126.08888888888889,0.6361111111111057,0.6083333333333343,0.658333333333303,0.966244725738433,0.026152128714010722,1.0103658297760056,41.666666666666664,0.9374999999789063,0.9240506329114364,0.0,0.9997398607176139,0
195,126.69722222222222,0.6083333333333343,0.6361111111111057,0.658333333333303,0.9240506329114364,0.025289820384188876,0.9770512617455857,44.44444444444444,0.9999999999775001,0.966244725738433,0.0,0.9984628144637482,0
196,127.33333333333333,0.6361111111111057,0.6638888888888914,0.658333333333303,0.966244725738433,0.026801260934080254,1.0354445153903635,44.44444444444444,0.9999999999775001,1.0084388185654511,0.0,0.9976819419463717,0
197,127.99722222222222,0.6638888888888914,0.6499999999999915,0.658333333333303,1.0084388185654511,0.026879835927217394,1.0384801951626994,44.44444444444444,0.9999999999775001,0.9873417721519312,0.0,0.9965491110484144,0
198,128.6472222222222,0.6499999999999915,0.6388888888888857,0.658333333333303,0.9873417721519312,0.025493576517453265,0.984923211173065,41.666666666666664,0.9374999999789063,0.9704641350211369,0.0,0.9996033177221872,0
199,129.2861111111111,0.6388888888888857,0.6527777777777999,0.658333333333303,0.9704641350211369,0.029982450618618026,1.1583471437171704,47.22222222222222,1.0624999999760938,0.9915611814346784,0.0,0.9955685278247257,0
200,129.9388888888889,0.6527777777777999,0.6444444444444457,0.658333333333303,0.9915611814346784,0.026800995006175606,1.0354342414860485,44.44444444444444,0.9999999999775001,0.9789029535865449,0.0,0.9989438260328651,0
201,130.58333333333334,0.6444444444444457,0.6611111111110972,0.658333333333303,0.9789029535865449,0.03019050956191736,1.1663853286461214,44.44444444444444,0.9999999999775001,1.0042194092827255,0.0,0.9946424662869954,0
202,131.24444444444444,0.6611111111110972,0.6611111111111256,0.658333333333303,1.0042194092827255,0.024968764987159067,0.9646475524272576,41.666666666666664,0.9374999999789063,1.0042194092827688,0.0,0.9989198370182895,0
203,131.90555555555557,0.6611111111111256,0.6388888888888857,0.658333333333303,1.0042194092827688,0.02449052859558487,0.9461712855854277,44.44444444444444,0.9999999999775001,0.9704641350211369,0.0,0.9977845696656824,0
204,132.54444444444445,0.6388888888888857,0.6388888888888857,0.658333333333303,0.9704641350211369,0.024456306897488442,0.9448491586269817,41.666666666666664,0.9374999999789063,0.9704641350211369,0.0,0.9992966686438907,0
205,133.18333333333334,0.6388888888888857,0.6527777777777715,0.658333333333303,0.9704641350211369,0.025218592657141256,0.9742994375125177,41.666666666666664,0.9374999999789063,0.9915611814346352,0.0,0.999725143627092,0
206,133.8361111111111,0.6527777777777715,0.6777777777777771,0.658333333333303,0.9915611814346352,0.025457390973725874,0.9835252126654165,44.44444444444444,0.9999999999775001,1.0295358649789494,0.0,0.9992399516048107,0
207,134.51388888888889,0.6777777777777771,0.6583333333333314,0.658333333333303,1.0295358649789494,0.03106329674703504,1.2001047385707466,50.0,1.1249999999746876,1.000000000000043,0.0,0.9964374219588533,0
208,135.17222222222222,0.6583333333333314,0.6444444444444457,0.658333333333303,1.000000000000043,0.02662441869502832,1.0286123619716847,47.22222222222222,1.0624999999760938,0.9789029535865449,0.0,0.9992783639528424,0
209,135.81666666666666,0.6444444444444457,0.6472222222222399,0.658333333333303,0.9789029535865449,0.025287164556554054,0.9769486560448665,41.666666666666664,0.9374999999789063,0.9831223628692705,0.0,0.9987564804351137,0
210,136.4638888888889,0.6472222222222399,0.6583333333333314,0.658333333333303,0.9831223628692705,0.025652726505222243,0.9910718391187855,44.44444444444444,0.9999999999775001,1.000000000000043,0.0,0.9997763853231144,0
211,137.12222222222223,0.6583333333333314,0.6722222222222172,0.658333333333303,1.000000000000043,0.025052471476968662,0.9678814833228638,41.666666666666664,0.9374999999789063,1.0210970464135414,0.0,0.9995086518403256,0
212,137.79444444444445,0.6722222222222172,0.6722222222222172,0.658333333333303,1.0210970464135414,0.02466397250742995,0.9528721474474706,41.666666666666664,0.9374999999789063,1.0210970464135414,0.0,0.9995376607336779,0
213,138.46666666666667,0.6722222222222172,0.6416666666666515,0.658333333333303,1.0210970464135414,0.026714989396018133,1.032111485980276,44.44444444444444,0.9999999999775001,0.9746835443038193,0.0,0.9977216228420203,0
214,139.10833333333332,0.6416666666666515,0.6472222222222399,0.658333333333303,0.9746835443038193,0.030335112706581353,1.171971951358344,44.44444444444444,0.9999999999775001,0.9831223628692705,0.0,0.9955986633392796,0
215,139.75555555555556,0.6472222222222399,0.6444444444444457,0.658333333333303,0.9831223628692705,0.025074820799294552,0.9687449308778856,44.44444444444444,0.9999999999775001,0.9789029535865449,0.0,0.9997216049480582,0
216,140.4,0.6444444444444457,0.6777777777777771,0.658333333333303,0.9789029535865449,0.025785155712311478,0.9961881318370762,44.44444444444444,0.9999999999775001,1.0295358649789494,0.0,0.9996226987628047,0
217,141.07777777777778,0.6777777777777771,0.6527777777777715,0.658333333333303,1.0295358649789494,0.025753959374218365,0.9949828871563043,44.44444444444444,0.9999999999775001,0.9915611814346352,0.0,0.9991928228434135,0
218,141.73055555555555,0.6527777777777715,0.6527777777777715,0.658333333333303,0.9915611814346352,0.0263217121043765,1.016917543588555,44.44444444444444,0.9999999999775001,0.9915611814346352,0.0,0.999456590522587,0
219,142.38333333333333,0.6527777777777715,0.6416666666666799,0.658333333333303,0.9915611814346352,0.024425889075740836,0.9436739912803354,41.666666666666664,0.9374999999789063,0.9746835443038625,0.0,0.9990905166625738,0
220,143.025,0.6416666666666799,0.6583333333333314,0.658333333333303,0.9746835443038625,0.025915928412153743,1.0012404267700463,44.44444444444444,0.9999999999775001,1.000000000000043,0.0,0.9995971744025498,0
221,143.68333333333334,0.6583333333333314,0.6444444444444457,0.658333333333303,1.000000000000043,0.025287001512902686,0.9769423569884529,41.666666666666664,0.9374999999789063,0.9789029535865449,0.0,0.9996457293283003,0
222,144.32777777777778,0.6444444444444457,0.6666666666666572,0.658333333333303,0.9789029535865449,0.025608984434003335,0.9893819004309442,44.44444444444444,0.9999999999775001,1.0126582278481335,0.0,0.99795118664291,0
223,144.99444444444444,0.6666666666666572,0.6500000000000057,0.658333333333303,1.0126582278481335,0.02642927579059467,1.0210731775053214,44.44444444444444,0.9999999999775001,0.9873417721519528,0.0,0.9983677860843265,0
224,145.64444444444445,0.6500000000000057,0.6472222222222115,0.658333333333303,0.9873417721519528,0.030223991680674585,1.167678882569427,44.44444444444444,0.9999999999775001,0.9831223628692273,0.0,0.996439252764146,0
225,146.29166666666666,0.6472222222222115,0.6416666666666799,0.658333333333303,0.9831223628692273,0.025243652507813026,0.9752676040849192,44.44444444444444,0.9999999999775001,0.9746835443038625,0.0,0.9989556830412276,0
226,146.93333333333334,0.6416666666666799,0.674999999999983,0.658333333333303,0.9746835443038625,0.02537949024720806,0.9805155826253901,41.666666666666664,0.9374999999789063,1.0253164556962238,0.0,0.9996323324137957,0
227,147.60833333333332,0.674999999999983,0.6583333333333599,0.658333333333303,1.0253164556962238,0.0263721704352496,1.0188669594047288,44.44444444444444,0.9999999999775001,1.0000000000000864,0.0,0.9986487024170669,0
228,148.26666666666668,0.6583333333333599,0.6472222222222115,0.658333333333303,1.0000000000000864,0.024984596212881453,0.9652591787192619,41.666666666666664,0.9374999999789063,0.9831223628692273,0.0,0.9990575380980696,0
229,148.9138888888889,0.6472222222222115,0.6388888888888857,0.658333333333303,0.9831223628692273,0.030201776389328427,1.1668206131902827,44.44444444444444,0.9999999999775001,0.9704641350211369,0.0,0.9962810616524728,0
230,149.55277777777778,0.6388888888888857,0.6416666666666799,0.658333333333303,0.9704641350211369,0.02555549997467353,0.9873155726485358,41.666666666666664,0.9374999999789063,0.9746835443038625,0.0,0.9997185152152779,0
231,150.19444444444446,0.6416666666666799,0.6361111111110915,0.658333333333303,0.9746835443038625,0.030958304273808343,1.196048441338044,50.0,1.1249999999746876,0.9662447257384114,0.0,0.9957813439633181,0
232,150.83055555555555,0.6361111111110915,0.6527777777777715,0.658333333333303,0.9662447257384114,0.024556501639369097,0.9487200994833261,44.44444444444444,0.9999999999775001,0.9915611814346352,0.0,0.9978014959494859,0
233,151.48333333333332,0.6527777777777715,0.6638888888888914,0.658333333333303,0.9915611814346352,0.02554053439105702,0.9867373897222382,44.44444444444444,0.9999999999775001,1.0084388185654511,0.0,0.9978453035210246,0
234,152.1472222222222,0.6638888888888914,0.63611111111112,0.658333333333303,1.0084388185654511,0.024333122780336443,0.9400900423002552,41.666666666666664,0.9374999999789063,0.9662447257384545,0.0,0.9989786265913608,0
235,152.78333333333333,0.63611111111112,0.6277777777777658,0.658333333333303,0.9662447257384545,0.029680987303529704,1.1467003582555702,44.44444444444444,0.9999999999775001,0.953586497890321,0.0,0.9959891053082461,0
236,153.4111111111111,0.6277777777777658,0.6527777777777999,0.658333333333303,0.953586497890321,0.026161378855663272,1.0107232013364063,41.666666666666664,0.9374999999789063,0.9915611814346784,0.0,0.9983311933919445,0
237,154.0638888888889,0.6527777777777999,0.669444444444423,0.658333333333303,0.9915611814346784,0.026226233874611427,1.0132288212708778,44.44444444444444,0.9999999999775001,1.016877637130816,0.0,0.9996086857250441,0
238,154.73333333333332,0.669444444444423,0.6416666666666799,0.658333333333303,1.016877637130816,0.030568049545274378,1.1809712731682502,44.44444444444444,0.9999999999775001,0.9746835443038625,0.0,0.996118569718051,0
239,155.375,0.6416666666666799,0.625,0.658333333333303,0.9746835443038625,0.026784753710274584,1.0348067724723737,44.44444444444444,0.9999999999775001,0.9493670886076386,0.0,0.9985804901714594,0
240,156.0,0.625,0.6388888888888857,0.658333333333303,0.9493670886076386,0.02597807088368433,1.003641249681976,44.44444444444444,0.9999999999775001,0.9704641350211369,0.0,0.9976669723588609,0
241,156.63888888888889,0.6388888888888857,0.6527777777777715,0.658333333333303,0.9704641350211369,0.02627776954149634,1.015219859071458,44.44444444444444,0.9999999999775001,0.9915611814346352,0.0,0.9967639763297733,0
242,157.29166666666666,0.6527777777777715,0.6527777777777999,0.658333333333303,0.9915611814346352,0.02343391421042133,0.9053498640601089,38.888888888888886,0.8749999999803125,0.9915611814346784,0.0,0.9973475807578217,0
243,157.94444444444446,0.6527777777777999,0.663888888888863,0.658333333333303,0.9915611814346784,0.025256992778707528,0.9757829944005281,44.44444444444444,0.9999999999775001,1.0084388185654078,0.0,0.9991790562278289,0
244,158.60833333333332,0.663888888888863,0.6472222222222399,0.658333333333303,1.0084388185654078,0.03146643098598322,1.215679495956664,50.0,1.1249999999746876,0.9831223628692705,0.0,0.9959130202417059,0
245,159.25555555555556,0.6472222222222399,0.6444444444444457,0.658333333333303,0.9831223628692705,0.02660758523491091,1.0279620151840285,47.22222222222222,1.0624999999760938,0.9789029535865449,0.0,0.9989703972685976,0
246,159.9,0.6444444444444457,0.6361111111110915,0.658333333333303,0.9789029535865449,0.024485088390236893,0.9459611077581973,44.44444444444444,0.9999999999775001,0.9662447257384114,0.0,0.9982996237881778,0
247,160.5361111111111,0.6361111111110915,0.6694444444444514,0.658333333333303,0.9662447257384114,0.025137546004988496,0.9711682672415095,44.44444444444444,0.9999999999775001,1.016877637130859,0.0,0.9990521006523303,0
248,161.20555555555555,0.6694444444444514,0.6444444444444457,0.658333333333303,1.016877637130859,0.02648861985199769,1.0233658861600328,47.22222222222222,1.0624999999760938,0.9789029535865449,0.0,0.9985475122718962,0
249,161.85,0.6444444444444457,0.6444444444444457,0.658333333333303,0.9789029535865449,0.02475173430252166,0.9562627517034432,44.44444444444444,0.9999999999775001,0.9789029535865449,0.0,0.9976328831356167,0
250,162.49444444444444,0.6444444444444457,0.6277777777777942,0.658333333333303,0.9789029535865449,0.024868037269459752,0.9607560204916493,41.666666666666664,0.9374999999789063,0.9535864978903642,0.0,0.9973345154681565,0
251,163.12222222222223,0.6277777777777942,0.6472222222222115,0.658333333333303,0.9535864978903642,0.02399632117682033,0.9270779913376832,41.666666666666664,0.9374999999789063,0.9831223628692273,0.0,0.9988423446502448,0
252,163.76944444444445,0.6472222222222115,0.63055555555556,0.658333333333303,0.9831223628692273,0.02658150659281122,1.0269544884487243,44.44444444444444,0.9999999999775001,0.9578059071730466,0.0,0.9979591124080204,0
253,164.4,0.63055555555556,0.6472222222222115,0.658333333333303,0.9578059071730466,0.027249109044058438,1.0527467561448343,47.22222222222222,1.0624999999760938,0.9831223628692273,0.0,0.9978854888590087,0
254,165.04722222222222,0.6472222222222115,0.6500000000000057,0.658333333333303,0.9831223628692273,0.026808971036698936,1.0357423888183803,44.44444444444444,0.9999999999775001,0.9873417721519528,0.0,0.997910960761972,0
255,165.69722222222222,0.6500000000000057,0.6416666666666799,0.658333333333303,0.9873417721519528,0.025043053057930014,0.9675176105050437,41.666666666666664,0.9374999999789063,0.9746835443038625,0.0,0.998997266536424,0
256,166.3388888888889,0.6416666666666799,0.6305555555555316,0.658333333333303,0.9746835443038625,0.025995635732247138,1.0043198530563753,44.44444444444444,0.9999999999775001,0.9578059071730034,0.0,0.9975298691428294,0
257,166.96944444444443,0.6305555555555316,0.6555555555555657,0.658333333333303,0.9578059071730034,0.025856297854026083,0.9989366495516977,44.44444444444444,0.9999999999775001,0.9957805907173608,0.0,0.9993844268904757,0
258,167.625,0.6555555555555657,0.6666666666666572,0.658333333333303,0.9957805907173608,0.026467839642687396,1.0225630599865954,47.22222222222222,1.0624999999760938,1.0126582278481335,0.0,0.9991663151845672,0
259,168.29166666666666,0.6666666666666572,0.6527777777777999,0.658333333333303,1.0126582278481335,0.024420478292620878,0.9434649501565125,41.666666666666664,0.9374999999789063,0.9915611814346784,0.0,0.9992717176716308,0
260,168.94444444444446,0.6527777777777999,0.6361111111110915,0.658333333333303,0.9915611814346784,0.030666473457430753,1.1847737994850622,47.22222222222222,1.0624999999760938,0.9662447257384114,0.0,0.9950792728616868,0
261,169.58055555555555,0.6361111111110915,0.6444444444444457,0.658333333333303,0.9662447257384114,0.025647522537695054,0.9908707881440739,41.666666666666664,0.9374999999789063,0.9789029535865449,0.0,0.9997210084213064,0
262,170.225,0.6444444444444457,0.6500000000000057,0.658333333333303,0.9789029535865449,0.026808762186973967,1.0357343200822566,44.44444444444444,0.9999999999775001,0.9873417721519528,0.0,0.9975227607394126,0
263,170.875,0.6500000000000057,0.6583333333333314,0.658333333333303,0.9873417721519528,0.031058424526931208,1.1999165043829338,44.44444444444444,0.9999999999775001,1.000000000000043,0.0,0.9961114586729667,0
264,171.53333333333333,0.6583333333333314,0.6666666666666572,0.658333333333303,1.000000000000043,0.030018272554540433,1.1597310945384676,44.44444444444444,0.9999999999775001,1.0126582278481335,0.0,0.9957746970878236,0
265,172.2,0.6666666666666572,0.6416666666666799,0.658333333333303,1.0126582278481335,0.02494326427604232,0.9636623535767508,44.44444444444444,0.9999999999775001,0.9746835443038625,0.0,0.9971152151247553,0
266,172.84166666666667,0.6416666666666799,0.6500000000000057,0.658333333333303,0.9746835443038625,0.025972216878387685,1.0034150850364996,44.44444444444444,0.9999999999775001,0.9873417721519528,0.0,0.998080424937771,0
267,173.49166666666667,0.6500000000000057,0.6583333333333314,0.658333333333303,0.9873417721519528,0.025592916200560867,0.9887611175419996,41.666666666666664,0.9374999999789063,1.000000000000043,0.0,0.9971583403101876,0
268,174.15,0.6583333333333314,0.6833333333333371,0.658333333333303,1.000000000000043,0.027641628886967643,1.06791143513221,44.44444444444444,0.9999999999775001,1.0379746835443573,0.0,0.9983234710726427,0
269,174.83333333333334,0.6833333333333371,0.6444444444444457,0.658333333333303,1.0379746835443573,0.025168801599946916,0.972375801262187,41.666666666666664,0.9374999999789063,0.9789029535865449,0.0,0.9996681160225022,0
270,175.4777777777778,0.6444444444444457,0.6305555555555316,0.658333333333303,0.9789029535865449,0.02673813896832243,1.0330058505303275,44.44444444444444,0.9999999999775001,0.9578059071730034,0.0,0.9985171577077272,0
271,176.10833333333332,0.6305555555555316,0.6416666666666799,0.658333333333303,0.9578059071730034,0.025628337225872568,0.9901295795139461,44.44444444444444,0.9999999999775001,0.9746835443038625,0.0,0.9995927168929536,0
272,176.75,0.6416666666666799,0.6444444444444457,0.658333333333303,0.9746835443038625,0.027509988648532886,1.0628256235643438,44.44444444444444,0.9999999999775001,0.9789029535865449,0.0,0.9965867877628766,0
273,177.39444444444445,0.6444444444444457,0.6500000000000057,0.658333333333303,0.9789029535865449,0.02430662034026652,0.9390661424814235,41.666666666666664,0.9374999999789063,0.9873417721519528,0.0,0.9982715312088788,0
274,178.04444444444445,0.6500000000000057,0.6611111111110972,0.658333333333303,0.9873417721519528,0.02588578503537119,1.0000758623772885,44.44444444444444,0.9999999999775001,1.0042194092827255,0.0,0.9997936115348891,0
275,178.70555555555555,0.6611111111110972,0.63611111111112,0.658333333333303,1.0042194092827255,0.026390015824693715,1.0195564012436917,44.44444444444444,0.9999999999775001,0.9662447257384545,0.0,0.997700047065462,0
276,179.34166666666667,0.63611111111112,0.6444444444444457,0.658333333333303,0.9662447257384545,0.026242569078981565,1.0138599183604677,44.44444444444444,0.9999999999775001,0.9789029535865449,0.0,0.9997898276717161,0
277,179.98611111111111,0.6444444444444457,0.6333333333333258,0.658333333333303,0.9789029535865449,0.02611817205124774,1.0090539422381257,44.44444444444444,0.9999999999775001,0.962025316455729,0.0,0.9983844455341353,0
278,180.61944444444444,0.6333333333333258,0.6722222222222172,0.658333333333303,0.962025316455729,0.02688453933010181,1.0386619072370797,44.44444444444444,0.9999999999775001,1.0210970464135414,0.0,0.9988384754398159,0
279,181.29166666666666,0.6722222222222172,0.6527777777777999,0.658333333333303,1.0210970464135414,0.02609322879441621,1.0080902801721614,44.44444444444444,0.9999999999775001,0.9915611814346784,0.0,0.9986887539114615,0
280,181.94444444444446,0.6527777777777999,0.6527777777777715,0.658333333333303,0.9915611814346784,0.025494474567734998,0.9849579066018007,44.44444444444444,0.9999999999775001,0.9915611814346352,0.0,0.9997432051138624,0
281,182.59722222222223,0.6527777777777715,0.6416666666666515,0.658333333333303,0.9915611814346352,0.024907641154445728,0.9622860837822438,41.666666666666664,0.9374999999789063,0.9746835443038193,0.0,0.9991838608737609,0
282,183.23888888888888,0.6416666666666515,0.6527777777777999,0.658333333333303,0.9746835443038193,0.025500703314847096,0.9851985490869002,41.666666666666664,0.9374999999789063,0.9915611814346784,0.0,0.9995541141377258,0
283,183.89166666666668,0.6527777777777999,0.6361111111110915,0.658333333333303,0.9915611814346784,0.02611153158245719,1.0087973932270284,44.44444444444444,0.9999999999775001,0.9662447257384114,0.0,0.9968015553562237,0
284,184.52777777777777,0.6361111111110915,0.6666666666666856,0.658333333333303,0.9662447257384114,0.025503655500764565,0.9853126043443814,44.44444444444444,0.9999999999775001,1.0126582278481766,0.0,0.9994349896572018,0
285,185.19444444444446,0.6666666666666856,0.6611111111110972,0.658333333333303,1.0126582278481766,0.026744437500734228,1.0332491891126743,47.22222222222222,1.0624999999760938,1.0042194092827255,0.0,0.998760640969156,0
286,185.85555555555555,0.6611111111110972,0.6472222222222115,0.658333333333303,1.0042194092827255,0.025199399228429738,0.9735579152931058,41.666666666666664,0.9374999999789063,0.9831223628692273,0.0,0.9993102015438334,0
287,186.50277777777777,0.6472222222222115,0.625,0.658333333333303,0.9831223628692273,0.03058936281934063,1.1817946938569706,44.44444444444444,0.9999999999775001,0.9493670886076386,0.0,0.9957857747324552,0
288,187.12777777777777,0.625,0.6555555555555657,0.658333333333303,0.9493670886076386,0.025240881780903845,0.9751605593459118,44.44444444444444,0.9999999999775001,0.9957805907173608,0.0,0.9990843949487351,0
289,187.78333333333333,0.6555555555555657,0.6611111111111256,0.658333333333303,0.9957805907173608,0.026406422616362557,1.020190264049268,44.44444444444444,0.9999999999775001,1.0042194092827688,0.0,0.998288818871073,0
290,188.44444444444446,0.6611111111111256,0.6499999999999773,0.658333333333303,1.0042194092827688,0.025353602654133053,0.979515436910899,44.44444444444444,0.9999999999775001,0.9873417721519097,0.0,0.9984746542175679,0
291,189.09444444444443,0.6499999999999773,0.625,0.658333333333303,0.9873417721519097,0.02557887204379907,0.9882185331789709,41.666666666666664,0.9374999999789063,0.9493670886076386,0.0,0.999774424336731,0
292,189.71944444444443,0.625,0.6388888888888857,0.658333333333303,0.9493670886076386,0.027384346567290545,1.057971545831039,44.44444444444444,0.9999999999775001,0.9704641350211369,0.0,0.9985329020636255,0
293,190.35833333333332,0.6388888888888857,0.63611111111112,0.658333333333303,0.9704641350211369,0.026685756889731103,1.0309821123145941,44.44444444444444,0.9999999999775001,0.9662447257384545,0.0,0.9986415326708944,0
294,190.99444444444444,0.63611111111112,0.6472222222222399,0.658333333333303,0.9662447257384545,0.03018285778766587,1.1660897086862547,44.44444444444444,0.9999999999775001,0.9831223628692705,0.0,0.9972135441501018,0
295,191.64166666666668,0.6472222222222399,0.6555555555555372,0.658333333333303,0.9831223628692705,0.025248612811021892,0.9754592412905314,44.44444444444444,0.9999999999775001,0.9957805907173176,0.0,0.9991456595873478,0
296,192.29722222222222,0.6555555555555372,0.63055555555556,0.658333333333303,0.9957805907173176,0.025580575732206352,0.9882843537693377,41.666666666666664,0.9374999999789063,0.9578059071730466,0.0,0.9994784728834986,0
297,192.92777777777778,0.63055555555556,0.63055555555556,0.658333333333303,0.9578059071730466,0.025245991328497547,0.9753579624847059,44.44444444444444,0.9999999999775001,0.9578059071730466,0.0,0.9989073441081888,0
298,193.55833333333334,0.63055555555556,0.6388888888888857,0.658333333333303,0.9578059071730466,0.024928617545379228,0.963096489270187,41.666666666666664,0.9374999999789063,0.9704641350211369,0.0,0.9988994988356865,0
299,194.19722222222222,0.6388888888888857,0.6722222222222172,0.658333333333303,0.9704641350211369,0.02721105111839705,1.0512764197121514,47.22222222222222,1.0624999999760938,1.0210970464135414,0.0,0.9986228815162319,0
300,194.86944444444444,0.6722222222222172,0.6444444444444457,0.658333333333303,1.0210970464135414,0.03165043594915904,1.2227883752886337,47.22222222222222,1.0624999999760938,0.9789029535865449,0.0,0.9952248741230934,0
301,195.51388888888889,0.6444444444444457,0.6416666666666799,0.658333333333303,0.9789029535865449,0.02966185661782657,1.1459612600603142,44.44444444444444,0.9999999999775001,0.9746835443038625,0.0,0.9970000503082246,0
302,196.15555555555557,0.6416666666666799,0.6305555555555316,0.658333333333303,0.9746835443038625,0.024628340826263265,0.9514955469610633,41.666666666666664,0.9374999999789063,0.9578059071730034,0.0,0.9977957589187046,0
303,196.7861111111111,0.6305555555555316,0.6555555555555657,0.658333333333303,0.9578059071730034,0.025781348148878277,0.9960410297778258,44.44444444444444,0.9999999999775001,0.9957805907173608,0.0,0.9990699180611715,0
304,197.44166666666666,0.6555555555555657,0.63611111111112,0.658333333333303,0.9957805907173608,0.02648878721366369,1.023372352039365,44.44444444444444,0.9999999999775001,0.9662447257384545,0.0,0.9984087409230293,0
305,198.07777777777778,0.63611111111112,0.6555555555555372,0.658333333333303,0.9662447257384545,0.026436011530629463,1.0213334072420222,47.22222222222222,1.0624999999760938,0.9957805907173176,0.0,0.9986400235426645,0
306,198.73333333333332,0.6555555555555372,0.6444444444444457,0.658333333333303,0.9957805907173176,0.026521706660232226,1.0246441675887494,44.44444444444444,0.9999999999775001,0.9789029535865449,0.0,0.9992628725630709,0
307,199.37777777777777,0.6444444444444457,0.6444444444444457,0.658333333333303,0.9789029535865449,0.025016292023000652,0.9664837200880244,44.44444444444444,0.9999999999775001,0.9789029535865449,0.0,0.9994136291432895,0
308,200.0222222222222,0.6444444444444457,0.6194444444444684,0.658333333333303,0.9789029535865449,0.02738934068588855,1.0581644894661997,47.22222222222222,1.0624999999760938,0.9409282700422739,0.0,0.9980990045759337,0
309,200.64166666666668,0.6194444444444684,0.6555555555555372,0.658333333333303,0.9409282700422739,0.030287945121384382,1.1701496707754813,50.0,1.1249999999746876,0.9957805907173176,0.0,0.9906570899959437,0
310,201.29722222222222,0.6555555555555372,0.6583333333333314,0.658333333333303,0.9957805907173176,0.03616469263814956,1.3971929430877457,58.333333333333336,1.312499999970469,1.000000000000043,0.0,0.977323905021602,0
311,201.95555555555555,0.6583333333333314,0.6527777777777715,0.658333333333303,1.000000000000043,0.031480956878713925,1.2162406917898059,52.77777777777778,1.1874999999732814,0.9915611814346352,0.0,0.9884523770047875,0
312,202.60833333333332,0.6527777777777715,0.625,0.658333333333303,0.9915611814346352,0.03077267733086889,1.1888768981614717,50.0,1.1249999999746876,0.9493670886076386,0.0,0.9892816329334517,0
313,203.23333333333332,0.625,0.6444444444444457,0.658333333333303,0.9493670886076386,0.030814423571940513,1.1904897296048167,52.77777777777778,1.1874999999732814,0.9789029535865449,0.0,0.9878044651212465,0
314,203.87777777777777,0.6444444444444457,0.6472222222222399,0.658333333333303,0.9789029535865449,0.030475951117446963,1.1774131266987793,50.0,1.1249999999746876,0.9831223628692705,0.0,0.9887180944981988,0
315,204.525,0.6472222222222399,0.6611111111110972,0.658333333333303,0.9831223628692705,0.028714257934690724,1.109351569879787,50.0,1.1249999999746876,1.0042194092827255,0.0,0.994105426236189,0
316,205.1861111111111,0.6611111111110972,0.6694444444444514,0.658333333333303,1.0042194092827255,0.031200983836198157,1.2054241652076005,50.0,1.1249999999746876,1.016877637130859,0.0,0.9845382092447249,0
317,205.85555555555555,0.6694444444444514,0.6527777777777715,0.658333333333303,1.016877637130859,0.03543996114858362,1.3691935423189738,58.333333333333336,1.312499999970469,0.9915611814346352,0.0,0.9734988985983919,0
318,206.50833333333333,0.6527777777777715,0.6583333333333314,0.658333333333303,0.9915611814346352,0.030095989801700758,1.1627336360055025,52.77777777777778,1.1874999999732814,1.000000000000043,0.0,0.9897537065953402,0
319,207.16666666666666,0.6583333333333314,0.6500000000000057,0.658333333333303,1.000000000000043,0.02570165747165485,0.992962246474992,44.44444444444444,0.9999999999775001,0.9873417721519528,0.0,0.9994266709760878,0
320,207.81666666666666,0.6500000000000057,0.6750000000000114,0.658333333333303,0.9873417721519528,0.025345266904160023,0.9791933921156013,44.44444444444444,0.9999999999775001,1.025316455696267,0.0,0.9995679932095838,0
321,208.49166666666667,0.6750000000000114,0.6500000000000057,0.658333333333303,1.025316455696267,0.02661701797771251,1.0283264413885653,44.44444444444444,0.9999999999775001,0.9873417721519528,0.0,0.9982836388017995,0
322,209.14166666666668,0.6500000000000057,0.6444444444444173,0.658333333333303,0.9873417721519528,0.026687207975914187,1.0310381738272718,47.22222222222222,1.0624999999760938,0.9789029535865017,0.0,0.9987746235783741,0
323,209.7861111111111,0.6444444444444173,0.6388888888889142,0.658333333333303,0.9789029535865017,0.02402180350670473,0.9280624800445045,41.666666666666664,0.9374999999789063,0.9704641350211801,0.0,0.9979150805147359,0
324,210.425,0.6388888888889142,0.6499999999999773,0.658333333333303,0.9704641350211801,0.03082432960734235,1.190872441076912,47.22222222222222,1.0624999999760938,0.9873417721519097,0.0,0.9946040365992297,0
325,211.075,0.6499999999999773,0.6416666666666799,0.658333333333303,0.9873417721519097,0.025379039163174077,0.9804981553673922,41.666666666666664,0.9374999999789063,0.9746835443038625,0.0,0.9998088636838178,0
326,211.71666666666667,0.6416666666666799,0.6500000000000057,0.658333333333303,0.9746835443038625,0.026010776206557593,1.004904792739763,44.44444444444444,0.9999999999775001,0.9873417721519528,0.0,0.9985075480721973,0
327,212.36666666666667,0.6500000000000057,0.6472222222222115,0.658333333333303,0.9873417721519528,0.026816535643058626,1.036034641118953,44.44444444444444,0.9999999999775001,0.9831223628692273,0.0,0.9991767882953615,0
328,213.01388888888889,0.6472222222222115,0.6388888888888857,0.658333333333303,0.9831223628692273,0.02409354089135243,0.9308339944767772,41.666666666666664,0.9374999999789063,0.9704641350211369,0.0,0.9980002384166953,0
329,213.65277777777777,0.6388888888888857,0.6277777777777942,0.658333333333303,0.9704641350211369,0.024753092849063307,0.956315238023729,44.44444444444444,0.9999999999775001,0.9535864978903642,0.0,0.9991783666869691,0
330,214.28055555555557,0.6277777777777942,0.6611111111110972,0.658333333333303,0.9535864978903642,0.025689166940795916,0.9924796851617759,44.44444444444444,0.9999999999775001,1.0042194092827255,0.0,0.9997975482993944,0
331,214.94166666666666,0.6611111111110972,0.6527777777777715,0.658333333333303,1.0042194092827255,0.02725118962591798,1.0528271377015297,44.44444444444444,0.9999999999775001,0.9915611814346352,0.0,0.9977014281537739,0
332,215.59444444444443,0.6527777777777715,0.6527777777777999,0.658333333333303,0.9915611814346352,0.026012546235278298,1.0049731763331857,44.44444444444444,0.9999999999775001,0.9915611814346784,0.0,0.9986767715022111,0
333,216.24722222222223,0.6527777777777999,0.6277777777777658,0.658333333333303,0.9915611814346784,0.029577850608019058,1.1427157574576954,44.44444444444444,0.9999999999775001,0.953586497890321,0.0,0.9954699600177435,0
334,216.875,0.6277777777777658,0.6500000000000057,0.658333333333303,0.953586497890321,0.02546580704570086,0.9838503606347252,44.44444444444444,0.9999999999775001,0.9873417721519528,0.0,0.9980025891063457,0
335,217.525,0.6500000000000057,0.6472222222222115,0.658333333333303,0.9873417721519528,0.025922015921127174,1.0014756126366529,44.44444444444444,0.9999999999775001,0.9831223628692273,0.0,0.9995811601481985,0
336,218.17222222222222,0.6472222222222115,0.6694444444444514,0.658333333333303,0.9831223628692273,0.026943884145662837,1.0409546450280611,47.22222222222222,1.0624999999760938,1.016877637130859,0.0,0.9985656373543901,0
337,218.84166666666667,0.6694444444444514,0.6694444444444514,0.658333333333303,1.016877637130859,0.025806847831094378,0.9970261888776085,44.44444444444444,0.9999999999775001,1.016877637130859,0.0,0.9991615819808517,0
338,219.51111111111112,0.6694444444444514,0.6444444444444457,0.658333333333303,1.016877637130859,0.029475049168680816,1.1387441090043324,44.44444444444444,0.9999999999775001,0.9789029535865449,0.0,0.9964991458520056,0
339,220.15555555555557,0.6444444444444457,0.6305555555555316,0.658333333333303,0.9789029535865449,0.026544283848423084,1.025516418552712,44.44444444444444,0.9999999999775001,0.9578059071730034,0.0,0.9981215999444055,0
340,220.7861111111111,0.6305555555555316,0.6611111111111256,0.658333333333303,0.9578059071730034,0.025348484919992975,0.9793177174916672,41.666666666666664,0.9374999999789063,1.0042194092827688,0.0,0.9994384292354086,0
341,221.44722222222222,0.6611111111111256,0.6722222222222172,0.658333333333303,1.0042194092827688,0.031521746202216615,1.2178165535155367,47.22222222222222,1.0624999999760938,1.0210970464135414,0.0,0.9964399462616929,0
342,222.11944444444444,0.6722222222222172,0.6500000000000057,0.658333333333303,1.0210970464135414,0.02674957414752321,1.0334476392064302,44.44444444444444,0.9999999999775001,0.9873417721519528,0.0,0.9980948997062549,0
343,222.76944444444445,0.6500000000000057,0.63055555555556,0.658333333333303,0.9873417721519528,0.025986313019560954,1.0039596777742044,44.44444444444444,0.9999999999775001,0.9578059071730466,0.0,0.9979816706761317,0
344,223.4,0.63055555555556,0.6500000000000057,0.658333333333303,0.9578059071730466,0.025551295975490444,0.9871531546224759,44.44444444444444,0.9999999999775001,0.9873417721519528,0.0,0.9994821317069671,0
345,224.05,0.6500000000000057,0.6472222222222115,0.658333333333303,0.9873417721519528,0.02566832044986963,0.9916742982530088,41.666666666666664,0.9374999999789063,0.9831223628692273,0.0,0.9989998466531259,0
346,224.69722222222222,0.6472222222222115,0.6527777777777715,0.658333333333303,0.9831223628692273,0.03005053694936206,1.1609776027062217,44.44444444444444,0.9999999999775001,0.9915611814346352,0.0,0.9942039518347561,0
347,225.35,0.6527777777777715,0.6611111111111256,0.658333333333303,0.9915611814346352,0.025920400064106723,1.0014131853391612,44.44444444444444,0.9999999999775001,1.0042194092827688,0.0,0.9990489896548144,0
348,226.01111111111112,0.6611111111111256,0.6472222222222115,0.658333333333303,1.0042194092827688,0.026547981481248945,1.0256592735340087,44.44444444444444,0.9999999999775001,0.9831223628692273,0.0,0.9976632743954421,0
349,226.65833333333333,0.6472222222222115,0.63611111111112,0.658333333333303,0.9831223628692273,0.026037423590398488,1.005934292341122,44.44444444444444,0.9999999999775001,0.9662447257384545,0.0,0.9996866631425299,0
350,227.29444444444445,0.63611111111112,0.6388888888888857,0.658333333333303,0.9662447257384545,0.02479800897240213,0.9580505352426983,41.666666666666664,0.9374999999789063,0.9704641350211369,0.0,0.9992209994149991,0
351,227.93333333333334,0.6388888888888857,0.6638888888888914,0.658333333333303,0.9704641350211369,0.02629346240756309,1.015826139952777,44.44444444444444,0.9999999999775001,1.0084388185654511,0.0,0.9988210315227024,0
352,228.59722222222223,0.6638888888888914,0.6555555555555372,0.658333333333303,1.0084388185654511,0.027116320468800068,1.0476165795350114,47.22222222222222,1.0624999999760938,0.9957805907173176,0.0,0.9984541729367544,0
353,229.25277777777777,0.6555555555555372,0.6500000000000057,0.658333333333303,0.9957805907173176,0.02495237446206647,0.9640143180673804,44.44444444444444,0.9999999999775001,0.9873417721519528,0.0,0.9987811610438095,0
354,229.90277777777777,0.6500000000000057,0.6472222222222399,0.658333333333303,0.9873417721519528,0.03013599379891083,1.1642791573004423,44.44444444444444,0.9999999999775001,0.9831223628692705,0.0,0.9950603719486452,0
355,230.55,0.6472222222222399,0.6611111111110972,0.658333333333303,0.9831223628692705,0.025437833226406303,0.9827696152983654,44.44444444444444,0.9999999999775001,1.0042194092827255,0.0,0.999170321061021,0
356,231.2111111111111,0.6611111111110972,0.6388888888888857,0.658333333333303,1.0042194092827255,0.02625115066822157,1.0141914609522045,44.44444444444444,0.9999999999775001,0.9704641350211369,0.0,0.9978897823340305,0
357,231.85,0.6388888888888857,0.6583333333333314,0.658333333333303,0.9704641350211369,0.02656196054354252,1.0261993430261784,44.44444444444444,0.9999999999775001,1.000000000000043,0.0,0.9995545703720924,0
358,232.50833333333333,0.6583333333333314,0.6694444444444514,0.658333333333303,1.000000000000043,0.025562216094572654,0.9875750443775473,41.666666666666664,0.9374999999789063,1.016877637130859,0.0,0.9995009273221034,0
359,233.17777777777778,0.6694444444444514,0.6500000000000057,0.658333333333303,1.016877637130859,0.025881812490884747,0.999922386411708,44.44444444444444,0.9999999999775001,0.9873417721519528,0.0,0.9991737652426006,0
360,233.82777777777778,0.6500000000000057,0.6388888888888857,0.658333333333303,0.9873417721519528,0.030111566005800387,1.1633354097483584,44.44444444444444,0.9999999999775001,0.9704641350211369,0.0,0.9962279767557517,0
361,234.46666666666667,0.6388888888888857,0.6583333333333314,0.658333333333303,0.9704641350211369,0.026797028894257235,1.0352810140374071,41.666666666666664,0.9374999999789063,1.000000000000043,0.0,0.9988947466541744,0
362,235.125,0.6583333333333314,0.6722222222222172,0.658333333333303,1.000000000000043,0.026381256361258543,1.0192179866297666,44.44444444444444,0.9999999999775001,1.0210970464135414,0.0,0.9991518257832626,0
363,235.79722222222222,0.6722222222222172,0.6500000000000057,0.658333333333303,1.0210970464135414,0.024861510265759498,0.960503855110327,41.666666666666664,0.9374999999789063,0.9873417721519528,0.0,0.9992875200430025,0
364,236.44722222222222,0.6500000000000057,0.625,0.658333333333303,0.9873417721519528,0.024704903660222672,0.9544534886303376,41.666666666666664,0.9374999999789063,0.9493670886076386,0.0,0.9993589934567046,0
365,237.07222222222222,0.625,0.6472222222222115,0.658333333333303,0.9493670886076386,0.025533610263996302,0.9864698818088412,44.44444444444444,0.9999999999775001,0.9831223628692273,0.0,0.9992197918854735,0
366,237.71944444444443,0.6472222222222115,0.6416666666666799,0.658333333333303,0.9831223628692273,0.02615881525982797,1.0106241589348615,47.22222222222222,1.0624999999760938,0.9746835443038625,0.0,0.9985604562287957,0
367,238.36111111111111,0.6416666666666799,0.6611111111110972,0.658333333333303,0.9746835443038625,0.02559152465339596,0.9887073562699701,44.44444444444444,0.9999999999775001,1.0042194092827255,0.0,0.9994838349644382,0
368,239.0222222222222,0.6611111111110972,0.6694444444444514,0.658333333333303,1.0042194092827255,0.02524147527019205,0.9751834883129453,41.666666666666664,0.9374999999789063,1.016877637130859,0.0,0.9982740856031895,0
369,239.69166666666666,0.6694444444444514,0.6444444444444457,0.658333333333303,1.016877637130859,0.0256923603850295,0.992603061234454,44.44444444444444,0.9999999999775001,0.9789029535865449,0.0,0.999139800231776,0
370,240.3361111111111,0.6444444444444457,0.6444444444444457,0.658333333333303,0.9789029535865449,0.026019632023223653,1.0052469298809492,44.44444444444444,0.9999999999775001,0.9789029535865449,0.0,0.9993138032349309,0
371,240.98055555555555,0.6444444444444457,0.6638888888888914,0.658333333333303,0.9789029535865449,0.02973894853499557,1.1489396424211256,44.44444444444444,0.9999999999775001,1.0084388185654511,0.0,0.9963652317167084,0
372,241.64444444444445,0.6638888888888914,0.6888888888888971,0.658333333333303,1.0084388185654511,0.026342691146539515,1.0177280515045541,44.44444444444444,0.9999999999775001,1.0464135021097654,0.0,0.9984046583292849,0
373,242.33333333333334,0.6888888888888971,0.669444444444423,0.658333333333303,1.0464135021097654,0.030596666526387966,1.182076866528726,44.44444444444444,0.9999999999775001,1.016877637130816,0.0,0.9961447146130714,0
374,243.00277777777777,0.669444444444423,0.6444444444444457,0.658333333333303,1.016877637130816,0.026636506183750255,1.0290793520857975,44.44444444444444,0.9999999999775001,0.9789029535865449,0.0,0.9988303368769516,0
375,243.6472222222222,0.6444444444444457,0.6555555555555657,0.658333333333303,0.9789029535865449,0.031104282752164078,1.2016881989281905,44.44444444444444,0.9999999999775001,0.9957805907173608,0.0,0.9962373555074546,0
376,244.30277777777778,0.6555555555555657,0.6666666666666572,0.658333333333303,0.9957805907173608,0.025332989326322365,0.9787190580659627,44.44444444444444,0.9999999999775001,1.0126582278481335,0.0,0.9984239866986453,0
377,244.96944444444443,0.6666666666666572,0.6750000000000114,0.658333333333303,1.0126582278481335,0.025225465974052484,0.9745649824178777,41.666666666666664,0.9374999999789063,1.025316455696267,0.0,0.9991738353200953,0
378,245.64444444444445,0.6750000000000114,0.6777777777777771,0.658333333333303,1.025316455696267,0.029432349642154985,1.1370944481671172,44.44444444444444,0.9999999999775001,1.0295358649789494,0.0,0.9956865178000949,0
379,246.32222222222222,0.6777777777777771,0.6555555555555657,0.658333333333303,1.0295358649789494,0.02493298500064904,0.963265222286759,44.44444444444444,0.9999999999775001,0.9957805907173608,0.0,0.9975503186319494,0
380,246.9777777777778,0.6555555555555657,0.6499999999999773,0.658333333333303,0.9957805907173608,0.027116440509463078,1.047621217206591,44.44444444444444,0.9999999999775001,0.9873417721519097,0.0,0.9978669021498539,0
381,247.62777777777777,0.6499999999999773,0.6666666666666856,0.658333333333303,0.9873417721519097,0.03020809315711835,1.1670646562813582,47.22222222222222,1.0624999999760938,1.0126582278481766,0.0,0.9949923179827267,0
382,248.29444444444445,0.6666666666666856,0.6861111111111029,0.658333333333303,1.0126582278481766,0.02527454063939755,0.9764609414625341,41.666666666666664,0.9374999999789063,1.0421940928270397,0.0,0.9991587087255505,0
383,248.98055555555555,0.6861111111111029,0.6555555555555657,0.658333333333303,1.0421940928270397,0.027377492149603493,1.0577067310815498,44.44444444444444,0.9999999999775001,0.9957805907173608,0.0,0.997049551227754,0
384,249.63611111111112,0.6555555555555657,0.6527777777777715,0.658333333333303,0.9957805907173608,0.03118591893748679,1.2048421453248805,47.22222222222222,1.0624999999760938,0.9915611814346352,0.0,0.9945523975675231,0
385,250.2888888888889,0.6527777777777715,0.6583333333333314,0.658333333333303,0.9915611814346352,0.026809186497182783,1.0357507129556973,44.44444444444444,0.9999999999775001,1.000000000000043,0.0,0.9992133855954517,0
386,250.94722222222222,0.6583333333333314,0.6666666666666572,0.658333333333303,1.000000000000043,0.03014173768274708,1.1645010674945153,44.44444444444444,0.9999999999775001,1.0126582278481335,0.0,0.996406529755334,0
387,251.61388888888888,0.6666666666666572,0.6777777777777771,0.658333333333303,1.0126582278481335,0.02411304725645286,0.9315876067343541,38.888888888888886,0.8749999999803125,1.0295358649789494,0.0,0.9975343903394283,0
388,252.29166666666666,0.6777777777777771,0.6777777777777771,0.658333333333303,1.0295358649789494,0.025948441045848144,1.0024965254410216,41.666666666666664,0.9374999999789063,1.0295358649789494,0.0,0.9991991221618781,0
389,252.96944444444443,0.6777777777777771,0.6638888888888914,0.658333333333303,1.0295358649789494,0.026025117920943208,1.0054588729951064,44.44444444444444,0.9999999999775001,1.0084388185654511,0.0,0.9985460968364805,0
390,253.63333333333333,0.6638888888888914,0.6638888888888914,0.658333333333303,1.0084388185654511,0.025759126368122418,0.9951825096857132,44.44444444444444,0.9999999999775001,1.0084388185654511,0.0,0.9997245396982476,0
391,254.29722222222222,0.6638888888888914,0.6666666666666856,0.658333333333303,1.0084388185654511,0.02553583226749982,0.9865557270736052,44.44444444444444,0.9999999999775001,1.0126582278481766,0.0,0.9986767053534754,0
392,254.9638888888889,0.6666666666666856,0.6972222222221944,0.658333333333303,1.0126582278481766,0.025641868865724362,0.9906523632106997,44.44444444444444,0.9999999999775001,1.0590717299578125,0.0,0.9995788098858925,0
393,255.6611111111111,0.6972222222221944,0.6611111111110972,0.658333333333303,1.0590717299578125,0.027425007336577,1.0595424409711134,47.22222222222222,1.0624999999760938,1.0042194092827255,0.0,0.9972418086185807,0
394,256.3222222222222,0.6611111111110972,0.6555555555555657,0.658333333333303,1.0042194092827255,0.026687581937894635,1.0310526215386155,44.44444444444444,0.9999999999775001,0.9957805907173608,0.0,0.9986804261569611,0
395,256.97777777777776,0.6555555555555657,0.6611111111111541,0.658333333333303,0.9957805907173608,0.024815644964236303,0.9587318871784553,41.666666666666664,0.9374999999789063,1.0042194092828118,0.0,0.9987921943216085,0
396,257.6388888888889,0.6611111111111541,0.6638888888888914,0.658333333333303,1.0042194092828118,0.02553260542857556,0.9864310608247152,41.666666666666664,0.9374999999789063,1.0084388185654511,0.0,0.999354627059037,0
397,258.3027777777778,0.6638888888888914,0.6666666666666288,0.658333333333303,1.0084388185654511,0.030111496108053592,1.1633327093068107,44.44444444444444,0.9999999999775001,1.0126582278480902,0.0,0.9946885658815674,0
398,258.96944444444443,0.6666666666666288,0.6750000000000114,0.658333333333303,1.0126582278480902,0.025263908281112114,0.9760501691074798,41.666666666666664,0.9374999999789063,1.025316455696267,0.0,0.9987697373634405,0
399,259.64444444444445,0.6750000000000114,0.6499999999999773,0.658333333333303,1.025316455696267,0.027728387454119586,1.0712632805077527,47.22222222222222,1.0624999999760938,0.9873417721519097,0.0,0.9966530890504595,0
400,260.2944444444444,0.6499999999999773,0.6527777777777715,0.658333333333303,0.9873417721519097,0.025485604643012416,0.9846152244075371,44.44444444444444,0.9999999999775001,0.9915611814346352,0.0,0.9989920464883442,0
401,260.9472222222222,0.6527777777777715,0.6527777777778283,0.658333333333303,0.9915611814346352,0.02554999096791758,0.9871027367359,44.44444444444444,0.9999999999775001,0.9915611814347216,0.0,0.9996579193156054,0
402,261.6,0.6527777777778283,0.6861111111110745,0.658333333333303,0.9915611814347216,0.025785746309294758,0.9962109490623048,44.44444444444444,0.9999999999775001,1.0421940928269966,0.0,0.9988455906972743,0
403,262.2861111111111,0.6861111111110745,0.6638888888888914,0.658333333333303,1.0421940928269966,0.02724192790072636,1.0524693186206924,47.22222222222222,1.0624999999760938,1.0084388185654511,0.0,0.9981720653062531,0
404,262.95,0.6638888888888914,0.6500000000000341,0.658333333333303,1.0084388185654511,0.026102625059408156,1.0084532970867386,44.44444444444444,0.9999999999775001,0.987341772151996,0.0,0.9986205290755554,0
405,263.6,0.6500000000000341,0.6527777777777715,0.658333333333303,0.987341772151996,0.029443448512381554,1.1375232438245828,44.44444444444444,0.9999999999775001,0.9915611814346352,0.0,0.9946031372188955,0
406,264.2527777777778,0.6527777777777715,0.6666666666666288,0.658333333333303,0.9915611814346352,0.025116323224021044,0.9703483426787015,41.666666666666664,0.9374999999789063,1.0126582278480902,0.0,0.999168269840398,0
407,264.9194444444444,0.6666666666666288,0.6611111111111541,0.658333333333303,1.0126582278480902,0.025871033773822053,0.9995059596065304,44.44444444444444,0.9999999999775001,1.0042194092828118,0.0,0.9988626599952176,0
408,265.5805555555556,0.6611111111111541,0.669444444444423,0.658333333333303,1.0042194092828118,0.02561727777154808,0.9897023066572075,44.44444444444444,0.9999999999775001,1.016877637130816,0.0,0.9994955664192211,0
409,266.25,0.669444444444423,0.6666666666666856,0.658333333333303,1.016877637130816,0.030934317267473588,1.1951217232179137,47.22222222222222,1.0624999999760938,1.0126582278481766,0.0,0.9953822804849843,0
410,266.9166666666667,0.6666666666666856,0.6527777777777715,0.658333333333303,1.0126582278481766,0.030432594878528542,1.1757380943222633,44.44444444444444,0.9999999999775001,0.9915611814346352,0.0,0.9961314360410876,0
411,267.56944444444446,0.6527777777777715,0.6472222222221831,0.658333333333303,0.9915611814346352,0.030121220484204504,1.163708402524224,44.44444444444444,0.9999999999775001,0.9831223628691841,0.0,0.9947032828544875,0
412,268.21666666666664,0.6472222222221831,0.6694444444444798,0.658333333333303,0.9831223628691841,0.02515355006011428,0.9717865706543509,41.666666666666664,0.9374999999789063,1.0168776371309023,0.0,0.9994684648781771,0
413,268.8861111111111,0.6694444444444798,0.658333333333303,0.658333333333303,1.0168776371309023,0.027342712493909058,1.0563630478934884,47.22222222222222,1.0624999999760938,1.0,0.0,0.9980465467164275,0
414,269.5444444444444,0.658333333333303,0.6444444444444457,0.658333333333303,1.0,0.02559479231998293,0.9888335998617894,44.44444444444444,0.9999999999775001,0.9789029535865449,0.0,0.9989208689660916,0
415,270.18888888888887,0.6444444444444457,0.6305555555555884,0.658333333333303,0.9789029535865449,0.025799630232503375,0.9967473429347358,41.666666666666664,0.9374999999789063,0.9578059071730898,0.0,0.9988361231229523,0
416,270.81944444444446,0.6305555555555884,0.6472222222221831,0.658333333333303,0.9578059071730898,0.03081166275605098,1.1903830677698435,44.44444444444444,0.9999999999775001,0.9831223628691841,0.0,0.9966606878035031,0
417,271.46666666666664,0.6472222222221831,0.6305555555555884,0.658333333333303,0.9831223628691841,0.02604243910640837,1.0061280626475662,44.44444444444444,0.9999999999775001,0.9578059071730898,0.0,0.9992683461964802,0
418,272.09722222222223,0.6305555555555884,0.6416666666666515,0.658333333333303,0.9578059071730898,0.02595849626685925,1.0028850005755534,44.44444444444444,0.9999999999775001,0.9746835443038193,0.0,0.9993042801313456,0
419,272.7388888888889,0.6416666666666515,0.6472222222222399,0.658333333333303,0.9746835443038193,0.025784590747585472,0.9961663048928749,41.666666666666664,0.9374999999789063,0.9831223628692705,0.0,0.9997072199110559,0
420,273.3861111111111,0.6472222222222399,0.625,0.658333333333303,0.9831223628692705,0.025719946275925644,0.9936688192784813,41.666666666666664,0.9374999999789063,0.9493670886076386,0.0,0.9993446726706203,0
421,274.0111111111111,0.625,0.625,0.658333333333303,0.9493670886076386,0.025959671451118004,1.0029304028459278,44.44444444444444,0.9999999999775001,0.9493670886076386,0.0,0.997422607160183,0
422,274.6361111111111,0.625,0.63611111111112,0.658333333333303,0.9493670886076386,0.026530116536377078,1.0249690761872932,44.44444444444444,0.9999999999775001,0.9662447257384545,0.0,0.99778248094197,0
423,275.27222222222224,0.63611111111112,0.6555555555555657,0.658333333333303,0.9662447257384545,0.02606022916147644,1.0068153666887467,44.44444444444444,0.9999999999775001,0.9957805907173608,0.0,0.9990995252013642,0
424,275.9277777777778,0.6555555555555657,0.6361111111110631,0.658333333333303,0.9957805907173608,0.026406545352742106,1.0201950058676232,44.44444444444444,0.9999999999775001,0.9662447257383682,0.0,0.99804251571954,0
425,276.56388888888887,0.6361111111110631,0.625,0.658333333333303,0.9662447257383682,0.026534936939606946,1.025155308473103,44.44444444444444,0.9999999999775001,0.9493670886076386,0.0,0.9988188018580502,0
426,277.18888888888887,0.625,0.6277777777777942,0.658333333333303,0.9493670886076386,0.02611422437744691,1.0089014271308823,41.666666666666664,0.9374999999789063,0.9535864978903642,0.0,0.9990968526256723,0
427,277.81666666666666,0.6277777777777942,0.6444444444444457,0.658333333333303,0.9535864978903642,0.02580160005135527,0.9968234452543813,44.44444444444444,0.9999999999775001,0.9789029535865449,0.0,0.9988936979173368,0
428,278.4611111111111,0.6444444444444457,0.6472222222222399,0.658333333333303,0.9789029535865449,0.024326836094200634,0.9398471613889684,41.666666666666664,0.9374999999789063,0.9831223628692705,0.0,0.9984251635489356,0
429,279.10833333333335,0.6472222222222399,0.6472222222221831,0.658333333333303,0.9831223628692705,0.026950833725930445,1.0412231363050222,47.22222222222222,1.0624999999760938,0.9831223628691841,0.0,0.9977512495677767,0
430,279.75555555555553,0.6472222222221831,0.63611111111112,0.658333333333303,0.9831223628691841,0.027274323766092574,1.0537209060440333,44.44444444444444,0.9999999999775001,0.9662447257384545,0.0,0.9976336303253546,0
431,280.39166666666665,0.63611111111112,0.6305555555555884,0.658333333333303,0.9662447257384545,0.026989829525964185,1.0427297067371937,47.22222222222222,1.0624999999760938,0.9578059071730898,0.0,0.9991661220635977,0
432,281.02222222222224,0.6305555555555884,0.625,0.658333333333303,0.9578059071730898,0.02523251312221323,0.97483724314957,44.44444444444444,0.9999999999775001,0.9493670886076386,0.0,0.9982837635688571,0
433,281.64722222222224,0.625,0.6472222222221831,0.658333333333303,0.9493670886076386,0.025797236758815997,0.9966548730614554,41.666666666666664,0.9374999999789063,0.9831223628691841,0.0,0.9993532119575097,0
434,282.2944444444444,0.6472222222221831,0.6500000000000341,0.658333333333303,0.9831223628691841,0.026853103092555473,1.0374473942396532,44.44444444444444,0.9999999999775001,0.987341772151996,0.0,0.9983879221528154,0
435,282.94444444444446,0.6500000000000341,0.6472222222221831,0.658333333333303,0.987341772151996,0.025090044542653418,0.9693330875919828,44.44444444444444,0.9999999999775001,0.9831223628691841,0.0,0.9969709079235121,0
436,283.59166666666664,0.6472222222221831,0.6166666666666742,0.658333333333303,0.9831223628691841,0.02543340189836216,0.9825984146100661,41.666666666666664,0.9374999999789063,0.9367088607595483,0.0,0.9997538027049567,0
437,284.2083333333333,0.6166666666666742,0.6277777777777942,0.658333333333303,0.9367088607595483,0.02558667094642888,0.9885198373218603,41.666666666666664,0.9374999999789063,0.9535864978903642,0.0,0.9996345672933301,0
438,284.8361111111111,0.6277777777777942,0.6333333333333258,0.658333333333303,0.9535864978903642,0.026100606205425852,1.0083753003354479,44.44444444444444,0.9999999999775001,0.962025316455729,0.0,0.9994804278646423,0
439,285.46944444444443,0.6333333333333258,0.6555555555555657,0.658333333333303,0.962025316455729,0.025589894394236215,0.988644372557757,41.666666666666664,0.9374999999789063,0.9957805907173608,0.0,0.9997864081868839,0
440,286.125,0.6555555555555657,0.6666666666666856,0.658333333333303,0.9957805907173608,0.026166464520591716,1.0109196817882113,47.22222222222222,1.0624999999760938,1.0126582278481766,0.0,0.9992795386613279,0
441,286.7916666666667,0.6666666666666856,0.6277777777777374,0.658333333333303,1.0126582278481766,0.026351745390601717,1.0180778547238234,44.44444444444444,0.9999999999775001,0.9535864978902778,0.0,0.9981666640312554,0
442,287.4194444444444,0.6277777777777374,0.6333333333333826,0.658333333333303,0.9535864978902778,0.02615066510377764,1.0103092844070305,44.44444444444444,0.9999999999775001,0.9620253164558153,0.0,0.9997524631272564,0
443,288.0527777777778,0.6333333333333826,0.6472222222221831,0.658333333333303,0.9620253164558153,0.02584872199488605,0.9986439625092779,44.44444444444444,0.9999999999775001,0.9831223628691841,0.0,0.9997654116215642,0
444,288.7,0.6472222222221831,0.6750000000000114,0.658333333333303,0.9831223628691841,0.025681698671103915,0.9921911547485591,44.44444444444444,0.9999999999775001,1.025316455696267,0.0,0.998780538141008,0
445,289.375,0.6750000000000114,0.6416666666666515,0.658333333333303,1.025316455696267,0.0303970865167842,1.1743662581795868,47.22222222222222,1.0624999999760938,0.9746835443038193,0.0,0.99532009756058,0
446,290.01666666666665,0.6416666666666515,0.63611111111112,0.658333333333303,0.9746835443038193,0.027385003301808018,1.057996918225116,47.22222222222222,1.0624999999760938,0.9662447257384545,0.0,0.9977419743247062,0
447,290.65277777777777,0.63611111111112,0.6333333333333258,0.658333333333303,0.9662447257384545,0.025283325934011947,0.9768003540426713,44.44444444444444,0.9999999999775001,0.962025316455729,0.0,0.9988456304091462,0
448,291.2861111111111,0.6333333333333258,0.6472222222222399,0.658333333333303,0.962025316455729,0.03046189753274765,1.1768701780951942,47.22222222222222,1.0624999999760938,0.9831223628692705,0.0,0.9945254866123769,0
449,291.93333333333334,0.6472222222222399,0.6388888888888573,0.658333333333303,0.9831223628692705,0.029272076704652216,1.1309024359886262,44.44444444444444,0.9999999999775001,0.9704641350210937,0.0,0.9955392153123817,0
450,292.5722222222222,0.6388888888888573,0.6500000000000341,0.658333333333303,0.9704641350210937,0.027150083831849827,1.0489209990985906,47.22222222222222,1.0624999999760938,0.987341772151996,0.0,0.9980250271291875,0
451,293.22222222222223,0.6500000000000341,0.6388888888888573,0.658333333333303,0.987341772151996,0.026985451571883104,1.042560568107745,44.44444444444444,0.9999999999775001,0.9704641350210937,0.0,0.9983020347659323,0
452,293.8611111111111,0.6388888888888573,0.63611111111112,0.658333333333303,0.9704641350210937,0.024375122070864993,0.9417126500997551,41.666666666666664,0.9374999999789063,0.9662447257384545,0.0,0.9992414162724645,0
453,294.4972222222222,0.63611111111112,0.6222222222222626,0.658333333333303,0.9662447257384545,0.02447770940274403,0.9456760266887875,44.44444444444444,0.9999999999775001,0.9451476793249994,0.0,0.9984010244991771,0
454,295.11944444444447,0.6222222222222626,0.6527777777777715,0.658333333333303,0.9451476793249994,0.026886217755230375,1.0387267518016001,47.22222222222222,1.0624999999760938,0.9915611814346352,0.0,0.9988893404403669,0
455,295.77222222222224,0.6527777777777715,0.6416666666666515,0.658333333333303,0.9915611814346352,0.027370015678748597,1.057417883823198,47.22222222222222,1.0624999999760938,0.9746835443038193,0.0,0.9983100412187086,0
456,296.4138888888889,0.6416666666666515,0.6444444444444457,0.658333333333303,0.9746835443038193,0.03000955335979436,1.1593942356719893,47.22222222222222,1.0624999999760938,0.9789029535865449,0.0,0.9950817638171556,0
457,297.05833333333334,0.6444444444444457,0.6277777777777942,0.658333333333303,0.9789029535865449,0.026177499069199188,1.0113459924332036,44.44444444444444,0.9999999999775001,0.9535864978903642,0.0,0.9990602234952937,0
458,297.68611111111113,0.6277777777777942,0.6388888888888573,0.658333333333303,0.9535864978903642,0.026400050098618157,1.0199440671048816,44.44444444444444,0.9999999999775001,0.9704641350210937,0.0,0.9997606671836277,0
459,298.325,0.6388888888888573,0.6333333333333258,0.658333333333303,0.9704641350210937,0.025581257862945014,0.9883107073253835,44.44444444444444,0.9999999999775001,0.962025316455729,0.0,0.9997065266005525,0
460,298.9583333333333,0.6333333333333258,0.6472222222222399,0.658333333333303,0.962025316455729,0.030266755852902456,1.1693310409397915,44.44444444444444,0.9999999999775001,0.9831223628692705,0.0,0.9959482718431079,0
461,299.60555555555555,0.6472222222222399,0.6611111111110972,0.658333333333303,0.9831223628692705,0.025408920591139722,0.9816525995845936,41.666666666666664,0.9374999999789063,1.0042194092827255,0.0,0.9997355877643044,0
462,300.26666666666665,0.6611111111110972,0.6333333333333258,0.658333333333303,1.0042194092827255,0.02589411716134073,1.0003977671622135,44.44444444444444,0.9999999999775001,0.962025316455729,0.0,0.9998498658357942,0
463,300.9,0.6333333333333258,0.6416666666667084,0.658333333333303,0.962025316455729,0.031242257811241448,1.207018751044142,47.22222222222222,1.0624999999760938,0.9746835443039057,0.0,0.9961569692565196,0
464,301.5416666666667,0.6416666666667084,0.63611111111112,0.658333333333303,0.9746835443039057,0.028710870326825347,1.1092206924560297,44.44444444444444,0.9999999999775001,0.9662447257384545,0.0,0.9964085683396613,0
465,302.1777777777778,0.63611111111112,0.6777777777777487,0.658333333333303,0.9662447257384545,0.025902792153267414,1.00073291828938,44.44444444444444,0.9999999999775001,1.0295358649789061,0.0,0.9995277824568396,0
466,302.85555555555555,0.6777777777777487,0.6388888888889142,0.658333333333303,1.0295358649789061,0.027084422013184888,1.0463842091253728,47.22222222222222,1.0624999999760938,0.9704641350211801,0.0,0.9987715116842566,0
467,303.49444444444447,0.6388888888889142,0.6361111111110631,0.658333333333303,0.9704641350211801,0.02758631303890023,1.0657743531629533,44.44444444444444,0.9999999999775001,0.9662447257383682,0.0,0.9973171380777708,0
468,304.13055555555553,0.6361111111110631,0.6388888888889142,0.658333333333303,0.9662447257383682,0.02564252674420945,0.9906777798010181,41.666666666666664,0.9374999999789063,0.9704641350211801,0.0,0.9982065667583759,0
469,304.76944444444445,0.6388888888889142,0.6499999999999773,0.658333333333303,0.9704641350211801,0.02702213333061024,1.0439777374708696,44.44444444444444,0.9999999999775001,0.9873417721519097,0.0,0.998121031515059,0
470,305.4194444444444,0.6499999999999773,0.63611111111112,0.658333333333303,0.9873417721519097,0.03135314733380308,1.2113028758930848,50.0,1.1249999999746876,0.9662447257384545,0.0,0.9963560636523496,0
471,306.05555555555554,0.63611111111112,0.6583333333333599,0.658333333333303,0.9662447257384545,0.02653390244468857,1.0251153416188543,44.44444444444444,0.9999999999775001,1.0000000000000864,0.0,0.9985012758693466,0
472,306.7138888888889,0.6583333333333599,0.6527777777777715,0.658333333333303,1.0000000000000864,0.026017493419047768,1.0051643066801246,44.44444444444444,0.9999999999775001,0.9915611814346352,0.0,0.99824715336152,0
473,307.3666666666667,0.6527777777777715,0.6472222222222399,0.658333333333303,0.9915611814346352,0.024888968482493366,0.9615646805688535,44.44444444444444,0.9999999999775001,0.9831223628692705,0.0,0.9988816698167697,0
474,308.0138888888889,0.6472222222222399,0.625,0.658333333333303,0.9831223628692705,0.03051435401225482,1.178896790728681,47.22222222222222,1.0624999999760938,0.9493670886076386,0.0,0.9957227604520804,0
475,308.6388888888889,0.625,0.6638888888888914,0.658333333333303,0.9493670886076386,0.026266329924162515,1.0147778989317615,44.44444444444444,0.9999999999775001,1.0084388185654511,0.0,0.9995832403574778,0
476,309.3027777777778,0.6638888888888914,0.6666666666666288,0.658333333333303,1.0084388185654511,0.02670278543685884,1.0316399961272942,44.44444444444444,0.9999999999775001,1.0126582278480902,0.0,0.9984442958775933,0
477,309.96944444444443,0.6666666666666288,0.6555555555555657,0.658333333333303,1.0126582278480902,0.02558627161201659,0.9885044093676298,44.44444444444444,0.9999999999775001,0.9957805907173608,0.0,0.999291053321227,0
478,310.625,0.6555555555555657,0.6305555555555316,0.658333333333303,0.9957805907173608,0.02659101572450162,1.0273218658747032,44.44444444444444,0.9999999999775001,0.9578059071730034,0.0,0.9985311496231333,0
479,311.25555555555553,0.6305555555555316,0.6500000000000341,0.658333333333303,0.9578059071730034,0.02754743236184758,1.0642722304117944,47.22222222222222,1.0624999999760938,0.987341772151996,0.0,0.9982926707530635,0
480,311.90555555555557,0.6500000000000341,0.6499999999999773,0.658333333333303,0.987341772151996,0.029582508550710415,1.1428957132151738,50.0,1.1249999999746876,0.9873417721519097,0.0,0.9942180486334891,0
481,312.55555555555554,0.6499999999999773,0.6666666666666856,0.658333333333303,0.9873417721519097,0.026466400070644207,1.022507443313175,47.22222222222222,1.0624999999760938,1.0126582278481766,0.0,0.9968834871555345,0
482,313.22222222222223,0.6666666666666856,0.6722222222222172,0.658333333333303,1.0126582278481766,0.027024499507857912,1.0440691527688128,50.0,1.1249999999746876,1.0210970464135414,0.0,0.9975126797194986,0
483,313.89444444444445,0.6722222222222172,0.6611111111110972,0.658333333333303,1.0210970464135414,0.026180424097274346,1.0114589984699431,44.44444444444444,0.9999999999775001,1.0042194092827255,0.0,0.9987693672694409,0
484,314.55555555555554,0.6611111111110972,0.6444444444444457,0.658333333333303,1.0042194092827255,0.027419929750217207,1.0593462726281164,50.0,1.1249999999746876,0.9789029535865449,0.0,0.997061470844948,0
485,315.2,0.6444444444444457,0.6666666666666856,0.658333333333303,0.9789029535865449,0.026560589720226204,1.0261463824028727,47.22222222222222,1.0624999999760938,1.0126582278481766,0.0,0.9986548829732591,0
486,315.8666666666667,0.6666666666666856,0.6777777777777487,0.658333333333303,1.0126582278481766,0.027663747332099507,1.0687659629380877,50.0,1.1249999999746876,1.0295358649789061,0.0,0.9971046582422448,0
487,316.5444444444444,0.6777777777777487,0.6583333333333599,0.658333333333303,1.0295358649789061,0.026484319902973726,1.0231997611913506,47.22222222222222,1.0624999999760938,1.0000000000000864,0.0,0.9993952820002295,0
488,317.2027777777778,0.6583333333333599,0.63611111111112,0.658333333333303,1.0000000000000864,0.027826776548374083,1.0750644616637668,47.22222222222222,1.0624999999760938,0.9662447257384545,0.0,0.9975952775299304,0
489,317.8388888888889,0.63611111111112,0.6555555555555657,0.658333333333303,0.9662447257384545,0.02721150427320936,1.0512939269729547,47.22222222222222,1.0624999999760938,0.9957805907173608,0.0,0.9974185469087901,0
490,318.49444444444447,0.6555555555555657,0.6555555555555088,0.658333333333303,0.9957805907173608,0.02762420816347975,1.0672383999106945,50.0,1.1249999999746876,0.9957805907172744,0.0,0.9969154920220691,0
491,319.15,0.6555555555555088,0.6722222222222172,0.658333333333303,0.9957805907172744,0.025941881042393884,1.0022430851415387,44.44444444444444,0.9999999999775001,1.0210970464135414,0.0,0.9959843890186859,0
492,319.8222222222222,0.6722222222222172,0.6638888888888914,0.658333333333303,1.0210970464135414,0.026744193382168394,1.0332397577940986,47.22222222222222,1.0624999999760938,1.0084388185654511,0.0,0.9993234315965467,0
493,320.4861111111111,0.6638888888888914,0.6388888888889142,0.658333333333303,1.0084388185654511,0.026009020909336853,1.0048369782856383,44.44444444444444,0.9999999999775001,0.9704641350211801,0.0,0.9996624607311209,0
494,321.125,0.6388888888889142,0.6472222222222399,0.658333333333303,0.9704641350211801,0.03066368871814858,1.1846662133896315,47.22222222222222,1.0624999999760938,0.9831223628692705,0.0,0.9958678731657434,0
495,321.77222222222224,0.6472222222222399,0.658333333333303,0.658333333333303,0.9831223628692705,0.026228177383472513,1.0133039071258223,44.44444444444444,0.9999999999775001,1.0,0.0,0.9976424463815174,0
496,322.43055555555554,0.658333333333303,0.6805555555555429,0.658333333333303,1.0,0.026548706210192737,1.0256872728364235,44.44444444444444,0.9999999999775001,1.0337552742616318,0.0,0.9987825672210686,0
497,323.1111111111111,0.6805555555555429,0.6527777777778283,0.658333333333303,1.0337552742616318,0.02617820377454657,1.0113732181405577,44.44444444444444,0.9999999999775001,0.9915611814347216,0.0,0.9995630818108489,0
498,323.7638888888889,0.6527777777778283,0.6472222222221831,0.658333333333303,0.9915611814347216,0.02672221464923729,1.032390627653367,47.22222222222222,1.0624999999760938,0.9831223628691841,0.0,0.9986079275151987,0
499,324.4111111111111,0.6472222222221831,0.6500000000000341,0.658333333333303,0.9831223628691841,0.024939312495790046,0.9635096798201574,41.666666666666664,0.9374999999789063,0.987341772151996,0.0,0.9994912346826372,0
500,325.06111111111113,0.6500000000000341,0.6638888888888914,0.658333333333303,0.987341772151996,0.026652590623172948,1.0297007610793638,47.22222222222222,1.0624999999760938,1.0084388185654511,0.0,0.9988774655447956,0
501,325.725,0.6638888888888914,0.6666666666666288,0.658333333333303,1.0084388185654511,0.025436459508020256,0.9827165428264387,41.666666666666664,0.9374999999789063,1.0126582278480902,0.0,0.9995032502924446,0
502,326.39166666666665,0.6666666666666288,0.6750000000000114,0.658333333333303,1.0126582278480902,0.025485517482405518,0.984611857029689,41.666666666666664,0.9374999999789063,1.025316455696267,0.0,0.9996508752217759,0
503,327.06666666666666,0.6750000000000114,0.6555555555555657,0.658333333333303,1.025316455696267,0.027781324717829063,1.0733084678406386,47.22222222222222,1.0624999999760938,0.9957805907173608,0.0,0.9963991632295734,0
504,327.72222222222223,0.6555555555555657,0.6555555555555657,0.658333333333303,0.9957805907173608,0.025329943595426854,0.9786013887757429,44.44444444444444,0.9999999999775001,0.9957805907173608,0.0,0.9992937036987041,0
505,328.3777777777778,0.6555555555555657,0.6499999999999773,0.658333333333303,0.9957805907173608,0.025810453598494418,0.9971654947142752,41.666666666666664,0.9374999999789063,0.9873417721519097,0.0,0.9994673873738626,0
506,329.02777777777777,0.6499999999999773,0.6888888888888687,0.658333333333303,0.9873417721519097,0.025807970611282142,0.9970695665601089,44.44444444444444,0.9999999999775001,1.046413502109722,0.0,0.99851607393304,0
507,329.71666666666664,0.6888888888888687,0.6666666666666856,0.658333333333303,1.046413502109722,0.027198323070642856,1.0507846821304339,47.22222222222222,1.0624999999760938,1.0126582278481766,0.0,0.9978181265265128,0
508,330.3833333333333,0.6666666666666856,0.6583333333333599,0.658333333333303,1.0126582278481766,0.02601760336863713,1.005168554491433,44.44444444444444,0.9999999999775001,1.0000000000000864,0.0,0.9997771545631469,0
509,331.0416666666667,0.6583333333333599,0.6388888888888573,0.658333333333303,1.0000000000000864,0.0264690393075726,1.022609408045694,44.44444444444444,0.9999999999775001,0.9704641350210937,0.0,0.99810053929164,0
510,331.68055555555554,0.6388888888888573,0.6555555555555657,0.658333333333303,0.9704641350210937,0.029371821586058642,1.1347559968581902,44.44444444444444,0.9999999999775001,0.9957805907173608,0.0,0.9960090451978364,0
511,332.3361111111111,0.6555555555555657,0.6416666666666515,0.658333333333303,0.9957805907173608,0.025405889674197258,0.9815355026191785,44.44444444444444,0.9999999999775001,0.9746835443038193,0.0,0.9996623641973365,0
512,332.97777777777776,0.6416666666666515,0.6666666666666856,0.658333333333303,0.9746835443038193,0.02761060620358671,1.0667128994573967,47.22222222222222,1.0624999999760938,1.0126582278481766,0.0,0.9975149099884102,0
513,333.64444444444445,0.6666666666666856,0.6527777777777715,0.658333333333303,1.0126582278481766,0.0247019189339694,0.9543381762039376,44.44444444444444,0.9999999999775001,0.9915611814346352,0.0,0.9976927903713909,0
514,334.2972222222222,0.6527777777777715,0.6527777777777715,0.658333333333303,0.9915611814346352,0.025636198005233136,0.9904332742130729,44.44444444444444,0.9999999999775001,0.9915611814346352,0.0,0.994181691906094,0
515,334.95,0.6527777777777715,0.6472222222222399,0.658333333333303,0.9915611814346352,0.023375883730150916,0.9031079045243521,38.888888888888886,0.8749999999803125,0.9831223628692705,0.0,0.9957091523770156,0
516,335.59722222222223,0.6472222222222399,0.6888888888888687,0.658333333333303,0.9831223628692705,0.02629658669122647,1.0159468440641144,44.44444444444444,0.9999999999775001,1.046413502109722,0.0,0.9981511873201485,0
517,336.2861111111111,0.6888888888888687,0.6722222222222172,0.658333333333303,1.046413502109722,0.025601198260750753,0.9890810880769996,44.44444444444444,0.9999999999775001,1.0210970464135414,0.0,0.9991627684529247,0
518,336.9583333333333,0.6722222222222172,0.6666666666666856,0.658333333333303,1.0210970464135414,0.024541271468420056,0.9481316944446069,44.44444444444444,0.9999999999775001,1.0126582278481766,0.0,0.9976460626568593,0
519,337.625,0.6666666666666856,0.6499999999999773,0.658333333333303,1.0126582278481766,0.02376118800315554,0.9179938159454746,41.666666666666664,0.9374999999789063,0.9873417721519097,0.0,0.9989147338174369,0
520,338.275,0.6499999999999773,0.6666666666666856,0.658333333333303,0.9873417721519097,0.025595469270732963,0.9888597532932654,41.666666666666664,0.9374999999789063,1.0126582278481766,0.0,0.9996057291313345,0
521,338.94166666666666,0.6666666666666856,0.6499999999999773,0.658333333333303,1.0126582278481766,0.031399889047081346,1.2131087032671388,47.22222222222222,1.0624999999760938,0.9873417721519097,0.0,0.9963586821446595,0
522,339.59166666666664,0.6499999999999773,0.6666666666666856,0.658333333333303,0.9873417721519097,0.025862381334345142,0.9991716797745797,44.44444444444444,0.9999999999775001,1.0126582278481766,0.0,0.9984349518263295,0
523,340.2583333333333,0.6666666666666856,0.6694444444444798,0.658333333333303,1.0126582278481766,0.025842759625525697,0.9984136113079634,41.666666666666664,0.9374999999789063,1.0168776371309023,0.0,0.9997234044030395,0
524,340.9277777777778,0.6694444444444798,0.6555555555555088,0.658333333333303,1.0168776371309023,0.025478713422208296,0.9843489878001058,41.666666666666664,0.9374999999789063,0.9957805907172744,0.0,0.9987957118627568,0
525,341.5833333333333,0.6555555555555088,0.6388888888889142,0.658333333333303,0.9957805907172744,0.02440397545742114,0.9428273767886779,44.44444444444444,0.9999999999775001,0.9704641350211801,0.0,0.9980240716250259,0
526,342.22222222222223,0.6388888888889142,0.669444444444423,0.658333333333303,0.9704641350211801,0.024989816322436055,0.9654608533278315,41.666666666666664,0.9374999999789063,1.016877637130816,0.0,0.9997804351686187,0
527,342.89166666666665,0.669444444444423,0.6666666666666856,0.658333333333303,1.016877637130816,0.02634490776711504,1.017813688804354,44.44444444444444,0.9999999999775001,1.0126582278481766,0.0,0.9995705191582214,0
528,343.55833333333334,0.6666666666666856,0.658333333333303,0.658333333333303,1.0126582278481766,0.02488296334928361,0.9613326772216407,44.44444444444444,0.9999999999775001,1.0,0.0,0.9992420514376572,0
529,344.21666666666664,0.658333333333303,0.63611111111112,0.658333333333303,1.0,0.02609232499866323,1.0080553627719033,47.22222222222222,1.0624999999760938,0.9662447257384545,0.0,0.9993793568210281,0
530,344.85277777777776,0.63611111111112,0.6583333333333599,0.658333333333303,0.9662447257384545,0.028119082717996582,1.0863574683956074,47.22222222222222,1.0624999999760938,1.0000000000000864,0.0,0.9966826256781092,0
531,345.5111111111111,0.6583333333333599,0.658333333333303,0.658333333333303,1.0000000000000864,0.02812200497953057,1.0864703675493206,50.0,1.1249999999746876,1.0,0.0,0.9969169173591999,0
532,346.1694444444444,0.658333333333303,0.6722222222222172,0.658333333333303,1.0,0.028438158241023977,1.0986846869218787,50.0,1.1249999999746876,1.0210970464135414,0.0,0.9958312276583371,0
533,346.84166666666664,0.6722222222222172,0.6805555555555998,0.658333333333303,1.0210970464135414,0.02848595814715698,1.1005313967003225,50.0,1.1249999999746876,1.0337552742617182,0.0,0.9953930547899731,0
534,347.52222222222224,0.6805555555555998,0.6638888888888914,0.658333333333303,1.0337552742617182,0.025618749998891535,0.9897591849411038,44.44444444444444,0.9999999999775001,1.0084388185654511,0.0,0.9994762904611776,0
535,348.18611111111113,0.6638888888888914,0.6527777777777715,0.658333333333303,1.0084388185654511,0.02641933660474761,1.020689185293235,47.22222222222222,1.0624999999760938,0.9915611814346352,0.0,0.9979393137947297,0
536,348.8388888888889,0.6527777777777715,0.6833333333333371,0.658333333333303,0.9915611814346352,0.025751759878848108,0.9948979114746244,44.44444444444444,0.9999999999775001,1.0379746835443573,0.0,0.9996902562854284,0
537,349.52222222222224,0.6833333333333371,0.6833333333333371,0.658333333333303,1.0379746835443573,0.026044399748355564,1.0062038104251,41.666666666666664,0.9374999999789063,1.0379746835443573,0.0,0.9995176331717704,0
538,350.2055555555556,0.6833333333333371,0.6749999999999545,0.658333333333303,1.0379746835443573,0.025777331169776627,0.9958858371176943,44.44444444444444,0.9999999999775001,1.0253164556961807,0.0,0.998953041307401,0
539,350.88055555555553,0.6749999999999545,0.6472222222222399,0.658333333333303,1.0253164556961807,0.026418504208427156,1.020657026350909,44.44444444444444,0.9999999999775001,0.9831223628692705,0.0,0.9975825966062786,0
540,351.52777777777777,0.6472222222222399,0.6638888888888914,0.658333333333303,0.9831223628692705,0.03094172050013977,1.195407740979511,47.22222222222222,1.0624999999760938,1.0084388185654511,0.0,0.9969701099249384,0
541,352.19166666666666,0.6638888888888914,0.6638888888888914,0.658333333333303,1.0084388185654511,0.025374306081626146,0.9803152966824312,44.44444444444444,0.9999999999775001,1.0084388185654511,0.0,0.9991879902234563,0
542,352.85555555555555,0.6638888888888914,0.6888888888888687,0.658333333333303,1.0084388185654511,0.025355661277879173,0.9795949701340715,44.44444444444444,0.9999999999775001,1.046413502109722,0.0,0.999088726366494,0
543,353.5444444444444,0.6888888888888687,0.6916666666666629,0.658333333333303,1.046413502109722,0.025469009639210904,0.9839740901821206,41.666666666666664,0.9374999999789063,1.0506329113924477,0.0,0.9996695245437969,0
544,354.2361111111111,0.6916666666666629,0.6694444444444798,0.658333333333303,1.0506329113924477,0.025143596344815434,0.9714020171089303,41.666666666666664,0.9374999999789063,1.0168776371309023,0.0,0.9994093467758443,0
545,354.90555555555557,0.6694444444444798,0.6555555555555657,0.658333333333303,1.0168776371309023,0.025779392559981875,0.9959654772207235,44.44444444444444,0.9999999999775001,0.9957805907173608,0.0,0.9988764546394844,0
546,355.56111111111113,0.6555555555555657,0.6777777777777487,0.658333333333303,0.9957805907173608,0.025495881572114652,0.985012265050518,41.666666666666664,0.9374999999789063,1.0295358649789061,0.0,0.9995404947355565,0
547,356.2388888888889,0.6777777777777487,0.6805555555555429,0.658333333333303,1.0295358649789061,0.02582552705594052,0.997747845256622,44.44444444444444,0.9999999999775001,1.0337552742616318,0.0,0.999190637183688,0
548,356.9194444444444,0.6805555555555429,0.6777777777778056,0.658333333333303,1.0337552742616318,0.02393305645303759,0.9246338111396082,41.666666666666664,0.9374999999789063,1.0295358649789925,0.0,0.9990691828279685,0
549,357.59722222222223,0.6777777777778056,0.6472222222222399,0.658333333333303,1.0295358649789925,0.025724432697492465,0.9938421484593926,44.44444444444444,0.9999999999775001,0.9831223628692705,0.0,0.998484422481065,0
550,358.24444444444447,0.6472222222222399,0.6638888888888914,0.658333333333303,0.9831223628692705,0.02589395525518793,1.0003915120521147,44.44444444444444,0.9999999999775001,1.0084388185654511,0.0,0.9984761289599925,0
551,358.90833333333336,0.6638888888888914,0.6555555555555088,0.658333333333303,1.0084388185654511,0.025436442282433608,0.9827158773301673,41.666666666666664,0.9374999999789063,0.9957805907172744,0.0,0.9997740407445015,0
552,359.56388888888887,0.6555555555555088,0.6833333333333371,0.658333333333303,0.9957805907172744,0.02593948310440292,1.0021504427935874,44.44444444444444,0.9999999999775001,1.0379746835443573,0.0,0.997911664307739,0
553,360.2472222222222,0.6833333333333371,0.6805555555555998,0.658333333333303,1.0379746835443573,0.026367346796805226,1.0186806021290866,44.44444444444444,0.9999999999775001,1.0337552742617182,0.0,0.9984396391278515,0
554,360.9277777777778,0.6805555555555998,0.669444444444423,0.658333333333303,1.0337552742617182,0.02919230698619854,1.1278205989933352,44.44444444444444,0.9999999999775001,1.016877637130816,0.0,0.9945222518152608,0
555,361.59722222222223,0.669444444444423,0.6527777777777715,0.658333333333303,1.016877637130816,0.02597374019185966,1.0034739369906542,41.666666666666664,0.9374999999789063,0.9915611814346352,0.0,0.997204535028615,0
556,362.25,0.6527777777777715,0.6944444444444571,0.658333333333303,0.9915611814346352,0.03043695408879791,1.1759065088000729,44.44444444444444,0.9999999999775001,1.0548523206751732,0.0,0.9967845494108927,0
557,362.94444444444446,0.6944444444444571,0.6888888888888687,0.658333333333303,1.0548523206751732,0.025826825067704413,0.9977979928659132,41.666666666666664,0.9374999999789063,1.046413502109722,0.0,0.9991778332021837,0
